3997,70175;1,96547
3995,6506;1,9678
3993,59944;1,97103
3991,54829;1,9733
3989,49713;1,97478
3987,44598;1,975
3985,39482;1,97433
3983,34367;1,97412
3981,29251;1,9748
3979,24136;1,97741
3977,1902;1,98115
3975,13905;1,98341
3973,08789;1,98293
3971,03673;1,9814
3968,98558;1,98149
3966,93442;1,98335
3964,88327;1,98542
3962,83211;1,98746
3960,78096;1,98995
3958,7298;1,99182
3956,67865;1,99209
3954,62749;1,99201
3952,57634;1,99393
3950,52518;1,99758
3948,47403;1,99972
3946,42287;1,99989
3944,37172;2,00001
3942,32056;2,00086
3940,2694;2,00144
3938,21825;2,00008
3936,16709;1,99744
3934,11594;1,99516
3932,06478;1,99431
3930,01363;1,99287
3927,96247;1,98958
3925,91132;1,98758
3923,86016;1,98738
3921,80901;1,98507
3919,75785;1,98035
3917,7067;1,97669
3915,65554;1,97435
3913,60439;1,97005
3911,55323;1,96424
3909,50207;1,96103
3907,45092;1,96072
3905,39976;1,96268
3903,34861;1,96935
3901,29745;1,97647
3899,2463;1,97502
3897,19514;1,96694
3895,14399;1,9595
3893,09283;1,95572
3891,04168;1,95615
3888,99052;1,95853
3886,93937;1,95901
3884,88821;1,96253
3882,83706;1,96746
3880,7859;1,96619
3878,73474;1,96228
3876,68359;1,95895
3874,63243;1,95812
3872,58128;1,95975
3870,53012;1,95949
3868,47897;1,96125
3866,42781;1,96293
3864,37666;1,96175
3862,3255;1,95971
3860,27435;1,95648
3858,22319;1,95347
3856,17204;1,95042
3854,12088;1,95255
3852,06973;1,9624
3850,01857;1,96373
3847,96741;1,95393
3845,91626;1,94535
3843,8651;1,94478
3841,81395;1,94966
3839,76279;1,95355
3837,71164;1,95645
3835,66048;1,95855
3833,60933;1,95514
3831,55817;1,94908
3829,50702;1,94707
3827,45586;1,94803
3825,40471;1,95
3823,35355;1,95184
3821,3024;1,9561
3819,25124;1,96246
3817,20008;1,96051
3815,14893;1,95579
3813,09777;1,95452
3811,04662;1,9524
3808,99546;1,95071
3806,94431;1,95415
3804,89315;1,96225
3802,842;1,96543
3800,79084;1,96753
3798,73969;1,97187
3796,68853;1,97134
3794,63738;1,96789
3792,58622;1,96417
3790,53506;1,96266
3788,48391;1,96527
3786,43275;1,96957
3784,3816;1,97315
3782,33044;1,97584
3780,27929;1,97765
3778,22813;1,97888
3776,17698;1,97827
3774,12582;1,9781
3772,07467;1,98152
3770,02351;1,98703
3767,97236;1,99206
3765,9212;1,99388
3763,87005;1,99478
3761,81889;1,99784
3759,76773;2,0055
3757,71658;2,01482
3755,66542;2,01916
3753,61427;2,0211
3751,56311;2,02778
3749,51196;2,03735
3747,4608;2,0414
3745,40965;2,03908
3743,35849;2,04465
3741,30734;2,05513
3739,25618;2,06053
3737,20503;2,06962
3735,15387;2,08521
3733,10272;2,09374
3731,05156;2,09346
3729,0004;2,09517
3726,94925;2,10145
3724,89809;2,11089
3722,84694;2,12046
3720,79578;2,1311
3718,74463;2,14347
3716,69347;2,15645
3714,64232;2,17164
3712,59116;2,19318
3710,54001;2,21938
3708,48885;2,24081
3706,4377;2,25789
3704,38654;2,27828
3702,33539;2,30658
3700,28423;2,34087
3698,23307;2,37204
3696,18192;2,39504
3694,13076;2,41218
3692,07961;2,42664
3690,02845;2,43925
3687,9773;2,44522
3685,92614;2,44087
3683,87499;2,43333
3681,82383;2,43632
3679,77268;2,4512
3677,72152;2,46886
3675,67037;2,49198
3673,61921;2,52782
3671,56806;2,5612
3669,5169;2,58326
3667,46574;2,59764
3665,41459;2,60846
3663,36343;2,61987
3661,31228;2,63028
3659,26112;2,63913
3657,20997;2,65158
3655,15881;2,66805
3653,10766;2,68053
3651,0565;2,6952
3649,00535;2,72319
3646,95419;2,74499
3644,90304;2,74827
3642,85188;2,74821
3640,80073;2,75171
3638,74957;2,75065
3636,69841;2,74409
3634,64726;2,73988
3632,5961;2,74459
3630,54495;2,75589
3628,49379;2,76644
3626,44264;2,768
3624,39148;2,76257
3622,34033;2,75883
3620,28917;2,75942
3618,23802;2,76285
3616,18686;2,763
3614,13571;2,76224
3612,08455;2,76433
3610,0334;2,76036
3607,98224;2,75353
3605,93108;2,75621
3603,87993;2,76091
3601,82877;2,75749
3599,77762;2,75431
3597,72646;2,75875
3595,67531;2,76387
3593,62415;2,76409
3591,573;2,76226
3589,52184;2,76948
3587,47069;2,78991
3585,41953;2,80398
3583,36838;2,8013
3581,31722;2,79354
3579,26607;2,78741
3577,21491;2,78394
3575,16375;2,78169
3573,1126;2,77478
3571,06144;2,7654
3569,01029;2,764
3566,95913;2,77485
3564,90798;2,78796
3562,85682;2,78659
3560,80567;2,77329
3558,75451;2,76509
3556,70336;2,76881
3554,6522;2,77823
3552,60105;2,7815
3550,54989;2,77841
3548,49874;2,78005
3546,44758;2,78791
3544,39642;2,7963
3542,34527;2,79821
3540,29411;2,79098
3538,24296;2,78677
3536,1918;2,79033
3534,14065;2,78651
3532,08949;2,77409
3530,03834;2,76921
3527,98718;2,77643
3525,93603;2,78757
3523,88487;2,79777
3521,83372;2,80666
3519,78256;2,80857
3517,73141;2,79836
3515,68025;2,78585
3513,62909;2,78315
3511,57794;2,78843
3509,52678;2,79529
3507,47563;2,79601
3505,42447;2,78913
3503,37332;2,78613
3501,32216;2,78752
3499,27101;2,78261
3497,21985;2,77437
3495,1687;2,77554
3493,11754;2,79125
3491,06639;2,8044
3489,01523;2,79595
3486,96407;2,78287
3484,91292;2,78108
3482,86176;2,77915
3480,81061;2,77631
3478,75945;2,77825
3476,7083;2,77595
3474,65714;2,7658
3472,60599;2,75819
3470,55483;2,75941
3468,50368;2,76404
3466,45252;2,76416
3464,40137;2,76051
3462,35021;2,76094
3460,29906;2,76434
3458,2479;2,75989
3456,19674;2,7503
3454,14559;2,74783
3452,09443;2,75314
3450,04328;2,76041
3447,99212;2,76755
3445,94097;2,77664
3443,88981;2,7846
3441,83866;2,77952
3439,7875;2,76596
3437,73635;2,76275
3435,68519;2,77079
3433,63404;2,7782
3431,58288;2,77644
3429,53173;2,76705
3427,48057;2,76001
3425,42941;2,75913
3423,37826;2,7549
3421,3271;2,74819
3419,27595;2,75501
3417,22479;2,77002
3415,17364;2,77503
3413,12248;2,77156
3411,07133;2,76492
3409,02017;2,75845
3406,96902;2,75965
3404,91786;2,76377
3402,86671;2,75988
3400,81555;2,75294
3398,7644;2,75007
3396,71324;2,7493
3394,66208;2,75263
3392,61093;2,76228
3390,55977;2,77058
3388,50862;2,76779
3386,45746;2,75742
3384,40631;2,7555
3382,35515;2,762
3380,304;2,7636
3378,25284;2,76239
3376,20169;2,76601
3374,15053;2,76999
3372,09938;2,76561
3370,04822;2,75512
3367,99707;2,75101
3365,94591;2,75456
3363,89475;2,75549
3361,8436;2,75502
3359,79244;2,76023
3357,74129;2,76566
3355,69013;2,76233
3353,63898;2,75373
3351,58782;2,74846
3349,53667;2,75029
3347,48551;2,7557
3345,43436;2,75685
3343,3832;2,7526
3341,33205;2,74931
3339,28089;2,75412
3337,22974;2,76386
3335,17858;2,76288
3333,12742;2,75061
3331,07627;2,74464
3329,02511;2,74967
3326,97396;2,75732
3324,9228;2,76357
3322,87165;2,763
3320,82049;2,75528
3318,76934;2,75118
3316,71818;2,7509
3314,66703;2,75088
3312,61587;2,75425
3310,56472;2,75621
3308,51356;2,75278
3306,46241;2,75103
3304,41125;2,75609
3302,36009;2,76235
3300,30894;2,75988
3298,25778;2,7476
3296,20663;2,73501
3294,15547;2,73119
3292,10432;2,73682
3290,05316;2,74154
3288,00201;2,73786
3285,95085;2,73321
3283,8997;2,73249
3281,84854;2,73192
3279,79739;2,73048
3277,74623;2,7324
3275,69508;2,73645
3273,64392;2,73542
3271,59276;2,73116
3269,54161;2,73124
3267,49045;2,73453
3265,4393;2,73209
3263,38814;2,72138
3261,33699;2,7087
3259,28583;2,70042
3257,23468;2,69708
3255,18352;2,6988
3253,13237;2,70578
3251,08121;2,7108
3249,03006;2,71285
3246,9789;2,71553
3244,92775;2,7172
3242,87659;2,71909
3240,82543;2,71924
3238,77428;2,71645
3236,72312;2,71832
3234,67197;2,72522
3232,62081;2,73024
3230,56966;2,73097
3228,5185;2,72714
3226,46735;2,72161
3224,41619;2,71816
3222,36504;2,71792
3220,31388;2,7222
3218,26273;2,72656
3216,21157;2,72363
3214,16041;2,71728
3212,10926;2,71125
3210,0581;2,70634
3208,00695;2,70917
3205,95579;2,71718
3203,90464;2,72138
3201,85348;2,72043
3199,80233;2,71965
3197,75117;2,72349
3195,70002;2,72375
3193,64886;2,71628
3191,59771;2,71496
3189,54655;2,72353
3187,4954;2,72897
3185,44424;2,72698
3183,39308;2,72527
3181,34193;2,72631
3179,29077;2,72197
3177,23962;2,71194
3175,18846;2,70687
3173,13731;2,70704
3171,08615;2,70586
3169,035;2,70593
3166,98384;2,70832
3164,93269;2,70663
3162,88153;2,70528
3160,83038;2,71132
3158,77922;2,7144
3156,72807;2,70691
3154,67691;2,70021
3152,62575;2,7014
3150,5746;2,70266
3148,52344;2,70133
3146,47229;2,70228
3144,42113;2,70393
3142,36998;2,703
3140,31882;2,70198
3138,26767;2,70258
3136,21651;2,70188
3134,16536;2,70092
3132,1142;2,70554
3130,06305;2,7135
3128,01189;2,71716
3125,96074;2,71765
3123,90958;2,71747
3121,85842;2,71084
3119,80727;2,70084
3117,75611;2,7011
3115,70496;2,7127
3113,6538;2,72174
3111,60265;2,71953
3109,55149;2,71263
3107,50034;2,71034
3105,44918;2,71298
3103,39803;2,71493
3101,34687;2,71198
3099,29572;2,70773
3097,24456;2,70972
3095,19341;2,71424
3093,14225;2,71074
3091,09109;2,69961
3089,03994;2,6921
3086,98878;2,69759
3084,93763;2,70882
3082,88647;2,71233
3080,83532;2,71
3078,78416;2,71069
3076,73301;2,71264
3074,68185;2,70806
3072,6307;2,70151
3070,57954;2,70354
3068,52839;2,71027
3066,47723;2,71093
3064,42608;2,70812
3062,37492;2,70858
3060,32376;2,70892
3058,27261;2,70672
3056,22145;2,70204
3054,1703;2,6937
3052,11914;2,68983
3050,06799;2,6978
3048,01683;2,70698
3045,96568;2,70677
3043,91452;2,70758
3041,86337;2,71591
3039,81221;2,72027
3037,76106;2,71435
3035,7099;2,70631
3033,65875;2,70697
3031,60759;2,71601
3029,55643;2,72257
3027,50528;2,71922
3025,45412;2,7098
3023,40297;2,70452
3021,35181;2,70702
3019,30066;2,71384
3017,2495;2,72089
3015,19835;2,72531
3013,14719;2,72596
3011,09604;2,72438
3009,04488;2,7216
3006,99373;2,71704
3004,94257;2,71202
3002,89142;2,70891
3000,84026;2,70861
2998,7891;2,71045
2996,73795;2,71248
2994,68679;2,71046
2992,63564;2,70653
2990,58448;2,70995
2988,53333;2,71917
2986,48217;2,72438
2984,43102;2,72315
2982,37986;2,72244
2980,32871;2,72567
2978,27755;2,73065
2976,2264;2,73445
2974,17524;2,73522
2972,12409;2,73601
2970,07293;2,73874
2968,02177;2,74263
2965,97062;2,74827
2963,91946;2,75123
2961,86831;2,7465
2959,81715;2,73781
2957,766;2,72663
2955,71484;2,71743
2953,66369;2,72064
2951,61253;2,73099
2949,56138;2,73799
2947,51022;2,7407
2945,45907;2,741
2943,40791;2,73931
2941,35675;2,73754
2939,3056;2,74013
2937,25444;2,74275
2935,20329;2,74229
2933,15213;2,74115
2931,10098;2,7325
2929,04982;2,71583
2926,99867;2,70015
2924,94751;2,6864
2922,89636;2,67502
2920,8452;2,66685
2918,79405;2,6586
2916,74289;2,6489
2914,69174;2,64247
2912,64058;2,64379
2910,58942;2,64948
2908,53827;2,65063
2906,48711;2,64828
2904,43596;2,65268
2902,3848;2,66158
2900,33365;2,6631
2898,28249;2,66022
2896,23134;2,65994
2894,18018;2,6613
2892,12903;2,66336
2890,07787;2,66155
2888,02672;2,65851
2885,97556;2,66308
2883,92441;2,66901
2881,87325;2,66712
2879,82209;2,66168
2877,77094;2,66266
2875,71978;2,67314
2873,66863;2,68643
2871,61747;2,69644
2869,56632;2,69747
2867,51516;2,69122
2865,46401;2,68898
2863,41285;2,69216
2861,3617;2,69325
2859,31054;2,6889
2857,25939;2,68053
2855,20823;2,67053
2853,15708;2,66419
2851,10592;2,66072
2849,05476;2,65203
2847,00361;2,6389
2844,95245;2,63247
2842,9013;2,63839
2840,85014;2,64512
2838,79899;2,64293
2836,74783;2,6402
2834,69668;2,64264
2832,64552;2,64783
2830,59437;2,65315
2828,54321;2,6561
2826,49206;2,65526
2824,4409;2,65314
2822,38975;2,65241
2820,33859;2,64991
2818,28743;2,64804
2816,23628;2,65061
2814,18512;2,65114
2812,13397;2,65051
2810,08281;2,6535
2808,03166;2,65411
2805,9805;2,65037
2803,92935;2,64804
2801,87819;2,64931
2799,82704;2,64831
2797,77588;2,64331
2795,72473;2,64107
2793,67357;2,64217
2791,62242;2,64375
2789,57126;2,64586
2787,5201;2,64514
2785,46895;2,63928
2783,41779;2,63698
2781,36664;2,6446
2779,31548;2,65235
2777,26433;2,64957
2775,21317;2,6429
2773,16202;2,6406
2771,11086;2,64012
2769,05971;2,63961
2767,00855;2,64158
2764,9574;2,64675
2762,90624;2,6479
2760,85509;2,64153
2758,80393;2,63668
2756,75277;2,6366
2754,70162;2,63909
2752,65046;2,64305
2750,59931;2,64337
2748,54815;2,64213
2746,497;2,64372
2744,44584;2,64268
2742,39469;2,63906
2740,34353;2,64011
2738,29238;2,64241
2736,24122;2,63949
2734,19007;2,6365
2732,13891;2,63702
2730,08776;2,63831
2728,0366;2,63869
2725,98544;2,63478
2723,93429;2,62999
2721,88313;2,6316
2719,83198;2,63371
2717,78082;2,63181
2715,72967;2,63322
2713,67851;2,63596
2711,62736;2,63233
2709,5762;2,62767
2707,52505;2,62829
2705,47389;2,62964
2703,42274;2,62849
2701,37158;2,62615
2699,32043;2,62553
2697,26927;2,63049
2695,21811;2,63531
2693,16696;2,63263
2691,1158;2,62581
2689,06465;2,62084
2687,01349;2,62283
2684,96234;2,62925
2682,91118;2,62851
2680,86003;2,61957
2678,80887;2,61373
2676,75772;2,6137
2674,70656;2,61325
2672,65541;2,61332
2670,60425;2,61665
2668,55309;2,61784
2666,50194;2,61653
2664,45078;2,61601
2662,39963;2,61609
2660,34847;2,61834
2658,29732;2,62043
2656,24616;2,61833
2654,19501;2,61589
2652,14385;2,61534
2650,0927;2,61545
2648,04154;2,61679
2645,99039;2,61798
2643,93923;2,61826
2641,88808;2,61834
2639,83692;2,61723
2637,78576;2,61424
2635,73461;2,61047
2633,68345;2,6073
2631,6323;2,60548
2629,58114;2,60775
2627,52999;2,61432
2625,47883;2,61806
2623,42768;2,61565
2621,37652;2,61427
2619,32537;2,61697
2617,27421;2,6167
2615,22306;2,61374
2613,1719;2,61811
2611,12075;2,62565
2609,06959;2,62528
2607,01843;2,62406
2604,96728;2,62592
2602,91612;2,62472
2600,86497;2,62311
2598,81381;2,6211
2596,76266;2,61717
2594,7115;2,61688
2592,66035;2,619
2590,60919;2,62002
2588,55804;2,62016
2586,50688;2,61743
2584,45573;2,61393
2582,40457;2,61277
2580,35342;2,61223
2578,30226;2,61295
2576,2511;2,61592
2574,19995;2,61729
2572,14879;2,61724
2570,09764;2,6189
2568,04648;2,61871
2565,99533;2,61561
2563,94417;2,61521
2561,89302;2,61732
2559,84186;2,61593
2557,79071;2,61148
2555,73955;2,6099
2553,6884;2,61118
2551,63724;2,61157
2549,58609;2,61196
2547,53493;2,61298
2545,48377;2,61294
2543,43262;2,61175
2541,38146;2,61045
2539,33031;2,61202
2537,27915;2,61596
2535,228;2,61734
2533,17684;2,61705
2531,12569;2,62155
2529,07453;2,63002
2527,02338;2,63427
2524,97222;2,63289
2522,92107;2,63225
2520,86991;2,63425
2518,81876;2,63486
2516,7676;2,63194
2514,71644;2,62971
2512,66529;2,63151
2510,61413;2,63391
2508,56298;2,63426
2506,51182;2,63229
2504,46067;2,62741
2502,40951;2,62279
2500,35836;2,62255
2498,3072;2,62198
2496,25605;2,61842
2494,20489;2,61747
2492,15374;2,61681
2490,10258;2,61151
2488,05143;2,60536
2486,00027;2,60275
2483,94911;2,60062
2481,89796;2,59541
2479,8468;2,59098
2477,79565;2,58957
2475,74449;2,58778
2473,69334;2,58379
2471,64218;2,58136
2469,59103;2,58231
2467,53987;2,58128
2465,48872;2,57676
2463,43756;2,57427
2461,38641;2,57273
2459,33525;2,56694
2457,2841;2,55997
2455,23294;2,55586
2453,18178;2,55147
2451,13063;2,5473
2449,07947;2,54815
2447,02832;2,55104
2444,97716;2,55266
2442,92601;2,55246
2440,87485;2,54991
2438,8237;2,54962
2436,77254;2,55034
2434,72139;2,54713
2432,67023;2,54314
2430,61908;2,54
2428,56792;2,53668
2426,51677;2,53533
2424,46561;2,53698
2422,41445;2,53835
2420,3633;2,53713
2418,31214;2,53527
2416,26099;2,53459
2414,20983;2,53429
2412,15868;2,53299
2410,10752;2,53245
2408,05637;2,53315
2406,00521;2,53219
2403,95406;2,52918
2401,9029;2,52429
2399,85175;2,51953
2397,80059;2,51716
2395,74944;2,51711
2393,69828;2,51862
2391,64712;2,5212
2389,59597;2,52297
2387,54481;2,52179
2385,49366;2,51822
2383,4425;2,51417
2381,39135;2,51136
2379,34019;2,51095
2377,28904;2,51195
2375,23788;2,51253
2373,18673;2,51304
2371,13557;2,51319
2369,08442;2,50765
2367,03326;2,49622
2364,9821;2,49018
2362,93095;2,49333
2360,87979;2,49878
2358,82864;2,50475
2356,77748;2,51104
2354,72633;2,51526
2352,67517;2,51581
2350,62402;2,51282
2348,57286;2,51047
2346,52171;2,51278
2344,47055;2,51672
2342,4194;2,51411
2340,36824;2,50569
2338,31709;2,50021
2336,26593;2,50147
2334,21477;2,5064
2332,16362;2,50924
2330,11246;2,50819
2328,06131;2,50559
2326,01015;2,50292
2323,959;2,50143
2321,90784;2,5014
2319,85669;2,50216
2317,80553;2,50325
2315,75438;2,50478
2313,70322;2,50696
2311,65207;2,50892
2309,60091;2,50933
2307,54976;2,50783
2305,4986;2,50539
2303,44744;2,50387
2301,39629;2,50343
2299,34513;2,50141
2297,29398;2,49701
2295,24282;2,494
2293,19167;2,49537
2291,14051;2,49855
2289,08936;2,49984
2287,0382;2,50008
2284,98705;2,49973
2282,93589;2,4967
2280,88474;2,49356
2278,83358;2,49517
2276,78243;2,49961
2274,73127;2,50053
2272,68011;2,49578
2270,62896;2,49014
2268,5778;2,48956
2266,52665;2,49328
2264,47549;2,49652
2262,42434;2,49717
2260,37318;2,49462
2258,32203;2,49035
2256,27087;2,48889
2254,21972;2,49102
2252,16856;2,49294
2250,11741;2,49298
2248,06625;2,49272
2246,0151;2,49492
2243,96394;2,50083
2241,91278;2,50549
2239,86163;2,50463
2237,81047;2,50092
2235,75932;2,49794
2233,70816;2,49646
2231,65701;2,49581
2229,60585;2,49539
2227,5547;2,49692
2225,50354;2,5015
2223,45239;2,50445
2221,40123;2,50247
2219,35008;2,49915
2217,29892;2,49825
2215,24777;2,50041
2213,19661;2,50143
2211,14545;2,49861
2209,0943;2,49767
2207,04314;2,50078
2204,99199;2,5028
2202,94083;2,50328
2200,88968;2,50477
2198,83852;2,50671
2196,78737;2,50808
2194,73621;2,50965
2192,68506;2,51201
2190,6339;2,51141
2188,58275;2,50623
2186,53159;2,50352
2184,48044;2,50594
2182,42928;2,50766
2180,37812;2,50798
2178,32697;2,50836
2176,27581;2,50788
2174,22466;2,50884
2172,1735;2,51092
2170,12235;2,51114
2168,07119;2,51075
2166,02004;2,51036
2163,96888;2,51093
2161,91773;2,51515
2159,86657;2,51936
2157,81542;2,52111
2155,76426;2,52364
2153,71311;2,52772
2151,66195;2,53161
2149,61079;2,53303
2147,55964;2,53314
2145,50848;2,53501
2143,45733;2,53634
2141,40617;2,53503
2139,35502;2,53423
2137,30386;2,53455
2135,25271;2,53348
2133,20155;2,5308
2131,1504;2,52926
2129,09924;2,53
2127,04809;2,52933
2124,99693;2,52505
2122,94578;2,52
2120,89462;2,51732
2118,84346;2,51821
2116,79231;2,52236
2114,74115;2,52531
2112,69;2,52234
2110,63884;2,5153
2108,58769;2,51007
2106,53653;2,50925
2104,48538;2,51187
2102,43422;2,51657
2100,38307;2,51903
2098,33191;2,51703
2096,28076;2,51448
2094,2296;2,514
2092,17844;2,51567
2090,12729;2,51735
2088,07613;2,51659
2086,02498;2,51471
2083,97382;2,51561
2081,92267;2,51893
2079,87151;2,5198
2077,82036;2,51787
2075,7692;2,51776
2073,71805;2,52022
2071,66689;2,52214
2069,61574;2,52244
2067,56458;2,52191
2065,51343;2,52159
2063,46227;2,52238
2061,41111;2,52187
2059,35996;2,51889
2057,3088;2,51692
2055,25765;2,51807
2053,20649;2,52082
2051,15534;2,52319
2049,10418;2,52562
2047,05303;2,52781
2045,00187;2,52641
2042,95072;2,52103
2040,89956;2,51836
2038,84841;2,52219
2036,79725;2,5257
2034,7461;2,52282
2032,69494;2,51891
2030,64378;2,51966
2028,59263;2,52218
2026,54147;2,52372
2024,49032;2,52453
2022,43916;2,52474
2020,38801;2,525
2018,33685;2,5267
2016,2857;2,52767
2014,23454;2,52508
2012,18339;2,52144
2010,13223;2,51875
2008,08108;2,51924
2006,02992;2,52483
2003,97877;2,53086
2001,92761;2,53114
1999,87645;2,52663
1997,8253;2,52321
1995,77414;2,52346
1993,72299;2,52694
1991,67183;2,53132
1989,62068;2,53249
1987,56952;2,53138
1985,51837;2,53259
1983,46721;2,53459
1981,41606;2,53393
1979,3649;2,53207
1977,31375;2,5322
1975,26259;2,53243
1973,21144;2,52889
1971,16028;2,52569
1969,10912;2,52972
1967,05797;2,53752
1965,00681;2,54062
1962,95566;2,53955
1960,9045;2,5389
1958,85335;2,5392
1956,80219;2,54006
1954,75104;2,53947
1952,69988;2,53763
1950,64873;2,53875
1948,59757;2,54206
1946,54642;2,54423
1944,49526;2,5465
1942,44411;2,549
1940,39295;2,54865
1938,34179;2,54526
1936,29064;2,54386
1934,23948;2,54502
1932,18833;2,54429
1930,13717;2,54192
1928,08602;2,54203
1926,03486;2,54493
1923,98371;2,5471
1921,93255;2,54813
1919,8814;2,54901
1917,83024;2,55099
1915,77909;2,55429
1913,72793;2,55644
1911,67678;2,55904
1909,62562;2,56035
1907,57446;2,55829
1905,52331;2,55647
1903,47215;2,55492
1901,421;2,55275
1899,36984;2,55377
1897,31869;2,55747
1895,26753;2,5599
1893,21638;2,56227
1891,16522;2,56534
1889,11407;2,56756
1887,06291;2,56873
1885,01176;2,56949
1882,9606;2,57019
1880,90945;2,56858
1878,85829;2,56544
1876,80713;2,56478
1874,75598;2,56568
1872,70482;2,56602
1870,65367;2,56804
1868,60251;2,57314
1866,55136;2,57699
1864,5002;2,57903
1862,44905;2,58379
1860,39789;2,58859
1858,34674;2,58932
1856,29558;2,58843
1854,24443;2,58854
1852,19327;2,59089
1850,14212;2,59721
1848,09096;2,60712
1846,0398;2,61478
1843,98865;2,61593
1841,93749;2,6155
1839,88634;2,6163
1837,83518;2,61736
1835,78403;2,61823
1833,73287;2,6204
1831,68172;2,6243
1829,63056;2,62778
1827,57941;2,62911
1825,52825;2,62969
1823,4771;2,63435
1821,42594;2,64015
1819,37478;2,64136
1817,32363;2,63965
1815,27247;2,64172
1813,22132;2,65172
1811,17016;2,66562
1809,11901;2,67491
1807,06785;2,67844
1805,0167;2,68204
1802,96554;2,68846
1800,91439;2,69697
1798,86323;2,70341
1796,81208;2,70526
1794,76092;2,7086
1792,70977;2,71748
1790,65861;2,72453
1788,60745;2,72278
1786,5563;2,71794
1784,50514;2,71583
1782,45399;2,71423
1780,40283;2,71186
1778,35168;2,71158
1776,30052;2,71364
1774,24937;2,71758
1772,19821;2,72546
1770,14706;2,73596
1768,0959;2,74492
1766,04475;2,75558
1763,99359;2,76766
1761,94244;2,77962
1759,89128;2,78901
1757,84012;2,79187
1755,78897;2,79645
1753,73781;2,80767
1751,68666;2,81784
1749,6355;2,81763
1747,58435;2,80234
1745,53319;2,78165
1743,48204;2,76502
1741,43088;2,74925
1739,37973;2,73344
1737,32857;2,72491
1735,27742;2,72083
1733,22626;2,72075
1731,17511;2,723
1729,12395;2,72247
1727,07279;2,72279
1725,02164;2,72423
1722,97048;2,7239
1720,91933;2,72199
1718,86817;2,72412
1716,81702;2,73701
1714,76586;2,74751
1712,71471;2,74647
1710,66355;2,74593
1708,6124;2,75084
1706,56124;2,75481
1704,51009;2,75885
1702,45893;2,76521
1700,40778;2,77939
1698,35662;2,8029
1696,30546;2,80906
1694,25431;2,79934
1692,20315;2,79116
1690,152;2,78683
1688,10084;2,784
1686,04969;2,77875
1683,99853;2,77589
1681,94738;2,77464
1679,89622;2,76622
1677,84507;2,75667
1675,79391;2,75463
1673,74276;2,75956
1671,6916;2,75667
1669,64045;2,74373
1667,58929;2,73507
1665,53813;2,73148
1663,48698;2,72524
1661,43582;2,71483
1659,38467;2,70364
1657,33351;2,69635
1655,28236;2,68888
1653,2312;2,67733
1651,18005;2,67097
1649,12889;2,66661
1647,07774;2,65972
1645,02658;2,65494
1642,97543;2,64907
1640,92427;2,64217
1638,87312;2,64022
1636,82196;2,64045
1634,7708;2,63555
1632,71965;2,62384
1630,66849;2,6109
1628,61734;2,60369
1626,56618;2,60165
1624,51503;2,59792
1622,46387;2,59166
1620,41272;2,5865
1618,36156;2,5815
1616,31041;2,57826
1614,25925;2,57817
1612,2081;2,57971
1610,15694;2,5828
1608,10579;2,5848
1606,05463;2,5852
1604,00347;2,58537
1601,95232;2,58498
1599,90116;2,58431
1597,85001;2,58485
1595,79885;2,58801
1593,7477;2,59329
1591,69654;2,59771
1589,64539;2,59932
1587,59423;2,60109
1585,54308;2,60693
1583,49192;2,61556
1581,44077;2,62278
1579,38961;2,62654
1577,33846;2,62703
1575,2873;2,62974
1573,23614;2,63351
1571,18499;2,63095
1569,13383;2,62741
1567,08268;2,62718
1565,03152;2,62781
1562,98037;2,63164
1560,92921;2,6359
1558,87806;2,64028
1556,8269;2,6414
1554,77575;2,6321
1552,72459;2,62329
1550,67344;2,62077
1548,62228;2,62075
1546,57113;2,62274
1544,51997;2,62676
1542,46881;2,62957
1540,41766;2,62859
1538,3665;2,6276
1536,31535;2,62309
1534,26419;2,61107
1532,21304;2,60113
1530,16188;2,59851
1528,11073;2,60343
1526,05957;2,61368
1524,00842;2,61943
1521,95726;2,61928
1519,90611;2,62226
1517,85495;2,62474
1515,80379;2,6222
1513,75264;2,61746
1511,70148;2,61649
1509,65033;2,62147
1507,59917;2,62415
1505,54802;2,6247
1503,49686;2,62635
1501,44571;2,62467
1499,39455;2,62039
1497,3434;2,61778
1495,29224;2,62176
1493,24109;2,63079
1491,18993;2,63901
1489,13878;2,64342
1487,08762;2,6396
1485,03646;2,63248
1482,98531;2,63103
1480,93415;2,63805
1478,883;2,65116
1476,83184;2,66531
1474,78069;2,67568
1472,72953;2,67987
1470,67838;2,68059
1468,62722;2,67709
1466,57607;2,66801
1464,52491;2,65727
1462,47376;2,65039
1460,4226;2,64785
1458,37145;2,64613
1456,32029;2,64335
1454,26913;2,63853
1452,21798;2,63346
1450,16682;2,63371
1448,11567;2,63771
1446,06451;2,64037
1444,01336;2,63815
1441,9622;2,63216
1439,91105;2,62674
1437,85989;2,62353
1435,80874;2,62649
1433,75758;2,63246
1431,70643;2,63245
1429,65527;2,62861
1427,60412;2,62582
1425,55296;2,62409
1423,5018;2,62398
1421,45065;2,62438
1419,39949;2,62744
1417,34834;2,63659
1415,29718;2,64039
1413,24603;2,63638
1411,19487;2,63354
1409,14372;2,6355
1407,09256;2,63894
1405,04141;2,6404
1402,99025;2,64088
1400,9391;2,6417
1398,88794;2,64406
1396,83679;2,64637
1394,78563;2,64437
1392,73447;2,64221
1390,68332;2,644
1388,63216;2,64645
1386,58101;2,64748
1384,52985;2,6453
1382,4787;2,63792
1380,42754;2,63063
1378,37639;2,62923
1376,32523;2,6325
1374,27408;2,63762
1372,22292;2,64337
1370,17177;2,64401
1368,12061;2,6399
1366,06946;2,6393
1364,0183;2,64227
1361,96714;2,64172
1359,91599;2,63739
1357,86483;2,6365
1355,81368;2,64004
1353,76252;2,64208
1351,71137;2,6401
1349,66021;2,63612
1347,60906;2,63158
1345,5579;2,62869
1343,50675;2,63236
1341,45559;2,64344
1339,40444;2,65499
1337,35328;2,65635
1335,30213;2,64602
1333,25097;2,63613
1331,19981;2,6342
1329,14866;2,63479
1327,0975;2,63275
1325,04635;2,62829
1322,99519;2,62092
1320,94404;2,61165
1318,89288;2,6047
1316,84173;2,60301
1314,79057;2,60623
1312,73942;2,61197
1310,68826;2,61828
1308,63711;2,62435
1306,58595;2,62699
1304,5348;2,62676
1302,48364;2,62888
1300,43248;2,6307
1298,38133;2,62957
1296,33017;2,62976
1294,27902;2,63291
1292,22786;2,63936
1290,17671;2,64597
1288,12555;2,64667
1286,0744;2,64269
1284,02324;2,63854
1281,97209;2,63681
1279,92093;2,63797
1277,86978;2,64049
1275,81862;2,64357
1273,76747;2,64755
1271,71631;2,65226
1269,66515;2,65499
1267,614;2,65631
1265,56284;2,65928
1263,51169;2,65856
1261,46053;2,65174
1259,40938;2,64626
1257,35822;2,64606
1255,30707;2,65091
1253,25591;2,65508
1251,20476;2,652
1249,1536;2,64762
1247,10245;2,64693
1245,05129;2,64632
1243,00013;2,64636
1240,94898;2,6462
1238,89782;2,64261
1236,84667;2,63887
1234,79551;2,63509
1232,74436;2,62806
1230,6932;2,6208
1228,64205;2,61606
1226,59089;2,61366
1224,53974;2,61621
1222,48858;2,62233
1220,43743;2,62424
1218,38627;2,62251
1216,33512;2,62248
1214,28396;2,62332
1212,2328;2,62354
1210,18165;2,62408
1208,13049;2,62514
1206,07934;2,62526
1204,02818;2,62692
1201,97703;2,63351
1199,92587;2,63968
1197,87472;2,64148
1195,82356;2,6432
1193,77241;2,64562
1191,72125;2,6463
1189,6701;2,64492
1187,61894;2,64584
1185,56779;2,64929
1183,51663;2,65184
1181,46547;2,65431
1179,41432;2,65511
1177,36316;2,65348
1175,31201;2,65206
1173,26085;2,64755
1171,2097;2,64203
1169,15854;2,64411
1167,10739;2,64902
1165,05623;2,6441
1163,00508;2,6327
1160,95392;2,62953
1158,90277;2,63542
1156,85161;2,63805
1154,80046;2,63335
1152,7493;2,62672
1150,69814;2,62322
1148,64699;2,62515
1146,59583;2,62775
1144,54468;2,62594
1142,49352;2,62192
1140,44237;2,61597
1138,39121;2,60887
1136,34006;2,60686
1134,2889;2,6085
1132,23775;2,60809
1130,18659;2,6102
1128,13544;2,61487
1126,08428;2,61553
1124,03313;2,61561
1121,98197;2,61798
1119,93081;2,61502
1117,87966;2,60599
1115,8285;2,59836
1113,77735;2,59227
1111,72619;2,58654
1109,67504;2,58056
1107,62388;2,5778
1105,57273;2,58135
1103,52157;2,58189
1101,47042;2,57643
1099,41926;2,57116
1097,36811;2,56478
1095,31695;2,55265
1093,2658;2,54103
1091,21464;2,53657
1089,16348;2,53434
1087,11233;2,53116
1085,06117;2,52551
1083,01002;2,51455
1080,95886;2,50583
1078,90771;2,50872
1076,85655;2,51612
1074,8054;2,51672
1072,75424;2,51151
1070,70309;2,5058
1068,65193;2,50032
1066,60078;2,49368
1064,54962;2,48678
1062,49847;2,48316
1060,44731;2,48442
1058,39615;2,48786
1056,345;2,48838
1054,29384;2,48249
1052,24269;2,47433
1050,19153;2,46808
1048,14038;2,46251
1046,08922;2,45974
1044,03807;2,45958
1041,98691;2,45635
1039,93576;2,45289
1037,8846;2,45477
1035,83345;2,45801
1033,78229;2,45807
1031,73114;2,45517
1029,67998;2,45249
1027,62882;2,45411
1025,57767;2,4587
1023,52651;2,46036
1021,47536;2,45942
1019,4242;2,46111
1017,37305;2,46539
1015,32189;2,46774
1013,27074;2,46562
1011,21958;2,45986
1009,16843;2,45232
1007,11727;2,44923
1005,06612;2,45428
1003,01496;2,46006
1000,96381;2,46118
998,91265;2,4613
996,86149;2,46053
994,81034;2,45806
992,75918;2,45757
990,70803;2,45828
988,65687;2,46023
986,60572;2,46429
984,55456;2,46755
982,50341;2,47139
980,45225;2,47386
978,4011;2,47267
976,34994;2,4721
974,29879;2,47091
972,24763;2,46692
970,19647;2,4623
968,14532;2,46132
966,09416;2,46746
964,04301;2,47389
961,99185;2,47392
959,9407;2,47364
957,88954;2,47923
955,83839;2,48455
953,78723;2,48384
951,73608;2,48291
949,68492;2,48189
947,63377;2,47852
945,58261;2,47964
943,53146;2,48617
941,4803;2,49013
939,42914;2,49078
937,37799;2,4933
935,32683;2,49663
933,27568;2,49548
931,22452;2,48963
929,17337;2,48616
927,12221;2,4895
925,07106;2,49667
923,0199;2,50091
920,96875;2,49949
918,91759;2,49587
916,86644;2,49182
914,81528;2,49057
912,76413;2,49509
910,71297;2,50095
908,66181;2,50447
906,61066;2,50496
904,5595;2,5037
902,50835;2,50464
900,45719;2,50394
898,40604;2,49961
896,35488;2,49833
894,30373;2,50091
892,25257;2,50309
890,20142;2,50463
888,15026;2,50724
886,09911;2,50849
884,04795;2,51162
881,9968;2,52076
879,94564;2,53195
877,89448;2,53784
875,84333;2,53388
873,79217;2,52712
871,74102;2,52345
869,68986;2,52091
867,63871;2,51743
865,58755;2,51729
863,5364;2,5226
861,48524;2,52573
859,43409;2,52644
857,38293;2,53132
855,33178;2,53414
853,28062;2,52864
851,22947;2,52298
849,17831;2,52196
847,12715;2,52484
845,076;2,53018
843,02484;2,53384
840,97369;2,53243
838,92253;2,52585
836,87138;2,51934
834,82022;2,51612
832,76907;2,51763
830,71791;2,52048
828,66676;2,52144
826,6156;2,52618
824,56445;2,52924
822,51329;2,52605
820,46214;2,5281
818,41098;2,53321
816,35982;2,53718
814,30867;2,54508
812,25751;2,55351
810,20636;2,55575
808,1552;2,54881
806,10405;2,53815
804,05289;2,53183
802,00174;2,53468
799,95058;2,53886
797,89943;2,53527
795,84827;2,52658
793,79712;2,51627
791,74596;2,51292
789,69481;2,52041
787,64365;2,52724
785,59249;2,52722
783,54134;2,52588
781,49018;2,52878
779,43903;2,53397
777,38787;2,53334
775,33672;2,52675
773,28556;2,52391
771,23441;2,53069
769,18325;2,53893
767,1321;2,53567
765,08094;2,52453
763,02979;2,51806
760,97863;2,52143
758,92748;2,52829
756,87632;2,52907
754,82516;2,52996
752,77401;2,53103
750,72285;2,52203
748,6717;2,51279
746,62054;2,51421
744,56939;2,51916
742,51823;2,52241
740,46708;2,52412
738,41592;2,52255
736,36477;2,52026
734,31361;2,52481
732,26246;2,53726
730,2113;2,54726
728,16015;2,54847
726,10899;2,544
724,05783;2,53413
722,00668;2,52551
719,95552;2,52268
717,90437;2,51275
715,85321;2,49445
713,80206;2,49096
711,7509;2,50632
709,69975;2,51625
707,64859;2,51108
705,59744;2,5051
703,54628;2,505
701,49513;2,50505
699,44397;2,49894
697,39281;2,48921
695,34166;2,48881
693,2905;2,49937
691,23935;2,50236
689,18819;2,48953
687,13704;2,47915
685,08588;2,48363
683,03473;2,49181
680,98357;2,49073
678,93242;2,48215
676,88126;2,47468
674,83011;2,47185
672,77895;2,46881
670,7278;2,46046
668,67664;2,45383
666,62548;2,45813
664,57433;2,46326
662,52317;2,46062
660,47202;2,45542
658,42086;2,45173
656,36971;2,44969
654,31855;2,45193
652,2674;2,45811
650,21624;2,46334
648,16509;2,46327
646,11393;2,45884
644,06278;2,45259
642,01162;2,44551
639,96047;2,44113
637,90931;2,43845
635,85815;2,42974
633,807;2,41825
631,75584;2,41644
629,70469;2,42439
627,65353;2,43039
625,60238;2,42624
623,55122;2,41942
621,50007;2,41907
619,44891;2,41984
617,39776;2,4159
615,3466;2,40752
613,29545;2,40081
611,24429;2,40764
609,19314;2,42118
607,14198;2,42527
605,09082;2,4172
603,03967;2,39653
600,98851;2,37503
598,93736;2,37266
596,8862;2,3827
594,83505;2,39822
592,78389;2,4191
590,73274;2,4171
588,68158;2,38716
586,63043;2,36965
584,57927;2,37826
582,52812;2,38909
580,47696;2,38735
578,42581;2,37821
576,37465;2,37056
574,32349;2,37275
572,27234;2,37999
570,22118;2,38358
568,17003;2,38001
566,11887;2,36824
564,06772;2,36132
562,01656;2,37285
559,96541;2,39101
557,91425;2,39026
555,8631;2,3681
553,81194;2,34299
551,76079;2,33273
549,70963;2,33974
547,65848;2,35241
545,60732;2,36156
543,55616;2,36259
541,50501;2,35411
539,45385;2,34034
537,4027;2,32888
535,35154;2,31839
533,30039;2,30224
531,24923;2,28686
529,19808;2,28396
527,14692;2,28932
525,09577;2,29263
523,04461;2,29195
520,99346;2,2908
518,9423;2,28925
516,89115;2,28632
514,83999;2,28776
512,78883;2,29324
510,73768;2,29589
508,68652;2,29163
506,63537;2,28242
504,58421;2,28263
502,53306;2,29255
500,4819;2,29183
498,43075;2,28137
496,37959;2,2785
494,32844;2,28521
492,27728;2,29023
490,22613;2,28421
488,17497;2,27135
486,12382;2,26038
484,07266;2,25597
482,0215;2,25682
479,97035;2,25512
477,91919;2,25451
475,86804;2,26247
473,81688;2,26243
471,76573;2,23833
469,71457;2,2059
467,66342;2,19293
465,61226;2,21016
463,56111;2,23543
461,50995;2,2506
459,4588;2,26061
457,40764;2,26805
455,35649;2,26569
453,30533;2,24277
451,25417;2,20805
449,20302;2,19368
447,15186;2,21995
445,10071;2,26744
443,04955;2,29224
440,9984;2,27275
438,94724;2,24
436,89609;2,22385
434,84493;2,21476
432,79378;2,20446
430,74262;2,21036
428,69147;2,23213
426,64031;2,24306
424,58916;2,22864
422,538;2,1964
420,48684;2,15977
418,43569;2,13712
416,38453;2,13858
414,33338;2,16381
412,28222;2,20107
410,23107;2,21541
408,17991;2,20228
406,12876;2,1999
404,0776;2,2064
402,02645;2,19912
399,97529;2,1795
