3997,70175;1,82825
3995,6506;1,82902
3993,59944;1,8303
3991,54829;1,8321
3989,49713;1,83459
3987,44598;1,8369
3985,39482;1,83814
3983,34367;1,83945
3981,29251;1,84071
3979,24136;1,84103
3977,1902;1,84155
3975,13905;1,84248
3973,08789;1,84313
3971,03673;1,84446
3968,98558;1,84637
3966,93442;1,84754
3964,88327;1,84831
3962,83211;1,84987
3960,78096;1,8526
3958,7298;1,85568
3956,67865;1,85859
3954,62749;1,86158
3952,57634;1,86444
3950,52518;1,86634
3948,47403;1,86753
3946,42287;1,86981
3944,37172;1,87194
3942,32056;1,87184
3940,2694;1,86993
3938,21825;1,86729
3936,16709;1,86586
3934,11594;1,86557
3932,06478;1,86455
3930,01363;1,86182
3927,96247;1,85817
3925,91132;1,85417
3923,86016;1,85016
3921,80901;1,84602
3919,75785;1,84154
3917,7067;1,83763
3915,65554;1,83476
3913,60439;1,83206
3911,55323;1,82962
3909,50207;1,82965
3907,45092;1,8317
3905,39976;1,83245
3903,34861;1,83066
3901,29745;1,8268
3899,2463;1,82283
3897,19514;1,82261
3895,14399;1,82456
3893,09283;1,82456
3891,04168;1,82396
3888,99052;1,82564
3886,93937;1,82564
3884,88821;1,8265
3882,83706;1,82845
3880,7859;1,8267
3878,73474;1,82708
3876,68359;1,82979
3874,63243;1,83112
3872,58128;1,83129
3870,53012;1,82831
3868,47897;1,82675
3866,42781;1,82545
3864,37666;1,82255
3862,3255;1,82118
3860,27435;1,82082
3858,22319;1,82094
3856,17204;1,8178
3854,12088;1,81043
3852,06973;1,80795
3850,01857;1,80948
3847,96741;1,80925
3845,91626;1,80835
3843,8651;1,8089
3841,81395;1,81097
3839,76279;1,81093
3837,71164;1,80939
3835,66048;1,80954
3833,60933;1,80873
3831,55817;1,8069
3829,50702;1,80666
3827,45586;1,80657
3825,40471;1,80771
3823,35355;1,80793
3821,3024;1,80675
3819,25124;1,80945
3817,20008;1,80904
3815,14893;1,80698
3813,09777;1,80853
3811,04662;1,81013
3808,99546;1,80983
3806,94431;1,80974
3804,89315;1,81403
3802,842;1,81595
3800,79084;1,81641
3798,73969;1,81845
3796,68853;1,81747
3794,63738;1,81759
3792,58622;1,81977
3790,53506;1,82157
3788,48391;1,82261
3786,43275;1,82263
3784,3816;1,8234
3782,33044;1,82635
3780,27929;1,82878
3778,22813;1,83088
3776,17698;1,83237
3774,12582;1,83243
3772,07467;1,83259
3770,02351;1,83478
3767,97236;1,83903
3765,9212;1,84145
3763,87005;1,84405
3761,81889;1,8467
3759,76773;1,84794
3757,71658;1,8501
3755,66542;1,85325
3753,61427;1,85514
3751,56311;1,85754
3749,51196;1,86486
3747,4608;1,87262
3745,40965;1,87283
3743,35849;1,87574
3741,30734;1,88492
3739,25618;1,89212
3737,20503;1,89828
3735,15387;1,9058
3733,10272;1,91295
3731,05156;1,91882
3729,0004;1,92358
3726,94925;1,9276
3724,89809;1,93459
3722,84694;1,94203
3720,79578;1,94782
3718,74463;1,95414
3716,69347;1,96287
3714,64232;1,97288
3712,59116;1,98237
3710,54001;1,99244
3708,48885;2,00422
3706,4377;2,01902
3704,38654;2,03875
3702,33539;2,06696
3700,28423;2,10372
3698,23307;2,139
3696,18192;2,1682
3694,13076;2,19231
3692,07961;2,20377
3690,02845;2,19647
3687,9773;2,18045
3685,92614;2,17129
3683,87499;2,17199
3681,82383;2,18158
3679,77268;2,19633
3677,72152;2,21218
3675,67037;2,23207
3673,61921;2,25868
3671,56806;2,27976
3669,5169;2,29794
3667,46574;2,32116
3665,41459;2,34517
3663,36343;2,37039
3661,31228;2,39838
3659,26112;2,42732
3657,20997;2,45836
3655,15881;2,49846
3653,10766;2,54592
3651,0565;2,59994
3649,00535;2,66486
3646,95419;2,72614
3644,90304;2,76654
3642,85188;2,77951
3640,80073;2,76716
3638,74957;2,73874
3636,69841;2,70947
3634,64726;2,6932
3632,5961;2,69005
3630,54495;2,68509
3628,49379;2,68207
3626,44264;2,69866
3624,39148;2,72123
3622,34033;2,73805
3620,28917;2,75521
3618,23802;2,77141
3616,18686;2,77368
3614,13571;2,7714
3612,08455;2,78297
3610,0334;2,80268
3607,98224;2,81867
3605,93108;2,82795
3603,87993;2,83076
3601,82877;2,83137
3599,77762;2,83185
3597,72646;2,83354
3595,67531;2,84033
3593,62415;2,85053
3591,573;2,85573
3589,52184;2,85448
3587,47069;2,85763
3585,41953;2,8676
3583,36838;2,87029
3581,31722;2,86278
3579,26607;2,85687
3577,21491;2,85934
3575,16375;2,86694
3573,1126;2,87637
3571,06144;2,88659
3569,01029;2,89234
3566,95913;2,88923
3564,90798;2,89077
3562,85682;2,90433
3560,80567;2,91019
3558,75451;2,89636
3556,70336;2,88137
3554,6522;2,88217
3552,60105;2,89147
3550,54989;2,89616
3548,49874;2,89397
3546,44758;2,88868
3544,39642;2,88446
3542,34527;2,88655
3540,29411;2,89489
3538,24296;2,90106
3536,1918;2,90396
3534,14065;2,907
3532,08949;2,90509
3530,03834;2,90187
3527,98718;2,90845
3525,93603;2,91985
3523,88487;2,92043
3521,83372;2,90782
3519,78256;2,89405
3517,73141;2,88785
3515,68025;2,89463
3513,62909;2,90895
3511,57794;2,91014
3509,52678;2,8952
3507,47563;2,88441
3505,42447;2,88751
3503,37332;2,89286
3501,32216;2,89093
3499,27101;2,88761
3497,21985;2,89146
3495,1687;2,89569
3493,11754;2,88967
3491,06639;2,88572
3489,01523;2,8865
3486,96407;2,88553
3484,91292;2,88811
3482,86176;2,88703
3480,81061;2,87573
3478,75945;2,86664
3476,7083;2,86666
3474,65714;2,8646
3472,60599;2,85781
3470,55483;2,86128
3468,50368;2,87261
3466,45252;2,86705
3464,40137;2,84495
3462,35021;2,83747
3460,29906;2,85013
3458,2479;2,86084
3456,19674;2,86303
3454,14559;2,8683
3452,09443;2,87744
3450,04328;2,87697
3447,99212;2,86256
3445,94097;2,84542
3443,88981;2,83699
3441,83866;2,83824
3439,7875;2,8394
3437,73635;2,82967
3435,68519;2,81786
3433,63404;2,82076
3431,58288;2,83174
3429,53173;2,83327
3427,48057;2,81973
3425,42941;2,80633
3423,37826;2,81059
3421,3271;2,8245
3419,27595;2,83266
3417,22479;2,83034
3415,17364;2,82194
3413,12248;2,81449
3411,07133;2,81577
3409,02017;2,82734
3406,96902;2,82784
3404,91786;2,8113
3402,86671;2,80194
3400,81555;2,80353
3398,7644;2,80476
3396,71324;2,80285
3394,66208;2,79835
3392,61093;2,79406
3390,55977;2,79787
3388,50862;2,8102
3386,45746;2,81546
3384,40631;2,80301
3382,35515;2,78259
3380,304;2,76643
3378,25284;2,75735
3376,20169;2,75889
3374,15053;2,7714
3372,09938;2,78133
3370,04822;2,78009
3367,99707;2,77425
3365,94591;2,77191
3363,89475;2,77296
3361,8436;2,77098
3359,79244;2,76944
3357,74129;2,77378
3355,69013;2,77375
3353,63898;2,7654
3351,58782;2,76317
3349,53667;2,77105
3347,48551;2,7752
3345,43436;2,76954
3343,3832;2,7596
3341,33205;2,74703
3339,28089;2,73537
3337,22974;2,7324
3335,17858;2,73498
3333,12742;2,73405
3331,07627;2,73353
3329,02511;2,73976
3326,97396;2,7446
3324,9228;2,74253
3322,87165;2,73825
3320,82049;2,73597
3318,76934;2,73745
3316,71818;2,74168
3314,66703;2,74829
3312,61587;2,75278
3310,56472;2,74835
3308,51356;2,74145
3306,46241;2,74026
3304,41125;2,73972
3302,36009;2,73868
3300,30894;2,741
3298,25778;2,74241
3296,20663;2,73691
3294,15547;2,72725
3292,10432;2,72268
3290,05316;2,72733
3288,00201;2,73487
3285,95085;2,74025
3283,8997;2,74051
3281,84854;2,73085
3279,79739;2,71549
3277,74623;2,70567
3275,69508;2,70681
3273,64392;2,71287
3271,59276;2,72011
3269,54161;2,7301
3267,49045;2,73308
3265,4393;2,7238
3263,38814;2,71429
3261,33699;2,71167
3259,28583;2,71372
3257,23468;2,71833
3255,18352;2,72309
3253,13237;2,72627
3251,08121;2,72824
3249,03006;2,72606
3246,9789;2,72138
3244,92775;2,71867
3242,87659;2,71577
3240,82543;2,71208
3238,77428;2,71148
3236,72312;2,7123
3234,67197;2,71104
3232,62081;2,71427
3230,56966;2,72271
3228,5185;2,72572
3226,46735;2,72046
3224,41619;2,71168
3222,36504;2,70577
3220,31388;2,70755
3218,26273;2,71037
3216,21157;2,70931
3214,16041;2,70698
3212,10926;2,6998
3210,0581;2,6938
3208,00695;2,69819
3205,95579;2,70506
3203,90464;2,7082
3201,85348;2,70821
3199,80233;2,70415
3197,75117;2,70039
3195,70002;2,70133
3193,64886;2,70262
3191,59771;2,69833
3189,54655;2,69413
3187,4954;2,69621
3185,44424;2,6962
3183,39308;2,68655
3181,34193;2,6759
3179,29077;2,67727
3177,23962;2,69032
3175,18846;2,70114
3173,13731;2,70007
3171,08615;2,69458
3169,035;2,69306
3166,98384;2,68832
3164,93269;2,68312
3162,88153;2,6888
3160,83038;2,69824
3158,77922;2,70072
3156,72807;2,6972
3154,67691;2,68921
3152,62575;2,67775
3150,5746;2,6715
3148,52344;2,67858
3146,47229;2,68855
3144,42113;2,68834
3142,36998;2,68561
3140,31882;2,68898
3138,26767;2,69453
3136,21651;2,6988
3134,16536;2,70018
3132,1142;2,69325
3130,06305;2,67873
3128,01189;2,67039
3125,96074;2,67551
3123,90958;2,68149
3121,85842;2,67702
3119,80727;2,66769
3117,75611;2,66306
3115,70496;2,66556
3113,6538;2,67232
3111,60265;2,67935
3109,55149;2,68321
3107,50034;2,68364
3105,44918;2,681
3103,39803;2,67647
3101,34687;2,67181
3099,29572;2,667
3097,24456;2,66609
3095,19341;2,67173
3093,14225;2,67556
3091,09109;2,67342
3089,03994;2,67116
3086,98878;2,67019
3084,93763;2,67106
3082,88647;2,67531
3080,83532;2,6791
3078,78416;2,6766
3076,73301;2,66731
3074,68185;2,65703
3072,6307;2,6512
3070,57954;2,65181
3068,52839;2,65765
3066,47723;2,66359
3064,42608;2,66488
3062,37492;2,6634
3060,32376;2,66673
3058,27261;2,67409
3056,22145;2,67594
3054,1703;2,67008
3052,11914;2,66255
3050,06799;2,6619
3048,01683;2,66775
3045,96568;2,66957
3043,91452;2,66585
3041,86337;2,66256
3039,81221;2,66073
3037,76106;2,66076
3035,7099;2,66151
3033,65875;2,66209
3031,60759;2,66624
3029,55643;2,67292
3027,50528;2,67231
3025,45412;2,66076
3023,40297;2,65013
3021,35181;2,64638
3019,30066;2,64628
3017,2495;2,65147
3015,19835;2,65914
3013,14719;2,66092
3011,09604;2,65607
3009,04488;2,65385
3006,99373;2,65846
3004,94257;2,66281
3002,89142;2,66136
3000,84026;2,65667
2998,7891;2,65659
2996,73795;2,66279
2994,68679;2,66713
2992,63564;2,66738
2990,58448;2,66631
2988,53333;2,66701
2986,48217;2,67059
2984,43102;2,67376
2982,37986;2,67909
2980,32871;2,68698
2978,27755;2,68588
2976,2264;2,67329
2974,17524;2,66387
2972,12409;2,66793
2970,07293;2,67822
2968,02177;2,68466
2965,97062;2,68617
2963,91946;2,68284
2961,86831;2,67949
2959,81715;2,68208
2957,766;2,68533
2955,71484;2,68339
2953,66369;2,67901
2951,61253;2,67664
2949,56138;2,67972
2947,51022;2,68828
2945,45907;2,69297
2943,40791;2,68818
2941,35675;2,68316
2939,3056;2,68349
2937,25444;2,68291
2935,20329;2,67787
2933,15213;2,67484
2931,10098;2,67745
2929,04982;2,68104
2926,99867;2,68285
2924,94751;2,68144
2922,89636;2,67434
2920,8452;2,66461
2918,79405;2,66134
2916,74289;2,66772
2914,69174;2,67507
2912,64058;2,67545
2910,58942;2,67423
2908,53827;2,67804
2906,48711;2,67797
2904,43596;2,67186
2902,3848;2,66818
2900,33365;2,66505
2898,28249;2,65973
2896,23134;2,65389
2894,18018;2,65215
2892,12903;2,65601
2890,07787;2,65775
2888,02672;2,657
2885,97556;2,66048
2883,92441;2,66522
2881,87325;2,66631
2879,82209;2,66785
2877,77094;2,6683
2875,71978;2,66246
2873,66863;2,65576
2871,61747;2,65606
2869,56632;2,6617
2867,51516;2,66373
2865,46401;2,66025
2863,41285;2,65387
2861,3617;2,64392
2859,31054;2,63304
2857,25939;2,62644
2855,20823;2,62422
2853,15708;2,62522
2851,10592;2,62952
2849,05476;2,63223
2847,00361;2,62643
2844,95245;2,61706
2842,9013;2,61593
2840,85014;2,61719
2838,79899;2,6096
2836,74783;2,59817
2834,69668;2,59044
2832,64552;2,58511
2830,59437;2,57989
2828,54321;2,57442
2826,49206;2,56825
2824,4409;2,56416
2822,38975;2,56147
2820,33859;2,55815
2818,28743;2,55697
2816,23628;2,55528
2814,18512;2,54818
2812,13397;2,54134
2810,08281;2,53903
2808,03166;2,53855
2805,9805;2,5406
2803,92935;2,54474
2801,87819;2,54969
2799,82704;2,55237
2797,77588;2,54889
2795,72473;2,54398
2793,67357;2,54141
2791,62242;2,53756
2789,57126;2,53136
2787,5201;2,52646
2785,46895;2,52157
2783,41779;2,51558
2781,36664;2,51286
2779,31548;2,5128
2777,26433;2,51181
2775,21317;2,51257
2773,16202;2,51369
2771,11086;2,51143
2769,05971;2,51061
2767,00855;2,51062
2764,9574;2,50775
2762,90624;2,50734
2760,85509;2,51055
2758,80393;2,51186
2756,75277;2,50767
2754,70162;2,49961
2752,65046;2,49344
2750,59931;2,48999
2748,54815;2,48845
2746,497;2,48868
2744,44584;2,48829
2742,39469;2,48847
2740,34353;2,48869
2738,29238;2,48687
2736,24122;2,48506
2734,19007;2,48539
2732,13891;2,48448
2730,08776;2,48078
2728,0366;2,47996
2725,98544;2,4799
2723,93429;2,47593
2721,88313;2,47306
2719,83198;2,47481
2717,78082;2,47671
2715,72967;2,47451
2713,67851;2,4699
2711,62736;2,46626
2709,5762;2,46601
2707,52505;2,46787
2705,47389;2,46797
2703,42274;2,4664
2701,37158;2,46593
2699,32043;2,46594
2697,26927;2,46349
2695,21811;2,45887
2693,16696;2,45587
2691,1158;2,45629
2689,06465;2,45715
2687,01349;2,45683
2684,96234;2,45696
2682,91118;2,45649
2680,86003;2,45439
2678,80887;2,45173
2676,75772;2,44905
2674,70656;2,44774
2672,65541;2,44707
2670,60425;2,44524
2668,55309;2,44306
2666,50194;2,44171
2664,45078;2,44291
2662,39963;2,44403
2660,34847;2,44144
2658,29732;2,43884
2656,24616;2,43839
2654,19501;2,43748
2652,14385;2,43514
2650,0927;2,4312
2648,04154;2,42634
2645,99039;2,42403
2643,93923;2,42692
2641,88808;2,4311
2639,83692;2,43143
2637,78576;2,43044
2635,73461;2,43268
2633,68345;2,43835
2631,6323;2,44422
2629,58114;2,44793
2627,52999;2,45012
2625,47883;2,45158
2623,42768;2,45378
2621,37652;2,45886
2619,32537;2,46516
2617,27421;2,46828
2615,22306;2,47007
2613,1719;2,474
2611,12075;2,47863
2609,06959;2,48391
2607,01843;2,48825
2604,96728;2,48847
2602,91612;2,48661
2600,86497;2,48847
2598,81381;2,49509
2596,76266;2,49977
2594,7115;2,50016
2592,66035;2,49951
2590,60919;2,49806
2588,55804;2,49721
2586,50688;2,49941
2584,45573;2,50145
2582,40457;2,49957
2580,35342;2,49764
2578,30226;2,49827
2576,2511;2,49935
2574,19995;2,50134
2572,14879;2,50327
2570,09764;2,50426
2568,04648;2,50532
2565,99533;2,50453
2563,94417;2,50308
2561,89302;2,50341
2559,84186;2,50201
2557,79071;2,50012
2555,73955;2,50168
2553,6884;2,50428
2551,63724;2,50793
2549,58609;2,51327
2547,53493;2,51726
2545,48377;2,51911
2543,43262;2,5213
2541,38146;2,52777
2539,33031;2,53561
2537,27915;2,53898
2535,228;2,54243
2533,17684;2,55226
2531,12569;2,56648
2529,07453;2,57876
2527,02338;2,58852
2524,97222;2,59817
2522,92107;2,60335
2520,86991;2,60231
2518,81876;2,60075
2516,7676;2,60211
2514,71644;2,60645
2512,66529;2,61087
2510,61413;2,61175
2508,56298;2,61058
2506,51182;2,60734
2504,46067;2,5995
2502,40951;2,5885
2500,35836;2,57544
2498,3072;2,56066
2496,25605;2,54845
2494,20489;2,5403
2492,15374;2,53091
2490,10258;2,51816
2488,05143;2,50512
2486,00027;2,49533
2483,94911;2,48977
2481,89796;2,4813
2479,8468;2,46588
2477,79565;2,45163
2475,74449;2,44252
2473,69334;2,43377
2471,64218;2,42459
2469,59103;2,4174
2467,53987;2,41022
2465,48872;2,40268
2463,43756;2,39691
2461,38641;2,39087
2459,33525;2,38378
2457,2841;2,37758
2455,23294;2,37328
2453,18178;2,36992
2451,13063;2,36532
2449,07947;2,36131
2447,02832;2,35823
2444,97716;2,35482
2442,92601;2,35232
2440,87485;2,35092
2438,8237;2,35075
2436,77254;2,3508
2434,72139;2,34874
2432,67023;2,34552
2430,61908;2,34288
2428,56792;2,34065
2426,51677;2,33754
2424,46561;2,33267
2422,41445;2,32812
2420,3633;2,32637
2418,31214;2,32554
2416,26099;2,3231
2414,20983;2,32167
2412,15868;2,3224
2410,10752;2,32136
2408,05637;2,31802
2406,00521;2,31548
2403,95406;2,31516
2401,9029;2,31646
2399,85175;2,31678
2397,80059;2,31505
2395,74944;2,31257
2393,69828;2,31074
2391,64712;2,30964
2389,59597;2,30901
2387,54481;2,30894
2385,49366;2,30964
2383,4425;2,31069
2381,39135;2,31116
2379,34019;2,31127
2377,28904;2,31164
2375,23788;2,31163
2373,18673;2,31146
2371,13557;2,31423
2369,08442;2,32082
2367,03326;2,32516
2364,9821;2,32215
2362,93095;2,31457
2360,87979;2,30827
2358,82864;2,30907
2356,77748;2,3149
2354,72633;2,31845
2352,67517;2,31943
2350,62402;2,3198
2348,57286;2,31889
2346,52171;2,31763
2344,47055;2,31779
2342,4194;2,31695
2340,36824;2,31314
2338,31709;2,31072
2336,26593;2,31233
2334,21477;2,3149
2332,16362;2,31545
2330,11246;2,3139
2328,06131;2,31126
2326,01015;2,30901
2323,959;2,30931
2321,90784;2,3124
2319,85669;2,31636
2317,80553;2,31879
2315,75438;2,31817
2313,70322;2,31648
2311,65207;2,31597
2309,60091;2,31646
2307,54976;2,31766
2305,4986;2,31868
2303,44744;2,31799
2301,39629;2,31616
2299,34513;2,31608
2297,29398;2,31891
2295,24282;2,32103
2293,19167;2,31895
2291,14051;2,31439
2289,08936;2,3111
2287,0382;2,31175
2284,98705;2,31662
2282,93589;2,32133
2280,88474;2,32156
2278,83358;2,31923
2276,78243;2,31816
2274,73127;2,3192
2272,68011;2,32132
2270,62896;2,32335
2268,5778;2,32502
2266,52665;2,32534
2264,47549;2,32433
2262,42434;2,32454
2260,37318;2,32565
2258,32203;2,32557
2256,27087;2,32522
2254,21972;2,32645
2252,16856;2,32996
2250,11741;2,33415
2248,06625;2,3367
2246,0151;2,33741
2243,96394;2,33761
2241,91278;2,33956
2239,86163;2,34297
2237,81047;2,34469
2235,75932;2,3449
2233,70816;2,3453
2231,65701;2,34661
2229,60585;2,34916
2227,5547;2,35237
2225,50354;2,35522
2223,45239;2,35704
2221,40123;2,35717
2219,35008;2,35801
2217,29892;2,36137
2215,24777;2,36328
2213,19661;2,36349
2211,14545;2,36404
2209,0943;2,36321
2207,04314;2,36213
2204,99199;2,36244
2202,94083;2,36345
2200,88968;2,36569
2198,83852;2,3683
2196,78737;2,36885
2194,73621;2,36907
2192,68506;2,37017
2190,6339;2,36985
2188,58275;2,36914
2186,53159;2,37031
2184,48044;2,37295
2182,42928;2,37554
2180,37812;2,37665
2178,32697;2,37831
2176,27581;2,3822
2174,22466;2,38634
2172,1735;2,38952
2170,12235;2,39096
2168,07119;2,39129
2166,02004;2,39212
2163,96888;2,39388
2161,91773;2,39667
2159,86657;2,39901
2157,81542;2,40115
2155,76426;2,4049
2153,71311;2,40892
2151,66195;2,41232
2149,61079;2,41705
2147,55964;2,42232
2145,50848;2,42454
2143,45733;2,42401
2141,40617;2,42467
2139,35502;2,42714
2137,30386;2,42905
2135,25271;2,43
2133,20155;2,42979
2131,1504;2,42813
2129,09924;2,42605
2127,04809;2,4243
2124,99693;2,42141
2122,94578;2,41698
2120,89462;2,41444
2118,84346;2,41308
2116,79231;2,40987
2114,74115;2,4077
2112,69;2,40796
2110,63884;2,40715
2108,58769;2,40485
2106,53653;2,40339
2104,48538;2,4027
2102,43422;2,40208
2100,38307;2,40159
2098,33191;2,40208
2096,28076;2,40428
2094,2296;2,40567
2092,17844;2,40416
2090,12729;2,40218
2088,07613;2,40175
2086,02498;2,40161
2083,97382;2,40209
2081,92267;2,4043
2079,87151;2,40664
2077,82036;2,40696
2075,7692;2,40501
2073,71805;2,40478
2071,66689;2,4088
2069,61574;2,41256
2067,56458;2,41329
2065,51343;2,41265
2063,46227;2,41219
2061,41111;2,41463
2059,35996;2,41904
2057,3088;2,41981
2055,25765;2,41754
2053,20649;2,41682
2051,15534;2,41841
2049,10418;2,42049
2047,05303;2,42273
2045,00187;2,42619
2042,95072;2,42911
2040,89956;2,42877
2038,84841;2,42678
2036,79725;2,42594
2034,7461;2,42593
2032,69494;2,42663
2030,64378;2,42795
2028,59263;2,4286
2026,54147;2,42932
2024,49032;2,43062
2022,43916;2,43093
2020,38801;2,4294
2018,33685;2,42871
2016,2857;2,43152
2014,23454;2,43389
2012,18339;2,43211
2010,13223;2,43012
2008,08108;2,43186
2006,02992;2,43534
2003,97877;2,43701
2001,92761;2,43776
1999,87645;2,44059
1997,8253;2,44313
1995,77414;2,44231
1993,72299;2,44062
1991,67183;2,44214
1989,62068;2,44565
1987,56952;2,44673
1985,51837;2,44778
1983,46721;2,45088
1981,41606;2,45241
1979,3649;2,45123
1977,31375;2,45059
1975,26259;2,45027
1973,21144;2,44869
1971,16028;2,44939
1969,10912;2,45549
1967,05797;2,46463
1965,00681;2,47128
1962,95566;2,47339
1960,9045;2,47311
1958,85335;2,47129
1956,80219;2,46873
1954,75104;2,4662
1952,69988;2,46508
1950,64873;2,4657
1948,59757;2,46598
1946,54642;2,46711
1944,49526;2,46978
1942,44411;2,47042
1940,39295;2,46887
1938,34179;2,46804
1936,29064;2,4713
1934,23948;2,47664
1932,18833;2,47891
1930,13717;2,47925
1928,08602;2,48177
1926,03486;2,48599
1923,98371;2,48868
1921,93255;2,4896
1919,8814;2,48826
1917,83024;2,4873
1915,77909;2,49021
1913,72793;2,49229
1911,67678;2,49381
1909,62562;2,49683
1907,57446;2,49942
1905,52331;2,50071
1903,47215;2,50072
1901,421;2,49903
1899,36984;2,49967
1897,31869;2,50371
1895,26753;2,50537
1893,21638;2,50569
1891,16522;2,50681
1889,11407;2,50661
1887,06291;2,50739
1885,01176;2,51112
1882,9606;2,51572
1880,90945;2,51884
1878,85829;2,52091
1876,80713;2,52279
1874,75598;2,5253
1872,70482;2,52867
1870,65367;2,53081
1868,60251;2,5328
1866,55136;2,53639
1864,5002;2,53905
1862,44905;2,53971
1860,39789;2,53926
1858,34674;2,54068
1856,29558;2,54476
1854,24443;2,54764
1852,19327;2,54924
1850,14212;2,55489
1848,09096;2,5646
1846,0398;2,57019
1843,98865;2,57003
1841,93749;2,57195
1839,88634;2,57488
1837,83518;2,5768
1835,78403;2,5802
1833,73287;2,58581
1831,68172;2,5911
1829,63056;2,59456
1827,57941;2,59855
1825,52825;2,60511
1823,4771;2,61362
1821,42594;2,61721
1819,37478;2,61651
1817,32363;2,62062
1815,27247;2,63064
1813,22132;2,64134
1811,17016;2,65333
1809,11901;2,66968
1807,06785;2,68731
1805,0167;2,70183
1802,96554;2,71464
1800,91439;2,73137
1798,86323;2,751
1796,81208;2,76499
1794,76092;2,76916
1792,70977;2,76407
1790,65861;2,75383
1788,60745;2,7431
1786,5563;2,73303
1784,50514;2,72469
1782,45399;2,71585
1780,40283;2,70413
1778,35168;2,69536
1776,30052;2,69373
1774,24937;2,69657
1772,19821;2,69991
1770,14706;2,7009
1768,0959;2,69841
1766,04475;2,69862
1763,99359;2,70257
1761,94244;2,70762
1759,89128;2,71323
1757,84012;2,71706
1755,78897;2,72228
1753,73781;2,72835
1751,68666;2,73027
1749,6355;2,73095
1747,58435;2,73551
1745,53319;2,74586
1743,48204;2,75741
1741,43088;2,76229
1739,37973;2,76204
1737,32857;2,76242
1735,27742;2,75737
1733,22626;2,75629
1731,17511;2,76675
1729,12395;2,7737
1727,07279;2,77378
1725,02164;2,77096
1722,97048;2,76951
1720,91933;2,7707
1718,86817;2,77378
1716,81702;2,78637
1714,76586;2,80551
1712,71471;2,81701
1710,66355;2,81886
1708,6124;2,81754
1706,56124;2,81703
1704,51009;2,81867
1702,45893;2,81996
1700,40778;2,82661
1698,35662;2,8442
1696,30546;2,85009
1694,25431;2,84766
1692,20315;2,85172
1690,152;2,86089
1688,10084;2,86931
1686,04969;2,86757
1683,99853;2,85974
1681,94738;2,85872
1679,89622;2,85984
1677,84507;2,86054
1675,79391;2,86268
1673,74276;2,86837
1671,6916;2,86947
1669,64045;2,86444
1667,58929;2,86449
1665,53813;2,86967
1663,48698;2,87216
1661,43582;2,86926
1659,38467;2,86312
1657,33351;2,85593
1655,28236;2,84291
1653,2312;2,83203
1651,18005;2,84412
1649,12889;2,85324
1647,07774;2,844
1645,02658;2,83289
1642,97543;2,8278
1640,92427;2,83054
1638,87312;2,83704
1636,82196;2,83203
1634,7708;2,81779
1632,71965;2,81025
1630,66849;2,807
1628,61734;2,80111
1626,56618;2,79433
1624,51503;2,79059
1622,46387;2,78803
1620,41272;2,78254
1618,36156;2,77091
1616,31041;2,75961
1614,25925;2,75518
1612,2081;2,74969
1610,15694;2,74046
1608,10579;2,73178
1606,05463;2,72608
1604,00347;2,72209
1601,95232;2,71793
1599,90116;2,71448
1597,85001;2,71075
1595,79885;2,70308
1593,7477;2,69519
1591,69654;2,69434
1589,64539;2,69761
1587,59423;2,69562
1585,54308;2,68711
1583,49192;2,67917
1581,44077;2,67472
1579,38961;2,67054
1577,33846;2,6637
1575,2873;2,66133
1573,23614;2,66458
1571,18499;2,66085
1569,13383;2,65142
1567,08268;2,64141
1565,03152;2,6284
1562,98037;2,61517
1560,92921;2,59806
1558,87806;2,58147
1556,8269;2,57713
1554,77575;2,56694
1552,72459;2,54597
1550,67344;2,52156
1548,62228;2,50136
1546,57113;2,48555
1544,51997;2,46926
1542,46881;2,45317
1540,41766;2,43857
1538,3665;2,43579
1536,31535;2,4401
1534,26419;2,43789
1532,21304;2,43691
1530,16188;2,44048
1528,11073;2,44097
1526,05957;2,43965
1524,00842;2,44
1521,95726;2,44222
1519,90611;2,45016
1517,85495;2,45743
1515,80379;2,46082
1513,75264;2,46323
1511,70148;2,46559
1509,65033;2,46771
1507,59917;2,46574
1505,54802;2,46827
1503,49686;2,47751
1501,44571;2,48284
1499,39455;2,48466
1497,3434;2,48737
1495,29224;2,49345
1493,24109;2,50022
1491,18993;2,50324
1489,13878;2,50782
1487,08762;2,51844
1485,03646;2,53129
1482,98531;2,54119
1480,93415;2,54906
1478,883;2,55827
1476,83184;2,56768
1474,78069;2,57519
1472,72953;2,5811
1470,67838;2,58922
1468,62722;2,59547
1466,57607;2,59657
1464,52491;2,60057
1462,47376;2,61317
1460,4226;2,6238
1458,37145;2,62255
1456,32029;2,61801
1454,26913;2,62247
1452,21798;2,62962
1450,16682;2,63322
1448,11567;2,63159
1446,06451;2,62877
1444,01336;2,62915
1441,9622;2,63336
1439,91105;2,63862
1437,85989;2,6409
1435,80874;2,6444
1433,75758;2,64945
1431,70643;2,64915
1429,65527;2,64629
1427,60412;2,64654
1425,55296;2,64883
1423,5018;2,64946
1421,45065;2,64365
1419,39949;2,63218
1417,34834;2,62564
1415,29718;2,6247
1413,24603;2,62354
1411,19487;2,61768
1409,14372;2,60824
1407,09256;2,60246
1405,04141;2,60349
1402,99025;2,60666
1400,9391;2,60559
1398,88794;2,60559
1396,83679;2,61573
1394,78563;2,6322
1392,73447;2,64799
1390,68332;2,66008
1388,63216;2,66933
1386,58101;2,67598
1384,52985;2,67826
1382,4787;2,6805
1380,42754;2,68867
1378,37639;2,6989
1376,32523;2,70488
1374,27408;2,70811
1372,22292;2,7136
1370,17177;2,71814
1368,12061;2,71966
1366,06946;2,72227
1364,0183;2,72645
1361,96714;2,72974
1359,91599;2,72989
1357,86483;2,72774
1355,81368;2,72638
1353,76252;2,72483
1351,71137;2,72315
1349,66021;2,72499
1347,60906;2,73009
1345,5579;2,73801
1343,50675;2,74797
1341,45559;2,75235
1339,40444;2,74708
1337,35328;2,74063
1335,30213;2,74215
1333,25097;2,7492
1331,19981;2,75294
1329,14866;2,75255
1327,0975;2,75324
1325,04635;2,75381
1322,99519;2,75001
1320,94404;2,74443
1318,89288;2,74243
1316,84173;2,74018
1314,79057;2,73552
1312,73942;2,73977
1310,68826;2,75261
1308,63711;2,75947
1306,58595;2,7597
1304,5348;2,76179
1302,48364;2,76615
1300,43248;2,77202
1298,38133;2,77775
1296,33017;2,77726
1294,27902;2,77132
1292,22786;2,76455
1290,17671;2,76066
1288,12555;2,7614
1286,0744;2,76212
1284,02324;2,76037
1281,97209;2,7589
1279,92093;2,76029
1277,86978;2,76489
1275,81862;2,77001
1273,76747;2,7741
1271,71631;2,77284
1269,66515;2,76721
1267,614;2,76881
1265,56284;2,77655
1263,51169;2,77892
1261,46053;2,77389
1259,40938;2,76797
1257,35822;2,76751
1255,30707;2,77486
1253,25591;2,78506
1251,20476;2,78965
1249,1536;2,79052
1247,10245;2,7948
1245,05129;2,80162
1243,00013;2,80664
1240,94898;2,81003
1238,89782;2,80986
1236,84667;2,80267
1234,79551;2,79687
1232,74436;2,80406
1230,6932;2,82278
1228,64205;2,83688
1226,59089;2,83166
1224,53974;2,81844
1222,48858;2,81557
1220,43743;2,82213
1218,38627;2,82833
1216,33512;2,82896
1214,28396;2,82685
1212,2328;2,82619
1210,18165;2,83249
1208,13049;2,84706
1206,07934;2,8597
1204,02818;2,8642
1201,97703;2,86601
1199,92587;2,87038
1197,87472;2,88101
1195,82356;2,89318
1193,77241;2,90057
1191,72125;2,90661
1189,6701;2,91323
1187,61894;2,92601
1185,56779;2,9459
1183,51663;2,95599
1181,46547;2,95251
1179,41432;2,95224
1177,36316;2,95885
1175,31201;2,96803
1173,26085;2,98496
1171,2097;3,00019
1169,15854;2,99644
1167,10739;2,98019
1165,05623;2,96426
1163,00508;2,95156
1160,95392;2,94196
1158,90277;2,93321
1156,85161;2,92618
1154,80046;2,92952
1152,7493;2,93615
1150,69814;2,93391
1148,64699;2,92653
1146,59583;2,91333
1144,54468;2,89437
1142,49352;2,88052
1140,44237;2,87505
1138,39121;2,87621
1136,34006;2,87744
1134,2889;2,87543
1132,23775;2,87392
1130,18659;2,86674
1128,13544;2,85455
1126,08428;2,84196
1124,03313;2,82543
1121,98197;2,81378
1119,93081;2,8116
1117,87966;2,80908
1115,8285;2,8079
1113,77735;2,80904
1111,72619;2,80425
1109,67504;2,79542
1107,62388;2,78901
1105,57273;2,77739
1103,52157;2,75171
1101,47042;2,72496
1099,41926;2,71051
1097,36811;2,70614
1095,31695;2,69984
1093,2658;2,68336
1091,21464;2,66081
1089,16348;2,63984
1087,11233;2,62168
1085,06117;2,60446
1083,01002;2,58585
1080,95886;2,56495
1078,90771;2,54958
1076,85655;2,54368
1074,8054;2,53901
1072,75424;2,52909
1070,70309;2,51864
1068,65193;2,51613
1066,60078;2,52031
1064,54962;2,52312
1062,49847;2,52034
1060,44731;2,51505
1058,39615;2,51262
1056,345;2,511
1054,29384;2,5048
1052,24269;2,49353
1050,19153;2,48194
1048,14038;2,47717
1046,08922;2,4776
1044,03807;2,47523
1041,98691;2,46786
1039,93576;2,46092
1037,8846;2,45699
1035,83345;2,44855
1033,78229;2,43532
1031,73114;2,42696
1029,67998;2,42466
1027,62882;2,42446
1025,57767;2,42751
1023,52651;2,43323
1021,47536;2,4353
1019,4242;2,43339
1017,37305;2,4332
1015,32189;2,43485
1013,27074;2,43727
1011,21958;2,4397
1009,16843;2,4392
1007,11727;2,43951
1005,06612;2,44422
1003,01496;2,44913
1000,96381;2,45268
998,91265;2,45567
996,86149;2,45886
994,81034;2,46665
992,75918;2,4786
990,70803;2,48757
988,65687;2,49065
986,60572;2,48987
984,55456;2,48849
982,50341;2,48938
980,45225;2,49104
978,4011;2,49193
976,34994;2,49405
974,29879;2,49664
972,24763;2,49692
970,19647;2,4952
968,14532;2,49461
966,09416;2,49595
964,04301;2,497
961,99185;2,49929
959,9407;2,50378
957,88954;2,50865
955,83839;2,5137
953,78723;2,51834
951,73608;2,52084
949,68492;2,52194
947,63377;2,52527
945,58261;2,5303
943,53146;2,53256
941,4803;2,53262
939,42914;2,53602
937,37799;2,54519
935,32683;2,5549
933,27568;2,56297
931,22452;2,57312
929,17337;2,58274
927,12221;2,58735
925,07106;2,58849
923,0199;2,58942
920,96875;2,58898
918,91759;2,58993
916,86644;2,59367
914,81528;2,59371
912,76413;2,59101
910,71297;2,58754
908,66181;2,58446
906,61066;2,58702
904,5595;2,59227
902,50835;2,59499
900,45719;2,59793
898,40604;2,59982
896,35488;2,60006
894,30373;2,60296
892,25257;2,60063
890,20142;2,59049
888,15026;2,58021
886,09911;2,56698
884,04795;2,55649
881,9968;2,55692
879,94564;2,56003
877,89448;2,56284
875,84333;2,56689
873,79217;2,56596
871,74102;2,56814
869,68986;2,58947
867,63871;2,6239
865,58755;2,65063
863,5364;2,65966
861,48524;2,65779
859,43409;2,65403
857,38293;2,65202
855,33178;2,65239
853,28062;2,65249
851,22947;2,65832
849,17831;2,67133
847,12715;2,68165
845,076;2,6894
843,02484;2,69154
840,97369;2,68295
838,92253;2,67163
836,87138;2,6633
834,82022;2,65847
832,76907;2,66252
830,71791;2,67863
828,66676;2,69897
826,6156;2,70755
824,56445;2,70361
822,51329;2,70027
820,46214;2,69592
818,41098;2,68789
816,35982;2,68823
814,30867;2,69787
812,25751;2,70155
810,20636;2,70203
808,1552;2,71229
806,10405;2,72116
804,05289;2,70639
802,00174;2,68374
799,95058;2,67761
797,89943;2,6812
795,84827;2,67958
793,79712;2,67459
791,74596;2,6743
789,69481;2,67926
787,64365;2,68111
785,59249;2,67471
783,54134;2,66805
781,49018;2,66475
779,43903;2,65937
777,38787;2,66
775,33672;2,67235
773,28556;2,68216
771,23441;2,6908
769,18325;2,69451
767,1321;2,68507
765,08094;2,6845
763,02979;2,69257
760,97863;2,69359
758,92748;2,69937
756,87632;2,70937
754,82516;2,70701
752,77401;2,70371
750,72285;2,71297
748,6717;2,72786
746,62054;2,72544
744,56939;2,69679
742,51823;2,68227
740,46708;2,69093
738,41592;2,69831
736,36477;2,70977
734,31361;2,71466
732,26246;2,70149
730,2113;2,68998
728,16015;2,69161
726,10899;2,70423
724,05783;2,70354
722,00668;2,68716
719,95552;2,67962
717,90437;2,68486
715,85321;2,6827
713,80206;2,66972
711,7509;2,66719
709,69975;2,67999
707,64859;2,68778
705,59744;2,68395
703,54628;2,68047
701,49513;2,67746
699,44397;2,66517
697,39281;2,6444
695,34166;2,62443
693,2905;2,61624
691,23935;2,62352
689,18819;2,63558
687,13704;2,63822
685,08588;2,63665
683,03473;2,64083
680,98357;2,64526
678,93242;2,64347
676,88126;2,63127
674,83011;2,61011
672,77895;2,59418
670,7278;2,58462
668,67664;2,57086
666,62548;2,56537
664,57433;2,57194
662,52317;2,57261
660,47202;2,57018
658,42086;2,56904
656,36971;2,55844
654,31855;2,54487
652,2674;2,54345
650,21624;2,5462
648,16509;2,54332
646,11393;2,54198
644,06278;2,54558
642,01162;2,55059
639,96047;2,55255
637,90931;2,54507
635,85815;2,52777
633,807;2,51194
631,75584;2,51057
629,70469;2,51903
627,65353;2,52741
625,60238;2,53993
623,55122;2,55232
621,50007;2,55726
619,44891;2,54876
617,39776;2,52191
615,3466;2,50085
613,29545;2,50421
611,24429;2,51636
609,19314;2,51828
607,14198;2,50143
605,09082;2,47742
603,03967;2,46529
600,98851;2,46926
598,93736;2,48188
596,8862;2,49156
594,83505;2,49586
592,78389;2,4981
590,73274;2,48868
588,68158;2,46618
586,63043;2,44275
584,57927;2,42967
582,52812;2,43271
580,47696;2,44332
578,42581;2,44982
576,37465;2,44866
574,32349;2,43672
572,27234;2,42077
570,22118;2,41675
568,17003;2,42249
566,11887;2,42829
564,06772;2,43338
562,01656;2,42681
559,96541;2,40924
557,91425;2,40033
555,8631;2,40255
553,81194;2,40364
551,76079;2,40198
549,70963;2,40217
547,65848;2,40421
545,60732;2,40317
543,55616;2,39654
541,50501;2,39107
539,45385;2,39001
537,4027;2,38103
535,35154;2,36256
533,30039;2,35462
531,24923;2,36513
529,19808;2,37427
527,14692;2,36693
525,09577;2,3501
523,04461;2,34099
520,99346;2,34546
518,9423;2,35228
516,89115;2,3524
514,83999;2,35133
512,78883;2,34999
510,73768;2,34584
508,68652;2,34377
506,63537;2,34959
504,58421;2,35817
502,53306;2,36031
500,4819;2,36062
498,43075;2,35662
496,37959;2,34393
494,32844;2,3363
492,27728;2,34483
490,22613;2,35466
488,17497;2,34487
486,12382;2,31753
484,07266;2,28955
482,0215;2,27655
479,97035;2,28331
477,91919;2,2935
475,86804;2,28993
473,81688;2,28356
471,76573;2,2856
469,71457;2,28006
467,66342;2,26909
465,61226;2,26683
463,56111;2,26696
461,50995;2,27155
459,4588;2,28349
457,40764;2,28782
455,35649;2,2785
453,30533;2,26806
451,25417;2,2613
449,20302;2,25593
447,15186;2,26569
445,10071;2,29342
443,04955;2,30676
440,9984;2,29303
438,94724;2,27525
436,89609;2,25804
434,84493;2,23848
432,79378;2,23275
430,74262;2,2458
428,69147;2,26795
426,64031;2,28375
424,58916;2,27572
422,538;2,25286
420,48684;2,23471
418,43569;2,22476
416,38453;2,21404
414,33338;2,19061
412,28222;2,16915
410,23107;2,16399
408,17991;2,17368
406,12876;2,18716
404,0776;2,1789
402,02645;2,14479
399,97529;2,10864
