3997,70175;1,84926
3995,6506;1,84965
3993,59944;1,85105
3991,54829;1,85306
3989,49713;1,85551
3987,44598;1,85818
3985,39482;1,86007
3983,34367;1,86131
3981,29251;1,86224
3979,24136;1,86277
3977,1902;1,86322
3975,13905;1,86473
3973,08789;1,8666
3971,03673;1,86715
3968,98558;1,86786
3966,93442;1,86937
3964,88327;1,87031
3962,83211;1,87207
3960,78096;1,87563
3958,7298;1,87868
3956,67865;1,8803
3954,62749;1,8821
3952,57634;1,8849
3950,52518;1,88763
3948,47403;1,88923
3946,42287;1,89037
3944,37172;1,89033
3942,32056;1,88904
3940,2694;1,88889
3938,21825;1,89002
3936,16709;1,8905
3934,11594;1,88898
3932,06478;1,88663
3930,01363;1,88521
3927,96247;1,8839
3925,91132;1,88041
3923,86016;1,87492
3921,80901;1,86956
3919,75785;1,86563
3917,7067;1,86342
3915,65554;1,86192
3913,60439;1,85986
3911,55323;1,85868
3909,50207;1,86054
3907,45092;1,86274
3905,39976;1,86161
3903,34861;1,85825
3901,29745;1,855
3899,2463;1,85297
3897,19514;1,85293
3895,14399;1,853
3893,09283;1,85139
3891,04168;1,85019
3888,99052;1,85133
3886,93937;1,85203
3884,88821;1,85394
3882,83706;1,8563
3880,7859;1,85442
3878,73474;1,852
3876,68359;1,85159
3874,63243;1,8533
3872,58128;1,85675
3870,53012;1,85703
3868,47897;1,85576
3866,42781;1,85403
3864,37666;1,85142
3862,3255;1,85015
3860,27435;1,84903
3858,22319;1,84638
3856,17204;1,84078
3854,12088;1,83533
3852,06973;1,8366
3850,01857;1,83957
3847,96741;1,839
3845,91626;1,83765
3843,8651;1,83848
3841,81395;1,84084
3839,76279;1,84126
3837,71164;1,83963
3835,66048;1,83812
3833,60933;1,83699
3831,55817;1,83738
3829,50702;1,83893
3827,45586;1,83932
3825,40471;1,84052
3823,35355;1,84188
3821,3024;1,84275
3819,25124;1,84581
3817,20008;1,84539
3815,14893;1,84294
3813,09777;1,84366
3811,04662;1,84508
3808,99546;1,84549
3806,94431;1,84707
3804,89315;1,85217
3802,842;1,85481
3800,79084;1,85533
3798,73969;1,85735
3796,68853;1,85814
3794,63738;1,85865
3792,58622;1,85899
3790,53506;1,85874
3788,48391;1,85879
3786,43275;1,85912
3784,3816;1,86023
3782,33044;1,86274
3780,27929;1,86543
3778,22813;1,86835
3776,17698;1,87132
3774,12582;1,87384
3772,07467;1,87565
3770,02351;1,87711
3767,97236;1,87991
3765,9212;1,88331
3763,87005;1,88761
3761,81889;1,89154
3759,76773;1,8943
3757,71658;1,89785
3755,66542;1,90169
3753,61427;1,90299
3751,56311;1,90313
3749,51196;1,90722
3747,4608;1,91193
3745,40965;1,9121
3743,35849;1,91795
3741,30734;1,93092
3739,25618;1,94146
3737,20503;1,94966
3735,15387;1,95799
3733,10272;1,96534
3731,05156;1,97228
3729,0004;1,97986
3726,94925;1,98707
3724,89809;1,99534
3722,84694;2,00374
3720,79578;2,01159
3718,74463;2,02064
3716,69347;2,03149
3714,64232;2,0433
3712,59116;2,05876
3710,54001;2,08095
3708,48885;2,10392
3706,4377;2,12331
3704,38654;2,14556
3702,33539;2,1798
3700,28423;2,22443
3698,23307;2,26716
3696,18192;2,30182
3694,13076;2,32572
3692,07961;2,33179
3690,02845;2,32089
3687,9773;2,3106
3685,92614;2,31279
3683,87499;2,31966
3681,82383;2,32846
3679,77268;2,34318
3677,72152;2,36029
3675,67037;2,37973
3673,61921;2,4121
3671,56806;2,45224
3669,5169;2,48959
3667,46574;2,52029
3665,41459;2,54783
3663,36343;2,57732
3661,31228;2,6053
3659,26112;2,62516
3657,20997;2,64151
3655,15881;2,67166
3653,10766;2,71431
3651,0565;2,75852
3649,00535;2,80969
3646,95419;2,85974
3644,90304;2,89333
3642,85188;2,90673
3640,80073;2,9049
3638,74957;2,90378
3636,69841;2,90986
3634,64726;2,91424
3632,5961;2,92201
3630,54495;2,94204
3628,49379;2,95867
3626,44264;2,95159
3624,39148;2,93492
3622,34033;2,93725
3620,28917;2,96167
3618,23802;2,98179
3616,18686;2,98716
3614,13571;3,00282
3612,08455;3,03421
3610,0334;3,05672
3607,98224;3,0634
3605,93108;3,05651
3603,87993;3,04332
3601,82877;3,04066
3599,77762;3,05102
3597,72646;3,05715
3595,67531;3,04804
3593,62415;3,04421
3591,573;3,06031
3589,52184;3,07696
3587,47069;3,07451
3585,41953;3,06244
3583,36838;3,0536
3581,31722;3,05097
3579,26607;3,06445
3577,21491;3,08875
3575,16375;3,09867
3573,1126;3,08493
3571,06144;3,0642
3569,01029;3,06213
3566,95913;3,0895
3564,90798;3,11801
3562,85682;3,11737
3560,80567;3,09656
3558,75451;3,07528
3556,70336;3,0645
3554,6522;3,06996
3552,60105;3,09128
3550,54989;3,10725
3548,49874;3,09018
3546,44758;3,06134
3544,39642;3,06565
3542,34527;3,0912
3540,29411;3,10165
3538,24296;3,10704
3536,1918;3,11912
3534,14065;3,11018
3532,08949;3,07787
3530,03834;3,06594
3527,98718;3,08945
3525,93603;3,11844
3523,88487;3,12604
3521,83372;3,1135
3519,78256;3,10226
3517,73141;3,10337
3515,68025;3,11363
3513,62909;3,12259
3511,57794;3,11716
3509,52678;3,10252
3507,47563;3,08882
3505,42447;3,07823
3503,37332;3,07786
3501,32216;3,09331
3499,27101;3,12103
3497,21985;3,14092
3495,1687;3,13368
3493,11754;3,11165
3491,06639;3,09243
3489,01523;3,09337
3486,96407;3,12201
3484,91292;3,14301
3482,86176;3,13188
3480,81061;3,11486
3478,75945;3,11287
3476,7083;3,12186
3474,65714;3,12883
3472,60599;3,11943
3470,55483;3,11011
3468,50368;3,11943
3466,45252;3,12537
3464,40137;3,11951
3462,35021;3,11213
3460,29906;3,09954
3458,2479;3,09211
3456,19674;3,09317
3454,14559;3,08666
3452,09443;3,07802
3450,04328;3,08066
3447,99212;3,08825
3445,94097;3,08745
3443,88981;3,07477
3441,83866;3,05724
3439,7875;3,05704
3437,73635;3,08308
3435,68519;3,10711
3433,63404;3,10195
3431,58288;3,08328
3429,53173;3,07836
3427,48057;3,08815
3425,42941;3,07987
3423,37826;3,04876
3421,3271;3,03745
3419,27595;3,06488
3417,22479;3,10557
3415,17364;3,11036
3413,12248;3,08183
3411,07133;3,07022
3409,02017;3,0819
3406,96902;3,09569
3404,91786;3,10364
3402,86671;3,1007
3400,81555;3,09
3398,7644;3,08905
3396,71324;3,09895
3394,66208;3,1034
3392,61093;3,08244
3390,55977;3,04496
3388,50862;3,0243
3386,45746;3,02508
3384,40631;3,03391
3382,35515;3,04439
3380,304;3,04906
3378,25284;3,05112
3376,20169;3,05203
3374,15053;3,04343
3372,09938;3,03554
3370,04822;3,0427
3367,99707;3,05496
3365,94591;3,06443
3363,89475;3,06484
3361,8436;3,04684
3359,79244;3,0328
3357,74129;3,03813
3355,69013;3,04151
3353,63898;3,03548
3351,58782;3,03288
3349,53667;3,04477
3347,48551;3,06584
3345,43436;3,06884
3343,3832;3,04782
3341,33205;3,02735
3339,28089;3,02277
3337,22974;3,03012
3335,17858;3,03476
3333,12742;3,03162
3331,07627;3,03086
3329,02511;3,0328
3326,97396;3,03006
3324,9228;3,03032
3322,87165;3,03511
3320,82049;3,0358
3318,76934;3,03121
3316,71818;3,01947
3314,66703;3,00999
3312,61587;3,01557
3310,56472;3,03397
3308,51356;3,0527
3306,46241;3,05644
3304,41125;3,0499
3302,36009;3,04235
3300,30894;3,02925
3298,25778;3,01118
3296,20663;2,99635
3294,15547;2,98617
3292,10432;2,98166
3290,05316;2,98478
3288,00201;2,99302
3285,95085;3,00177
3283,8997;3,00759
3281,84854;3,00724
3279,79739;2,99408
3277,74623;2,97482
3275,69508;2,96479
3273,64392;2,96527
3271,59276;2,9715
3269,54161;2,97779
3267,49045;2,98119
3265,4393;2,98092
3263,38814;2,97517
3261,33699;2,96794
3259,28583;2,97021
3257,23468;2,9824
3255,18352;2,98886
3253,13237;2,99117
3251,08121;3,00073
3249,03006;3,01456
3246,9789;3,02271
3244,92775;3,01722
3242,87659;3,0041
3240,82543;2,99701
3238,77428;2,99472
3236,72312;2,99034
3234,67197;2,98625
3232,62081;2,98273
3230,56966;2,97448
3228,5185;2,96532
3226,46735;2,96664
3224,41619;2,97451
3222,36504;2,97485
3220,31388;2,96918
3218,26273;2,96376
3216,21157;2,95957
3214,16041;2,95387
3212,10926;2,94554
3210,0581;2,94467
3208,00695;2,95536
3205,95579;2,96739
3203,90464;2,97296
3201,85348;2,97363
3199,80233;2,97922
3197,75117;2,98672
3195,70002;2,98201
3193,64886;2,97462
3191,59771;2,97936
3189,54655;2,98653
3187,4954;2,98681
3185,44424;2,9951
3183,39308;3,00712
3181,34193;2,99631
3179,29077;2,97055
3177,23962;2,95653
3175,18846;2,96094
3173,13731;2,97373
3171,08615;2,98816
3169,035;2,99981
3166,98384;3,0003
3164,93269;2,99126
3162,88153;2,98011
3160,83038;2,97166
3158,77922;2,96699
3156,72807;2,96464
3154,67691;2,97134
3152,62575;2,98343
3150,5746;2,98038
3148,52344;2,96517
3146,47229;2,96265
3144,42113;2,97109
3142,36998;2,97141
3140,31882;2,96706
3138,26767;2,96647
3136,21651;2,9685
3134,16536;2,96892
3132,1142;2,96319
3130,06305;2,95889
3128,01189;2,96408
3125,96074;2,97289
3123,90958;2,97971
3121,85842;2,98487
3119,80727;2,98859
3117,75611;2,98839
3115,70496;2,97897
3113,6538;2,96357
3111,60265;2,95402
3109,55149;2,95379
3107,50034;2,95429
3105,44918;2,95155
3103,39803;2,95084
3101,34687;2,95437
3099,29572;2,96343
3097,24456;2,97993
3095,19341;2,99374
3093,14225;2,99849
3091,09109;2,99881
3089,03994;2,99263
3086,98878;2,97825
3084,93763;2,96501
3082,88647;2,95823
3080,83532;2,95748
3078,78416;2,96137
3076,73301;2,96484
3074,68185;2,96844
3072,6307;2,96922
3070,57954;2,95839
3068,52839;2,94628
3066,47723;2,94249
3064,42608;2,94276
3062,37492;2,94415
3060,32376;2,94192
3058,27261;2,93605
3056,22145;2,93408
3054,1703;2,93601
3052,11914;2,93474
3050,06799;2,93291
3048,01683;2,93402
3045,96568;2,93526
3043,91452;2,93422
3041,86337;2,92818
3039,81221;2,91987
3037,76106;2,91938
3035,7099;2,92798
3033,65875;2,93671
3031,60759;2,9439
3029,55643;2,94422
3027,50528;2,92972
3025,45412;2,91567
3023,40297;2,91856
3021,35181;2,93319
3019,30066;2,93941
3017,2495;2,93219
3015,19835;2,92469
3013,14719;2,92008
3011,09604;2,91448
3009,04488;2,90645
3006,99373;2,90156
3004,94257;2,9054
3002,89142;2,91283
3000,84026;2,92569
2998,7891;2,93839
2996,73795;2,93478
2994,68679;2,92496
2992,63564;2,92023
2990,58448;2,9218
2988,53333;2,9317
2986,48217;2,94676
2984,43102;2,95634
2982,37986;2,95467
2980,32871;2,94526
2978,27755;2,93244
2976,2264;2,92033
2974,17524;2,91834
2972,12409;2,93444
2970,07293;2,948
2968,02177;2,93851
2965,97062;2,92577
2963,91946;2,93078
2961,86831;2,94179
2959,81715;2,93891
2957,766;2,92982
2955,71484;2,92683
2953,66369;2,92931
2951,61253;2,92882
2949,56138;2,92287
2947,51022;2,91841
2945,45907;2,92202
2943,40791;2,93093
2941,35675;2,93446
2939,3056;2,93698
2937,25444;2,9417
2935,20329;2,94021
2933,15213;2,93441
2931,10098;2,92596
2929,04982;2,91313
2926,99867;2,90392
2924,94751;2,90411
2922,89636;2,90673
2920,8452;2,91243
2918,79405;2,92485
2916,74289;2,92886
2914,69174;2,91522
2912,64058;2,89426
2910,58942;2,88569
2908,53827;2,9007
2906,48711;2,92311
2904,43596;2,92906
2902,3848;2,91786
2900,33365;2,90672
2898,28249;2,90355
2896,23134;2,90569
2894,18018;2,91553
2892,12903;2,9238
2890,07787;2,91791
2888,02672;2,91159
2885,97556;2,917
2883,92441;2,92297
2881,87325;2,9212
2879,82209;2,91644
2877,77094;2,91217
2875,71978;2,91018
2873,66863;2,90725
2871,61747;2,8921
2869,56632;2,87937
2867,51516;2,89063
2865,46401;2,91421
2863,41285;2,91545
2861,3617;2,88714
2859,31054;2,86223
2857,25939;2,86209
2855,20823;2,88132
2853,15708;2,89142
2851,10592;2,87886
2849,05476;2,86716
2847,00361;2,86529
2844,95245;2,86533
2842,9013;2,86726
2840,85014;2,86374
2838,79899;2,85079
2836,74783;2,83852
2834,69668;2,82835
2832,64552;2,82267
2830,59437;2,82435
2828,54321;2,82307
2826,49206;2,81397
2824,4409;2,80282
2822,38975;2,79704
2820,33859;2,79715
2818,28743;2,79401
2816,23628;2,78702
2814,18512;2,78382
2812,13397;2,78579
2810,08281;2,79058
2808,03166;2,79156
2805,9805;2,78877
2803,92935;2,79163
2801,87819;2,79595
2799,82704;2,79308
2797,77588;2,78864
2795,72473;2,78397
2793,67357;2,77762
2791,62242;2,76978
2789,57126;2,75798
2787,5201;2,75027
2785,46895;2,74845
2783,41779;2,74166
2781,36664;2,73681
2779,31548;2,73937
2777,26433;2,74009
2775,21317;2,74233
2773,16202;2,74754
2771,11086;2,74593
2769,05971;2,739
2767,00855;2,73394
2764,9574;2,73337
2762,90624;2,73637
2760,85509;2,73441
2758,80393;2,72441
2756,75277;2,71737
2754,70162;2,71967
2752,65046;2,72656
2750,59931;2,72704
2748,54815;2,7196
2746,497;2,71326
2744,44584;2,70662
2742,39469;2,69937
2740,34353;2,69725
2738,29238;2,69602
2736,24122;2,69223
2734,19007;2,69215
2732,13891;2,6961
2730,08776;2,69708
2728,0366;2,695
2725,98544;2,69384
2723,93429;2,6911
2721,88313;2,68393
2719,83198;2,67725
2717,78082;2,67251
2715,72967;2,668
2713,67851;2,66614
2711,62736;2,66544
2709,5762;2,66273
2707,52505;2,6615
2705,47389;2,66174
2703,42274;2,66028
2701,37158;2,65991
2699,32043;2,66018
2697,26927;2,66046
2695,21811;2,66184
2693,16696;2,65891
2691,1158;2,65319
2689,06465;2,65209
2687,01349;2,6546
2684,96234;2,65541
2682,91118;2,64848
2680,86003;2,63936
2678,80887;2,63831
2676,75772;2,64056
2674,70656;2,64019
2672,65541;2,6368
2670,60425;2,6312
2668,55309;2,62732
2666,50194;2,62921
2664,45078;2,6357
2662,39963;2,64014
2660,34847;2,63855
2658,29732;2,63164
2656,24616;2,62674
2654,19501;2,62753
2652,14385;2,63006
2650,0927;2,63266
2648,04154;2,63201
2645,99039;2,62755
2643,93923;2,62553
2641,88808;2,62629
2639,83692;2,62574
2637,78576;2,62485
2635,73461;2,6281
2633,68345;2,63738
2631,6323;2,64633
2629,58114;2,65067
2627,52999;2,6554
2625,47883;2,65988
2623,42768;2,65923
2621,37652;2,65734
2619,32537;2,65973
2617,27421;2,66592
2615,22306;2,67166
2613,1719;2,67356
2611,12075;2,67326
2609,06959;2,67478
2607,01843;2,67787
2604,96728;2,67993
2602,91612;2,67919
2600,86497;2,67529
2598,81381;2,67274
2596,76266;2,67503
2594,7115;2,67993
2592,66035;2,68692
2590,60919;2,695
2588,55804;2,69921
2586,50688;2,69887
2584,45573;2,69699
2582,40457;2,69436
2580,35342;2,69044
2578,30226;2,68715
2576,2511;2,686
2574,19995;2,68657
2572,14879;2,68918
2570,09764;2,69075
2568,04648;2,68714
2565,99533;2,68278
2563,94417;2,68481
2561,89302;2,69083
2559,84186;2,69434
2557,79071;2,6924
2555,73955;2,68718
2553,6884;2,68633
2551,63724;2,69017
2549,58609;2,69338
2547,53493;2,69501
2545,48377;2,69679
2543,43262;2,70291
2541,38146;2,7123
2539,33031;2,7194
2537,27915;2,72382
2535,228;2,72435
2533,17684;2,72648
2531,12569;2,73884
2529,07453;2,75237
2527,02338;2,76032
2524,97222;2,76858
2522,92107;2,77481
2520,86991;2,77694
2518,81876;2,77842
2516,7676;2,77971
2514,71644;2,77978
2512,66529;2,77538
2510,61413;2,768
2508,56298;2,76238
2506,51182;2,75889
2504,46067;2,75682
2502,40951;2,7535
2500,35836;2,74376
2498,3072;2,73142
2496,25605;2,72546
2494,20489;2,71919
2492,15374;2,70361
2490,10258;2,68675
2488,05143;2,67559
2486,00027;2,6664
2483,94911;2,65839
2481,89796;2,65235
2479,8468;2,64349
2477,79565;2,62819
2475,74449;2,61047
2473,69334;2,59876
2471,64218;2,59394
2469,59103;2,58992
2467,53987;2,58294
2465,48872;2,57423
2463,43756;2,56833
2461,38641;2,56494
2459,33525;2,56001
2457,2841;2,55352
2455,23294;2,54765
2453,18178;2,54323
2451,13063;2,53846
2449,07947;2,53515
2447,02832;2,53546
2444,97716;2,53321
2442,92601;2,52666
2440,87485;2,52176
2438,8237;2,51968
2436,77254;2,51634
2434,72139;2,51099
2432,67023;2,50623
2430,61908;2,50154
2428,56792;2,49761
2426,51677;2,49696
2424,46561;2,49725
2422,41445;2,49574
2420,3633;2,49485
2418,31214;2,496
2416,26099;2,49725
2414,20983;2,49573
2412,15868;2,48978
2410,10752;2,48389
2408,05637;2,48291
2406,00521;2,48381
2403,95406;2,48358
2401,9029;2,48446
2399,85175;2,48585
2397,80059;2,4845
2395,74944;2,48057
2393,69828;2,47794
2391,64712;2,47779
2389,59597;2,47743
2387,54481;2,47653
2385,49366;2,47711
2383,4425;2,47718
2381,39135;2,47402
2379,34019;2,47051
2377,28904;2,46943
2375,23788;2,46966
2373,18673;2,47066
2371,13557;2,47281
2369,08442;2,47361
2367,03326;2,46988
2364,9821;2,46507
2362,93095;2,46513
2360,87979;2,46713
2358,82864;2,4666
2356,77748;2,47114
2354,72633;2,48166
2352,67517;2,48521
2350,62402;2,47911
2348,57286;2,47111
2346,52171;2,46681
2344,47055;2,46954
2342,4194;2,47646
2340,36824;2,48062
2338,31709;2,48302
2336,26593;2,48542
2334,21477;2,4837
2332,16362;2,47913
2330,11246;2,47787
2328,06131;2,47901
2326,01015;2,47642
2323,959;2,46916
2321,90784;2,46316
2319,85669;2,46327
2317,80553;2,46753
2315,75438;2,4712
2313,70322;2,4711
2311,65207;2,46793
2309,60091;2,46522
2307,54976;2,46429
2305,4986;2,46413
2303,44744;2,46415
2301,39629;2,46489
2299,34513;2,46611
2297,29398;2,46695
2295,24282;2,46754
2293,19167;2,46808
2291,14051;2,46722
2289,08936;2,46384
2287,0382;2,46086
2284,98705;2,46096
2282,93589;2,46168
2280,88474;2,4615
2278,83358;2,4622
2276,78243;2,464
2274,73127;2,46573
2272,68011;2,46568
2270,62896;2,46333
2268,5778;2,46219
2266,52665;2,46359
2264,47549;2,46442
2262,42434;2,46443
2260,37318;2,46599
2258,32203;2,46866
2256,27087;2,4694
2254,21972;2,46743
2252,16856;2,46538
2250,11741;2,46582
2248,06625;2,46813
2246,0151;2,46941
2243,96394;2,47044
2241,91278;2,47275
2239,86163;2,47464
2237,81047;2,47711
2235,75932;2,48021
2233,70816;2,48055
2231,65701;2,48038
2229,60585;2,48426
2227,5547;2,48869
2225,50354;2,48888
2223,45239;2,48781
2221,40123;2,49067
2219,35008;2,49547
2217,29892;2,49638
2215,24777;2,49444
2213,19661;2,49401
2211,14545;2,49636
2209,0943;2,49889
2207,04314;2,49695
2204,99199;2,49259
2202,94083;2,49311
2200,88968;2,49956
2198,83852;2,50593
2196,78737;2,50579
2194,73621;2,50054
2192,68506;2,49894
2190,6339;2,50122
2188,58275;2,50265
2186,53159;2,50442
2184,48044;2,50726
2182,42928;2,51159
2180,37812;2,51592
2178,32697;2,51605
2176,27581;2,51363
2174,22466;2,51421
2172,1735;2,51824
2170,12235;2,52206
2168,07119;2,52541
2166,02004;2,52847
2163,96888;2,52936
2161,91773;2,53034
2159,86657;2,53426
2157,81542;2,53954
2155,76426;2,54399
2153,71311;2,54738
2151,66195;2,55002
2149,61079;2,55096
2147,55964;2,55259
2145,50848;2,55714
2143,45733;2,56042
2141,40617;2,56007
2139,35502;2,56011
2137,30386;2,56157
2135,25271;2,55949
2133,20155;2,55338
2131,1504;2,55075
2129,09924;2,55375
2127,04809;2,55206
2124,99693;2,5474
2122,94578;2,55037
2120,89462;2,55293
2118,84346;2,5481
2116,79231;2,5429
2114,74115;2,53932
2112,69;2,53495
2110,63884;2,53074
2108,58769;2,5292
2106,53653;2,53038
2104,48538;2,53143
2102,43422;2,5314
2100,38307;2,53134
2098,33191;2,53261
2096,28076;2,53467
2094,2296;2,53386
2092,17844;2,53241
2090,12729;2,53439
2088,07613;2,53757
2086,02498;2,53858
2083,97382;2,53561
2081,92267;2,53187
2079,87151;2,53289
2077,82036;2,53574
2075,7692;2,5347
2073,71805;2,53124
2071,66689;2,53005
2069,61574;2,5339
2067,56458;2,54037
2065,51343;2,5447
2063,46227;2,54528
2061,41111;2,54302
2059,35996;2,54134
2057,3088;2,54261
2055,25765;2,546
2053,20649;2,54976
2051,15534;2,55182
2049,10418;2,55111
2047,05303;2,54849
2045,00187;2,54576
2042,95072;2,54352
2040,89956;2,54099
2038,84841;2,53922
2036,79725;2,54159
2034,7461;2,54881
2032,69494;2,55724
2030,64378;2,5613
2028,59263;2,55877
2026,54147;2,55462
2024,49032;2,55373
2022,43916;2,55548
2020,38801;2,55699
2018,33685;2,55756
2016,2857;2,55828
2014,23454;2,55869
2012,18339;2,55913
2010,13223;2,56041
2008,08108;2,56106
2006,02992;2,5615
2003,97877;2,5622
2001,92761;2,56099
1999,87645;2,55921
1997,8253;2,56036
1995,77414;2,56335
1993,72299;2,56507
1991,67183;2,56525
1989,62068;2,56475
1987,56952;2,56372
1985,51837;2,56368
1983,46721;2,56676
1981,41606;2,57248
1979,3649;2,57638
1977,31375;2,57751
1975,26259;2,5797
1973,21144;2,58099
1971,16028;2,57873
1969,10912;2,57784
1967,05797;2,58162
1965,00681;2,58632
1962,95566;2,58878
1960,9045;2,59043
1958,85335;2,59149
1956,80219;2,59168
1954,75104;2,59328
1952,69988;2,59618
1950,64873;2,59592
1948,59757;2,59217
1946,54642;2,58919
1944,49526;2,58846
1942,44411;2,58937
1940,39295;2,59046
1938,34179;2,59149
1936,29064;2,5948
1934,23948;2,59892
1932,18833;2,60074
1930,13717;2,6017
1928,08602;2,60468
1926,03486;2,60829
1923,98371;2,60929
1921,93255;2,6085
1919,8814;2,60661
1917,83024;2,60619
1915,77909;2,61097
1913,72793;2,61648
1911,67678;2,61979
1909,62562;2,62262
1907,57446;2,62565
1905,52331;2,62691
1903,47215;2,62712
1901,421;2,63016
1899,36984;2,63552
1897,31869;2,63909
1895,26753;2,6386
1893,21638;2,63483
1891,16522;2,63204
1889,11407;2,63527
1887,06291;2,6412
1885,01176;2,64321
1882,9606;2,64447
1880,90945;2,64835
1878,85829;2,65182
1876,80713;2,65509
1874,75598;2,66118
1872,70482;2,66746
1870,65367;2,66868
1868,60251;2,66717
1866,55136;2,6697
1864,5002;2,67534
1862,44905;2,68036
1860,39789;2,6831
1858,34674;2,68493
1856,29558;2,68778
1854,24443;2,68913
1852,19327;2,68864
1850,14212;2,69236
1848,09096;2,70346
1846,0398;2,71553
1843,98865;2,72186
1841,93749;2,72365
1839,88634;2,72399
1837,83518;2,72682
1835,78403;2,73413
1833,73287;2,7422
1831,68172;2,74579
1829,63056;2,7473
1827,57941;2,75205
1825,52825;2,75911
1823,4771;2,769
1821,42594;2,77922
1819,37478;2,78598
1817,32363;2,79086
1815,27247;2,79666
1813,22132;2,80548
1811,17016;2,81966
1809,11901;2,84026
1807,06785;2,86248
1805,0167;2,87733
1802,96554;2,88668
1800,91439;2,90388
1798,86323;2,92983
1796,81208;2,9528
1794,76092;2,96713
1792,70977;2,97031
1790,65861;2,96139
1788,60745;2,94517
1786,5563;2,92913
1784,50514;2,91696
1782,45399;2,90887
1780,40283;2,90684
1778,35168;2,90781
1776,30052;2,90641
1774,24937;2,90692
1772,19821;2,91177
1770,14706;2,91341
1768,0959;2,91071
1766,04475;2,91271
1763,99359;2,92189
1761,94244;2,93326
1759,89128;2,94006
1757,84012;2,94057
1755,78897;2,94386
1753,73781;2,95426
1751,68666;2,9669
1749,6355;2,97789
1747,58435;2,98344
1745,53319;2,99004
1743,48204;3,0053
1741,43088;3,01934
1739,37973;3,0257
1737,32857;3,03126
1735,27742;3,03773
1733,22626;3,04833
1731,17511;3,0565
1729,12395;3,05766
1727,07279;3,06726
1725,02164;3,08748
1722,97048;3,10103
1720,91933;3,10299
1718,86817;3,10568
1716,81702;3,11617
1714,76586;3,1263
1712,71471;3,13029
1710,66355;3,13073
1708,6124;3,13599
1706,56124;3,1517
1704,51009;3,16524
1702,45893;3,1641
1700,40778;3,1742
1698,35662;3,21508
1696,30546;3,24678
1694,25431;3,24681
1692,20315;3,2229
1690,152;3,18913
1688,10084;3,16664
1686,04969;3,16492
1683,99853;3,17281
1681,94738;3,17314
1679,89622;3,16538
1677,84507;3,15252
1675,79391;3,13371
1673,74276;3,11599
1671,6916;3,09323
1669,64045;3,05987
1667,58929;3,037
1665,53813;3,02823
1663,48698;3,01754
1661,43582;3,00527
1659,38467;3,00022
1657,33351;2,99824
1655,28236;2,98363
1653,2312;2,95511
1651,18005;2,93779
1649,12889;2,92778
1647,07774;2,91336
1645,02658;2,90495
1642,97543;2,90176
1640,92427;2,89401
1638,87312;2,88055
1636,82196;2,86108
1634,7708;2,84465
1632,71965;2,84256
1630,66849;2,84454
1628,61734;2,84278
1626,56618;2,84107
1624,51503;2,83765
1622,46387;2,83225
1620,41272;2,83202
1618,36156;2,83561
1616,31041;2,84085
1614,25925;2,84456
1612,2081;2,83955
1610,15694;2,82833
1608,10579;2,82103
1606,05463;2,82181
1604,00347;2,82765
1601,95232;2,83453
1599,90116;2,84009
1597,85001;2,84691
1595,79885;2,856
1593,7477;2,86233
1591,69654;2,864
1589,64539;2,86453
1587,59423;2,86537
1585,54308;2,86626
1583,49192;2,86912
1581,44077;2,87537
1579,38961;2,88422
1577,33846;2,89198
1575,2873;2,89402
1573,23614;2,889
1571,18499;2,87977
1569,13383;2,87305
1567,08268;2,87082
1565,03152;2,86959
1562,98037;2,86919
1560,92921;2,86074
1558,87806;2,84207
1556,8269;2,83223
1554,77575;2,83068
1552,72459;2,83327
1550,67344;2,84025
1548,62228;2,84647
1546,57113;2,84518
1544,51997;2,83588
1542,46881;2,82264
1540,41766;2,8114
1538,3665;2,8145
1536,31535;2,8249
1534,26419;2,83092
1532,21304;2,83489
1530,16188;2,83561
1528,11073;2,83178
1526,05957;2,82733
1524,00842;2,82037
1521,95726;2,81231
1519,90611;2,81583
1517,85495;2,82343
1515,80379;2,82177
1513,75264;2,81641
1511,70148;2,81685
1509,65033;2,82173
1507,59917;2,82069
1505,54802;2,81547
1503,49686;2,81288
1501,44571;2,81072
1499,39455;2,8069
1497,3434;2,79904
1495,29224;2,79152
1493,24109;2,79053
1491,18993;2,79176
1489,13878;2,79096
1487,08762;2,78921
1485,03646;2,79029
1482,98531;2,79597
1480,93415;2,80584
1478,883;2,81849
1476,83184;2,83165
1474,78069;2,84409
1472,72953;2,85453
1470,67838;2,86245
1468,62722;2,86656
1466,57607;2,86579
1464,52491;2,8654
1462,47376;2,86913
1460,4226;2,86956
1458,37145;2,8637
1456,32029;2,86024
1454,26913;2,86486
1452,21798;2,87347
1450,16682;2,87875
1448,11567;2,87634
1446,06451;2,87114
1444,01336;2,86807
1441,9622;2,86643
1439,91105;2,86336
1437,85989;2,85883
1435,80874;2,85798
1433,75758;2,86204
1431,70643;2,86987
1429,65527;2,87983
1427,60412;2,88297
1425,55296;2,87367
1423,5018;2,86241
1421,45065;2,85927
1419,39949;2,86017
1417,34834;2,86399
1415,29718;2,87013
1413,24603;2,87022
1411,19487;2,86441
1409,14372;2,8637
1407,09256;2,87141
1405,04141;2,88133
1402,99025;2,89219
1400,9391;2,90659
1398,88794;2,91535
1396,83679;2,90312
1394,78563;2,87964
1392,73447;2,87117
1390,68332;2,87993
1388,63216;2,89073
1386,58101;2,89481
1384,52985;2,89225
1382,4787;2,88867
1380,42754;2,88954
1378,37639;2,89343
1376,32523;2,89191
1374,27408;2,8807
1372,22292;2,8717
1370,17177;2,87579
1368,12061;2,88431
1366,06946;2,88538
1364,0183;2,88163
1361,96714;2,88224
1359,91599;2,89036
1357,86483;2,90113
1355,81368;2,90772
1353,76252;2,9064
1351,71137;2,89926
1349,66021;2,89248
1347,60906;2,89275
1345,5579;2,90121
1343,50675;2,90774
1341,45559;2,90469
1339,40444;2,9033
1337,35328;2,91436
1335,30213;2,92227
1333,25097;2,9125
1331,19981;2,8973
1329,14866;2,88623
1327,0975;2,87578
1325,04635;2,8658
1322,99519;2,85722
1320,94404;2,8538
1318,89288;2,86025
1316,84173;2,87056
1314,79057;2,87356
1312,73942;2,86831
1310,68826;2,86706
1308,63711;2,87368
1306,58595;2,87748
1304,5348;2,87733
1302,48364;2,881
1300,43248;2,88782
1298,38133;2,89567
1296,33017;2,90517
1294,27902;2,9078
1292,22786;2,89997
1290,17671;2,89553
1288,12555;2,90405
1286,0744;2,9164
1284,02324;2,91723
1281,97209;2,90851
1279,92093;2,90523
1277,86978;2,90982
1275,81862;2,91128
1273,76747;2,90435
1271,71631;2,8958
1269,66515;2,895
1267,614;2,90218
1265,56284;2,90593
1263,51169;2,90022
1261,46053;2,89709
1259,40938;2,90797
1257,35822;2,92093
1255,30707;2,92113
1253,25591;2,91435
1251,20476;2,9131
1249,1536;2,92178
1247,10245;2,93256
1245,05129;2,9378
1243,00013;2,93385
1240,94898;2,92081
1238,89782;2,91243
1236,84667;2,91558
1234,79551;2,92053
1232,74436;2,92183
1230,6932;2,91881
1228,64205;2,91383
1226,59089;2,91475
1224,53974;2,91812
1222,48858;2,91373
1220,43743;2,90626
1218,38627;2,90944
1216,33512;2,92015
1214,28396;2,92304
1212,2328;2,91977
1210,18165;2,92117
1208,13049;2,92494
1206,07934;2,92644
1204,02818;2,92568
1201,97703;2,92316
1199,92587;2,92777
1197,87472;2,94032
1195,82356;2,95137
1193,77241;2,95683
1191,72125;2,95548
1189,6701;2,95351
1187,61894;2,95086
1185,56779;2,94797
1183,51663;2,95892
1181,46547;2,98155
1179,41432;2,99303
1177,36316;2,98998
1175,31201;2,98858
1173,26085;2,99074
1171,2097;2,99073
1169,15854;2,98851
1167,10739;2,98566
1165,05623;2,98626
1163,00508;2,99304
1160,95392;3,00302
1158,90277;3,00448
1156,85161;2,99194
1154,80046;2,97491
1152,7493;2,96749
1150,69814;2,97222
1148,64699;2,97285
1146,59583;2,96712
1144,54468;2,96454
1142,49352;2,96454
1140,44237;2,96452
1138,39121;2,95816
1136,34006;2,94683
1134,2889;2,93749
1132,23775;2,9297
1130,18659;2,92094
1128,13544;2,91044
1126,08428;2,90242
1124,03313;2,89432
1121,98197;2,88234
1119,93081;2,87893
1117,87966;2,88048
1115,8285;2,87714
1113,77735;2,87709
1111,72619;2,87837
1109,67504;2,87283
1107,62388;2,8613
1105,57273;2,84579
1103,52157;2,83305
1101,47042;2,83211
1099,41926;2,83696
1097,36811;2,83567
1095,31695;2,82848
1093,2658;2,81873
1091,21464;2,81211
1089,16348;2,80931
1087,11233;2,80116
1085,06117;2,79002
1083,01002;2,78312
1080,95886;2,77694
1078,90771;2,77008
1076,85655;2,76781
1074,8054;2,76724
1072,75424;2,76166
1070,70309;2,75484
1068,65193;2,75143
1066,60078;2,74538
1064,54962;2,73511
1062,49847;2,7269
1060,44731;2,72531
1058,39615;2,7261
1056,345;2,72141
1054,29384;2,71455
1052,24269;2,70967
1050,19153;2,69922
1048,14038;2,68695
1046,08922;2,6829
1044,03807;2,67854
1041,98691;2,6701
1039,93576;2,66782
1037,8846;2,67085
1035,83345;2,66873
1033,78229;2,66348
1031,73114;2,66263
1029,67998;2,66469
1027,62882;2,66364
1025,57767;2,66001
1023,52651;2,6603
1021,47536;2,66418
1019,4242;2,66511
1017,37305;2,66192
1015,32189;2,66756
1013,27074;2,68206
1011,21958;2,68139
1009,16843;2,66897
1007,11727;2,66451
1005,06612;2,66575
1003,01496;2,6678
1000,96381;2,67005
998,91265;2,67196
996,86149;2,67809
994,81034;2,68403
992,75918;2,68418
990,70803;2,68465
988,65687;2,68701
986,60572;2,68621
984,55456;2,68171
982,50341;2,6806
980,45225;2,68421
978,4011;2,68646
976,34994;2,68535
974,29879;2,68548
972,24763;2,69163
970,19647;2,70072
968,14532;2,70791
966,09416;2,71555
964,04301;2,72336
961,99185;2,72234
959,9407;2,71792
957,88954;2,72272
955,83839;2,72675
953,78723;2,72305
951,73608;2,72393
949,68492;2,72978
947,63377;2,73569
945,58261;2,74293
943,53146;2,7515
941,4803;2,75735
939,42914;2,75508
937,37799;2,75211
935,32683;2,75008
933,27568;2,74328
931,22452;2,73763
929,17337;2,73912
927,12221;2,74613
925,07106;2,74757
923,0199;2,74546
920,96875;2,74988
918,91759;2,75815
916,86644;2,76841
914,81528;2,77119
912,76413;2,7627
910,71297;2,75623
908,66181;2,75178
906,61066;2,74385
904,5595;2,73796
902,50835;2,74474
900,45719;2,75451
898,40604;2,74157
896,35488;2,71743
894,30373;2,71019
892,25257;2,7103
890,20142;2,69824
888,15026;2,68775
886,09911;2,69747
884,04795;2,71542
881,9968;2,72047
879,94564;2,71525
877,89448;2,71427
875,84333;2,71581
873,79217;2,71441
871,74102;2,718
869,68986;2,73463
867,63871;2,76437
865,58755;2,79154
863,5364;2,79789
861,48524;2,7904
859,43409;2,7814
857,38293;2,78126
855,33178;2,79669
853,28062;2,81396
851,22947;2,82009
849,17831;2,82119
847,12715;2,82454
845,076;2,82326
843,02484;2,81474
840,97369;2,81124
838,92253;2,80828
836,87138;2,79945
834,82022;2,79524
832,76907;2,79186
830,71791;2,78426
828,66676;2,78223
826,6156;2,79746
824,56445;2,83085
822,51329;2,85228
820,46214;2,83972
818,41098;2,82448
816,35982;2,8243
814,30867;2,81968
812,25751;2,8146
810,20636;2,82
808,1552;2,81503
806,10405;2,80429
804,05289;2,81112
802,00174;2,82896
799,95058;2,83849
797,89943;2,83496
795,84827;2,82613
793,79712;2,81457
791,74596;2,81086
789,69481;2,8164
787,64365;2,81683
785,59249;2,81118
783,54134;2,80381
781,49018;2,79454
779,43903;2,78488
777,38787;2,77935
775,33672;2,77682
773,28556;2,76996
771,23441;2,77451
769,18325;2,8051
767,1321;2,83556
765,08094;2,83605
763,02979;2,82119
760,97863;2,81465
758,92748;2,82644
756,87632;2,84192
754,82516;2,83477
752,77401;2,8173
750,72285;2,80235
748,6717;2,7795
746,62054;2,7567
744,56939;2,75992
742,51823;2,77945
740,46708;2,78419
738,41592;2,78041
736,36477;2,78343
734,31361;2,78221
732,26246;2,7809
730,2113;2,78902
728,16015;2,79001
726,10899;2,78408
724,05783;2,7891
722,00668;2,78505
719,95552;2,76167
717,90437;2,75113
715,85321;2,76166
713,80206;2,76333
711,7509;2,75894
709,69975;2,76613
707,64859;2,76654
705,59744;2,75212
703,54628;2,74457
701,49513;2,75657
699,44397;2,77666
697,39281;2,77709
695,34166;2,75843
693,2905;2,74478
691,23935;2,74026
689,18819;2,7392
687,13704;2,73338
685,08588;2,71327
683,03473;2,68443
680,98357;2,66465
678,93242;2,6642
676,88126;2,67404
674,83011;2,6806
672,77895;2,68174
670,7278;2,68629
668,67664;2,69745
666,62548;2,69794
664,57433;2,67822
662,52317;2,65345
660,47202;2,63663
658,42086;2,62931
656,36971;2,62839
654,31855;2,63277
652,2674;2,64195
650,21624;2,6422
648,16509;2,62417
646,11393;2,60605
644,06278;2,6048
642,01162;2,61661
639,96047;2,62401
637,90931;2,61457
635,85815;2,6047
633,807;2,60679
631,75584;2,60247
629,70469;2,59026
627,65353;2,59216
625,60238;2,60391
623,55122;2,6075
621,50007;2,59745
619,44891;2,58006
617,39776;2,56821
615,3466;2,5634
613,29545;2,54583
611,24429;2,51832
609,19314;2,51096
607,14198;2,52421
605,09082;2,5338
603,03967;2,53688
600,98851;2,53631
598,93736;2,52465
596,8862;2,51975
594,83505;2,53452
592,78389;2,54416
590,73274;2,53801
588,68158;2,53108
586,63043;2,53309
584,57927;2,52755
582,52812;2,50382
580,47696;2,48002
578,42581;2,47238
576,37465;2,47415
574,32349;2,47102
572,27234;2,46719
570,22118;2,47306
568,17003;2,47605
566,11887;2,46544
564,06772;2,45249
562,01656;2,43826
559,96541;2,42166
557,91425;2,42397
555,8631;2,44898
553,81194;2,46222
551,76079;2,44143
549,70963;2,4138
547,65848;2,40722
545,60732;2,41445
543,55616;2,41508
541,50501;2,39983
539,45385;2,3793
537,4027;2,36826
535,35154;2,3693
533,30039;2,37191
531,24923;2,36253
529,19808;2,34742
527,14692;2,33907
525,09577;2,33495
523,04461;2,33184
520,99346;2,33059
518,9423;2,32586
516,89115;2,31336
514,83999;2,30616
512,78883;2,31609
510,73768;2,33247
508,68652;2,34161
506,63537;2,34528
504,58421;2,34566
502,53306;2,33833
500,4819;2,32198
498,43075;2,30178
496,37959;2,28649
494,32844;2,28535
492,27728;2,29156
490,22613;2,28838
488,17497;2,28246
486,12382;2,28512
484,07266;2,28444
482,0215;2,27701
479,97035;2,27306
477,91919;2,26945
475,86804;2,25689
473,81688;2,2383
471,76573;2,22689
469,71457;2,22498
467,66342;2,22411
465,61226;2,2238
463,56111;2,2239
461,50995;2,22506
459,4588;2,22491
457,40764;2,2212
455,35649;2,22279
453,30533;2,22506
451,25417;2,21915
449,20302;2,21152
447,15186;2,20894
445,10071;2,21343
443,04955;2,2221
440,9984;2,22508
438,94724;2,21583
436,89609;2,19896
434,84493;2,19039
432,79378;2,19102
430,74262;2,18948
428,69147;2,18856
426,64031;2,19226
424,58916;2,19573
422,538;2,19147
420,48684;2,17423
418,43569;2,14649
416,38453;2,12101
414,33338;2,12014
412,28222;2,14979
410,23107;2,17892
408,17991;2,18097
406,12876;2,17209
404,0776;2,17252
402,02645;2,17492
399,97529;2,16656
