3997,70175;1,84577
3995,6506;1,84663
3993,59944;1,84801
3991,54829;1,85123
3989,49713;1,85498
3987,44598;1,85678
3985,39482;1,85657
3983,34367;1,85667
3981,29251;1,85887
3979,24136;1,86195
3977,1902;1,86316
3975,13905;1,86286
3973,08789;1,86313
3971,03673;1,86371
3968,98558;1,86461
3966,93442;1,86757
3964,88327;1,87144
3962,83211;1,873
3960,78096;1,87353
3958,7298;1,87652
3956,67865;1,8812
3954,62749;1,88448
3952,57634;1,88586
3950,52518;1,8871
3948,47403;1,88973
3946,42287;1,8936
3944,37172;1,89589
3942,32056;1,8958
3940,2694;1,89496
3938,21825;1,89388
3936,16709;1,89363
3934,11594;1,89356
3932,06478;1,89117
3930,01363;1,88662
3927,96247;1,88219
3925,91132;1,87816
3923,86016;1,87473
3921,80901;1,87168
3919,75785;1,86715
3917,7067;1,86176
3915,65554;1,8583
3913,60439;1,85612
3911,55323;1,85367
3909,50207;1,85307
3907,45092;1,85423
3905,39976;1,854
3903,34861;1,85226
3901,29745;1,85037
3899,2463;1,84959
3897,19514;1,85151
3895,14399;1,85297
3893,09283;1,85169
3891,04168;1,85133
3888,99052;1,85323
3886,93937;1,85166
3884,88821;1,84995
3882,83706;1,85081
3880,7859;1,85
3878,73474;1,85091
3876,68359;1,85208
3874,63243;1,85084
3872,58128;1,85042
3870,53012;1,84915
3868,47897;1,84917
3866,42781;1,8492
3864,37666;1,84676
3862,3255;1,84479
3860,27435;1,84453
3858,22319;1,84597
3856,17204;1,84471
3854,12088;1,83829
3852,06973;1,83508
3850,01857;1,83592
3847,96741;1,83518
3845,91626;1,83391
3843,8651;1,83491
3841,81395;1,83703
3839,76279;1,83585
3837,71164;1,83384
3835,66048;1,8349
3833,60933;1,83482
3831,55817;1,83264
3829,50702;1,83185
3827,45586;1,83189
3825,40471;1,83312
3823,35355;1,83296
3821,3024;1,83154
3819,25124;1,8355
3817,20008;1,83687
3815,14893;1,83466
3813,09777;1,83594
3811,04662;1,83833
3808,99546;1,8378
3806,94431;1,83605
3804,89315;1,83883
3802,842;1,83986
3800,79084;1,83927
3798,73969;1,84104
3796,68853;1,84124
3794,63738;1,84211
3792,58622;1,84348
3790,53506;1,84432
3788,48391;1,84568
3786,43275;1,84713
3784,3816;1,84892
3782,33044;1,85114
3780,27929;1,85204
3778,22813;1,85364
3776,17698;1,85668
3774,12582;1,85962
3772,07467;1,8611
3770,02351;1,86071
3767,97236;1,8616
3765,9212;1,864
3763,87005;1,86778
3761,81889;1,86989
3759,76773;1,86904
3757,71658;1,86959
3755,66542;1,87306
3753,61427;1,8756
3751,56311;1,87614
3749,51196;1,87986
3747,4608;1,88564
3745,40965;1,88666
3743,35849;1,89154
3741,30734;1,90242
3739,25618;1,91074
3737,20503;1,91729
3735,15387;1,92401
3733,10272;1,92892
3731,05156;1,93316
3729,0004;1,9383
3726,94925;1,94176
3724,89809;1,94563
3722,84694;1,95137
3720,79578;1,95803
3718,74463;1,96596
3716,69347;1,97701
3714,64232;1,98952
3712,59116;2,00028
3710,54001;2,01087
3708,48885;2,02315
3706,4377;2,03706
3704,38654;2,05484
3702,33539;2,08175
3700,28423;2,11899
3698,23307;2,15524
3696,18192;2,18117
3694,13076;2,19691
3692,07961;2,20141
3690,02845;2,19375
3687,9773;2,1821
3685,92614;2,17728
3683,87499;2,17986
3681,82383;2,18871
3679,77268;2,20318
3677,72152;2,22021
3675,67037;2,23789
3673,61921;2,25785
3671,56806;2,27443
3669,5169;2,29386
3667,46574;2,3224
3665,41459;2,34952
3663,36343;2,37224
3661,31228;2,39456
3659,26112;2,41856
3657,20997;2,44513
3655,15881;2,47879
3653,10766;2,51926
3651,0565;2,56918
3649,00535;2,63919
3646,95419;2,71421
3644,90304;2,76438
3642,85188;2,78228
3640,80073;2,77834
3638,74957;2,76064
3636,69841;2,7351
3634,64726;2,71248
3632,5961;2,70196
3630,54495;2,70182
3628,49379;2,71207
3626,44264;2,73323
3624,39148;2,75296
3622,34033;2,76607
3620,28917;2,77501
3618,23802;2,78069
3616,18686;2,7786
3614,13571;2,7712
3612,08455;2,77393
3610,0334;2,78692
3607,98224;2,79671
3605,93108;2,80252
3603,87993;2,80807
3601,82877;2,81336
3599,77762;2,81982
3597,72646;2,827
3595,67531;2,83572
3593,62415;2,84588
3591,573;2,85319
3589,52184;2,8572
3587,47069;2,86573
3585,41953;2,87987
3583,36838;2,89169
3581,31722;2,90672
3579,26607;2,93522
3577,21491;2,96304
3575,16375;2,96761
3573,1126;2,95695
3571,06144;2,94708
3569,01029;2,93755
3566,95913;2,93817
3564,90798;2,96103
3562,85682;2,98286
3560,80567;2,97902
3558,75451;2,95919
3556,70336;2,94675
3554,6522;2,94598
3552,60105;2,9425
3550,54989;2,93637
3548,49874;2,94493
3546,44758;2,96631
3544,39642;2,98312
3542,34527;2,98662
3540,29411;2,98068
3538,24296;2,98055
3536,1918;2,98428
3534,14065;2,97261
3532,08949;2,9571
3530,03834;2,95944
3527,98718;2,97457
3525,93603;2,97959
3523,88487;2,97079
3521,83372;2,97265
3519,78256;2,984
3517,73141;2,99126
3515,68025;3,00181
3513,62909;3,01267
3511,57794;3,0184
3509,52678;3,03023
3507,47563;3,04611
3505,42447;3,04411
3503,37332;3,01898
3501,32216;2,98708
3499,27101;2,97195
3497,21985;2,98936
3495,1687;3,01978
3493,11754;3,02872
3491,06639;3,02425
3489,01523;3,02283
3486,96407;3,01797
3484,91292;3,00884
3482,86176;2,99738
3480,81061;2,99218
3478,75945;2,99862
3476,7083;3,00792
3474,65714;3,00782
3472,60599;2,99895
3470,55483;2,9937
3468,50368;2,994
3466,45252;2,99929
3464,40137;3,00861
3462,35021;3,00913
3460,29906;2,99013
3458,2479;2,97505
3456,19674;2,98323
3454,14559;2,99308
3452,09443;2,98996
3450,04328;2,99477
3447,99212;3,01357
3445,94097;3,02517
3443,88981;3,02274
3441,83866;3,01113
3439,7875;3,00015
3437,73635;3,00378
3435,68519;3,01078
3433,63404;3,00941
3431,58288;3,01225
3429,53173;3,01833
3427,48057;3,01362
3425,42941;2,99739
3423,37826;2,97811
3421,3271;2,96984
3419,27595;2,97945
3417,22479;2,99008
3415,17364;2,99363
3413,12248;2,99523
3411,07133;2,98179
3409,02017;2,95884
3406,96902;2,95425
3404,91786;2,96784
3402,86671;2,98027
3400,81555;2,98163
3398,7644;2,97633
3396,71324;2,97509
3394,66208;2,97678
3392,61093;2,97821
3390,55977;2,97811
3388,50862;2,96935
3386,45746;2,9625
3384,40631;2,96915
3382,35515;2,97472
3380,304;2,96729
3378,25284;2,9617
3376,20169;2,96696
3374,15053;2,97184
3372,09938;2,96969
3370,04822;2,96532
3367,99707;2,95741
3365,94591;2,94735
3363,89475;2,95465
3361,8436;2,97567
3359,79244;2,9832
3357,74129;2,97368
3355,69013;2,96012
3353,63898;2,95311
3351,58782;2,96244
3349,53667;2,97393
3347,48551;2,96054
3345,43436;2,93154
3343,3832;2,91645
3341,33205;2,91771
3339,28089;2,92372
3337,22974;2,93404
3335,17858;2,94082
3333,12742;2,93799
3331,07627;2,93989
3329,02511;2,94891
3326,97396;2,94596
3324,9228;2,93152
3322,87165;2,92462
3320,82049;2,93183
3318,76934;2,94232
3316,71818;2,95044
3314,66703;2,96158
3312,61587;2,96824
3310,56472;2,9611
3308,51356;2,94785
3306,46241;2,94131
3304,41125;2,9415
3302,36009;2,94454
3300,30894;2,95217
3298,25778;2,95342
3296,20663;2,93963
3294,15547;2,93093
3292,10432;2,93874
3290,05316;2,94593
3288,00201;2,93321
3285,95085;2,91226
3283,8997;2,906
3281,84854;2,91056
3279,79739;2,91644
3277,74623;2,92081
3275,69508;2,92482
3273,64392;2,93385
3271,59276;2,93918
3269,54161;2,92966
3267,49045;2,91457
3265,4393;2,90347
3263,38814;2,90039
3261,33699;2,90684
3259,28583;2,9068
3257,23468;2,89504
3255,18352;2,89374
3253,13237;2,90498
3251,08121;2,90667
3249,03006;2,89657
3246,9789;2,89102
3244,92775;2,89585
3242,87659;2,89989
3240,82543;2,89693
3238,77428;2,89868
3236,72312;2,90566
3234,67197;2,90449
3232,62081;2,89961
3230,56966;2,901
3228,5185;2,89807
3226,46735;2,8833
3224,41619;2,869
3222,36504;2,86223
3220,31388;2,85984
3218,26273;2,86087
3216,21157;2,86624
3214,16041;2,87123
3212,10926;2,87289
3210,0581;2,87366
3208,00695;2,87184
3205,95579;2,86598
3203,90464;2,86535
3201,85348;2,87393
3199,80233;2,88103
3197,75117;2,87886
3195,70002;2,86938
3193,64886;2,86272
3191,59771;2,86453
3189,54655;2,87183
3187,4954;2,8753
3185,44424;2,86655
3183,39308;2,85664
3181,34193;2,86169
3179,29077;2,87589
3177,23962;2,88449
3175,18846;2,88756
3173,13731;2,88546
3171,08615;2,87207
3169,035;2,85983
3166,98384;2,86347
3164,93269;2,87341
3162,88153;2,87591
3160,83038;2,86898
3158,77922;2,85644
3156,72807;2,84475
3154,67691;2,83591
3152,62575;2,83052
3150,5746;2,82794
3148,52344;2,82507
3146,47229;2,82654
3144,42113;2,83766
3142,36998;2,85212
3140,31882;2,86131
3138,26767;2,86062
3136,21651;2,85147
3134,16536;2,84276
3132,1142;2,84005
3130,06305;2,84033
3128,01189;2,84177
3125,96074;2,84704
3123,90958;2,8496
3121,85842;2,8426
3119,80727;2,83235
3117,75611;2,83087
3115,70496;2,83855
3113,6538;2,84238
3111,60265;2,83726
3109,55149;2,83004
3107,50034;2,82459
3105,44918;2,82173
3103,39803;2,82303
3101,34687;2,82303
3099,29572;2,82088
3097,24456;2,82512
3095,19341;2,83397
3093,14225;2,83623
3091,09109;2,82992
3089,03994;2,82306
3086,98878;2,8187
3084,93763;2,81412
3082,88647;2,81561
3080,83532;2,83026
3078,78416;2,83863
3076,73301;2,82757
3074,68185;2,81435
3072,6307;2,80686
3070,57954;2,80593
3068,52839;2,81419
3066,47723;2,82221
3064,42608;2,82541
3062,37492;2,8313
3060,32376;2,8339
3058,27261;2,82429
3056,22145;2,81502
3054,1703;2,81665
3052,11914;2,81683
3050,06799;2,80842
3048,01683;2,80357
3045,96568;2,80702
3043,91452;2,81384
3041,86337;2,81532
3039,81221;2,80686
3037,76106;2,79729
3035,7099;2,79243
3033,65875;2,7878
3031,60759;2,78174
3029,55643;2,77971
3027,50528;2,78377
3025,45412;2,79321
3023,40297;2,80279
3021,35181;2,80076
3019,30066;2,79008
3017,2495;2,78422
3015,19835;2,78647
3013,14719;2,79183
3011,09604;2,79195
3009,04488;2,78615
3006,99373;2,78041
3004,94257;2,77702
3002,89142;2,78141
3000,84026;2,79554
2998,7891;2,80963
2996,73795;2,81595
2994,68679;2,81417
2992,63564;2,80719
2990,58448;2,80016
2988,53333;2,79878
2986,48217;2,80644
2984,43102;2,81751
2982,37986;2,82883
2980,32871;2,84075
2978,27755;2,84693
2976,2264;2,8375
2974,17524;2,81831
2972,12409;2,81054
2970,07293;2,81681
2968,02177;2,82496
2965,97062;2,83016
2963,91946;2,83118
2961,86831;2,82777
2959,81715;2,82105
2957,766;2,81395
2955,71484;2,81165
2953,66369;2,81166
2951,61253;2,80559
2949,56138;2,79873
2947,51022;2,79876
2945,45907;2,80017
2943,40791;2,7989
2941,35675;2,80182
2939,3056;2,80816
2937,25444;2,80582
2935,20329;2,79737
2933,15213;2,79389
2931,10098;2,79516
2929,04982;2,79185
2926,99867;2,78133
2924,94751;2,77041
2922,89636;2,76675
2920,8452;2,77731
2918,79405;2,79142
2916,74289;2,79333
2914,69174;2,787
2912,64058;2,78175
2910,58942;2,78009
2908,53827;2,77594
2906,48711;2,76953
2904,43596;2,76576
2902,3848;2,76129
2900,33365;2,76059
2898,28249;2,76469
2896,23134;2,76374
2894,18018;2,76096
2892,12903;2,76075
2890,07787;2,75974
2888,02672;2,76149
2885,97556;2,764
2883,92441;2,76048
2881,87325;2,75677
2879,82209;2,76291
2877,77094;2,77462
2875,71978;2,77644
2873,66863;2,77379
2871,61747;2,78012
2869,56632;2,78167
2867,51516;2,77097
2865,46401;2,76116
2863,41285;2,75376
2861,3617;2,74625
2859,31054;2,74328
2857,25939;2,74266
2855,20823;2,74197
2853,15708;2,74169
2851,10592;2,73495
2849,05476;2,72354
2847,00361;2,71408
2844,95245;2,70554
2842,9013;2,70023
2840,85014;2,69609
2838,79899;2,68742
2836,74783;2,67775
2834,69668;2,67037
2832,64552;2,66438
2830,59437;2,66153
2828,54321;2,66048
2826,49206;2,65453
2824,4409;2,64461
2822,38975;2,63733
2820,33859;2,6327
2818,28743;2,62892
2816,23628;2,62783
2814,18512;2,62694
2812,13397;2,62299
2810,08281;2,62092
2808,03166;2,62277
2805,9805;2,62377
2803,92935;2,62143
2801,87819;2,616
2799,82704;2,61077
2797,77588;2,60856
2795,72473;2,60534
2793,67357;2,5987
2791,62242;2,59006
2789,57126;2,58268
2787,5201;2,58067
2785,46895;2,58115
2783,41779;2,57883
2781,36664;2,57337
2779,31548;2,5699
2777,26433;2,57056
2775,21317;2,57084
2773,16202;2,57032
2771,11086;2,56848
2769,05971;2,56277
2767,00855;2,55866
2764,9574;2,5605
2762,90624;2,56107
2760,85509;2,55565
2758,80393;2,55157
2756,75277;2,55405
2754,70162;2,55496
2752,65046;2,54643
2750,59931;2,53587
2748,54815;2,53272
2746,497;2,53423
2744,44584;2,53556
2742,39469;2,53692
2740,34353;2,53618
2738,29238;2,53289
2736,24122;2,5309
2734,19007;2,52975
2732,13891;2,52612
2730,08776;2,52348
2728,0366;2,52614
2725,98544;2,53005
2723,93429;2,53211
2721,88313;2,53162
2719,83198;2,52634
2717,78082;2,52075
2715,72967;2,51799
2713,67851;2,51566
2711,62736;2,51584
2709,5762;2,51779
2707,52505;2,51578
2705,47389;2,51057
2703,42274;2,50625
2701,37158;2,50546
2699,32043;2,50675
2697,26927;2,50433
2695,21811;2,50014
2693,16696;2,50026
2691,1158;2,50111
2689,06465;2,49836
2687,01349;2,49591
2684,96234;2,4968
2682,91118;2,49804
2680,86003;2,49654
2678,80887;2,49365
2676,75772;2,49248
2674,70656;2,49403
2672,65541;2,49418
2670,60425;2,49232
2668,55309;2,49357
2666,50194;2,49639
2664,45078;2,49539
2662,39963;2,49417
2660,34847;2,49587
2658,29732;2,49428
2656,24616;2,4886
2654,19501;2,48464
2652,14385;2,48431
2650,0927;2,48688
2648,04154;2,49202
2645,99039;2,49757
2643,93923;2,50001
2641,88808;2,50086
2639,83692;2,50333
2637,78576;2,50584
2635,73461;2,50792
2633,68345;2,51129
2631,6323;2,51327
2629,58114;2,51365
2627,52999;2,51822
2625,47883;2,52616
2623,42768;2,53209
2621,37652;2,53735
2619,32537;2,54346
2617,27421;2,54809
2615,22306;2,55115
2613,1719;2,55364
2611,12075;2,55612
2609,06959;2,55957
2607,01843;2,56353
2604,96728;2,5669
2602,91612;2,57048
2600,86497;2,57375
2598,81381;2,57582
2596,76266;2,57987
2594,7115;2,58494
2592,66035;2,58683
2590,60919;2,58802
2588,55804;2,58994
2586,50688;2,59185
2584,45573;2,59481
2582,40457;2,59654
2580,35342;2,59768
2578,30226;2,60024
2576,2511;2,59982
2574,19995;2,59668
2572,14879;2,59492
2570,09764;2,59365
2568,04648;2,59329
2565,99533;2,59602
2563,94417;2,59967
2561,89302;2,59996
2559,84186;2,59827
2557,79071;2,59767
2555,73955;2,59865
2553,6884;2,60176
2551,63724;2,603
2549,58609;2,60334
2547,53493;2,60744
2545,48377;2,61234
2543,43262;2,61412
2541,38146;2,61425
2539,33031;2,61928
2537,27915;2,62803
2535,228;2,63513
2533,17684;2,64491
2531,12569;2,65876
2529,07453;2,67169
2527,02338;2,68283
2524,97222;2,69267
2522,92107;2,70042
2520,86991;2,70606
2518,81876;2,70859
2516,7676;2,70924
2514,71644;2,70972
2512,66529;2,70867
2510,61413;2,70834
2508,56298;2,70928
2506,51182;2,70056
2504,46067;2,68427
2502,40951;2,67285
2500,35836;2,66589
2498,3072;2,66067
2496,25605;2,65302
2494,20489;2,63811
2492,15374;2,62138
2490,10258;2,60842
2488,05143;2,59717
2486,00027;2,58377
2483,94911;2,56881
2481,89796;2,5552
2479,8468;2,54254
2477,79565;2,53116
2475,74449;2,52242
2473,69334;2,51459
2471,64218;2,50577
2469,59103;2,49816
2467,53987;2,49316
2465,48872;2,48566
2463,43756;2,47574
2461,38641;2,46762
2459,33525;2,4605
2457,2841;2,45539
2455,23294;2,45194
2453,18178;2,44711
2451,13063;2,44099
2449,07947;2,43525
2447,02832;2,43235
2444,97716;2,43123
2442,92601;2,42763
2440,87485;2,42278
2438,8237;2,42025
2436,77254;2,41862
2434,72139;2,41591
2432,67023;2,41276
2430,61908;2,40838
2428,56792;2,40421
2426,51677;2,40433
2424,46561;2,40617
2422,41445;2,40441
2420,3633;2,40063
2418,31214;2,39818
2416,26099;2,39749
2414,20983;2,39662
2412,15868;2,39386
2410,10752;2,39238
2408,05637;2,3936
2406,00521;2,39476
2403,95406;2,39504
2401,9029;2,39316
2399,85175;2,38941
2397,80059;2,3865
2395,74944;2,38546
2393,69828;2,38558
2391,64712;2,38516
2389,59597;2,38298
2387,54481;2,3811
2385,49366;2,38198
2383,4425;2,38437
2381,39135;2,38591
2379,34019;2,385
2377,28904;2,3814
2375,23788;2,37838
2373,18673;2,37857
2371,13557;2,37912
2369,08442;2,37904
2367,03326;2,38304
2364,9821;2,39113
2362,93095;2,39843
2360,87979;2,40055
2358,82864;2,39639
2356,77748;2,38898
2354,72633;2,37959
2352,67517;2,37403
2350,62402;2,37732
2348,57286;2,37895
2346,52171;2,37309
2344,47055;2,37116
2342,4194;2,37692
2340,36824;2,38087
2338,31709;2,38179
2336,26593;2,38375
2334,21477;2,38633
2332,16362;2,38617
2330,11246;2,38266
2328,06131;2,37945
2326,01015;2,37985
2323,959;2,38274
2321,90784;2,38462
2319,85669;2,38319
2317,80553;2,3788
2315,75438;2,37354
2313,70322;2,37052
2311,65207;2,37229
2309,60091;2,37729
2307,54976;2,38131
2305,4986;2,38264
2303,44744;2,3829
2301,39629;2,38361
2299,34513;2,38418
2297,29398;2,38414
2295,24282;2,38413
2293,19167;2,38381
2291,14051;2,38241
2289,08936;2,37945
2287,0382;2,37551
2284,98705;2,37405
2282,93589;2,37726
2280,88474;2,38177
2278,83358;2,38301
2276,78243;2,38083
2274,73127;2,37821
2272,68011;2,37809
2270,62896;2,38172
2268,5778;2,38699
2266,52665;2,39012
2264,47549;2,38992
2262,42434;2,3881
2260,37318;2,38729
2258,32203;2,38824
2256,27087;2,38908
2254,21972;2,38989
2252,16856;2,39302
2250,11741;2,3981
2248,06625;2,40149
2246,0151;2,40159
2243,96394;2,40097
2241,91278;2,40049
2239,86163;2,40062
2237,81047;2,40226
2235,75932;2,4051
2233,70816;2,40809
2231,65701;2,40984
2229,60585;2,41018
2227,5547;2,41013
2225,50354;2,41079
2223,45239;2,41355
2221,40123;2,4173
2219,35008;2,41931
2217,29892;2,41913
2215,24777;2,41861
2213,19661;2,42041
2211,14545;2,42382
2209,0943;2,42597
2207,04314;2,42655
2204,99199;2,42666
2202,94083;2,42774
2200,88968;2,4302
2198,83852;2,43297
2196,78737;2,43414
2194,73621;2,43323
2192,68506;2,43213
2190,6339;2,43218
2188,58275;2,43325
2186,53159;2,43466
2184,48044;2,43663
2182,42928;2,43843
2180,37812;2,43842
2178,32697;2,43806
2176,27581;2,4392
2174,22466;2,44139
2172,1735;2,44417
2170,12235;2,44853
2168,07119;2,45363
2166,02004;2,45583
2163,96888;2,45661
2161,91773;2,46072
2159,86657;2,46584
2157,81542;2,46664
2155,76426;2,467
2153,71311;2,47238
2151,66195;2,48126
2149,61079;2,48994
2147,55964;2,49518
2145,50848;2,49765
2143,45733;2,49986
2141,40617;2,50128
2139,35502;2,50067
2137,30386;2,4986
2135,25271;2,49688
2133,20155;2,49451
2131,1504;2,49031
2129,09924;2,488
2127,04809;2,48885
2124,99693;2,48829
2122,94578;2,48214
2120,89462;2,47393
2118,84346;2,46961
2116,79231;2,46671
2114,74115;2,46425
2112,69;2,46456
2110,63884;2,46455
2108,58769;2,46292
2106,53653;2,46073
2104,48538;2,45881
2102,43422;2,45946
2100,38307;2,46184
2098,33191;2,46323
2096,28076;2,46336
2094,2296;2,46317
2092,17844;2,464
2090,12729;2,46584
2088,07613;2,46671
2086,02498;2,46656
2083,97382;2,46768
2081,92267;2,46976
2079,87151;2,4708
2077,82036;2,47128
2075,7692;2,472
2073,71805;2,47271
2071,66689;2,47385
2069,61574;2,47553
2067,56458;2,47671
2065,51343;2,4756
2063,46227;2,47378
2061,41111;2,47509
2059,35996;2,47767
2057,3088;2,47833
2055,25765;2,47971
2053,20649;2,48362
2051,15534;2,48625
2049,10418;2,48538
2047,05303;2,48382
2045,00187;2,48383
2042,95072;2,48608
2040,89956;2,48961
2038,84841;2,49124
2036,79725;2,4916
2034,7461;2,49468
2032,69494;2,4984
2030,64378;2,4978
2028,59263;2,49621
2026,54147;2,49964
2024,49032;2,50522
2022,43916;2,50771
2020,38801;2,50776
2018,33685;2,50684
2016,2857;2,50637
2014,23454;2,50735
2012,18339;2,50805
2010,13223;2,50755
2008,08108;2,50682
2006,02992;2,50791
2003,97877;2,51024
2001,92761;2,51217
1999,87645;2,51381
1997,8253;2,51531
1995,77414;2,51664
1993,72299;2,51697
1991,67183;2,51686
1989,62068;2,51723
1987,56952;2,51841
1985,51837;2,52159
1983,46721;2,52449
1981,41606;2,52574
1979,3649;2,52842
1977,31375;2,53378
1975,26259;2,53821
1973,21144;2,54082
1971,16028;2,54391
1969,10912;2,54537
1967,05797;2,54494
1965,00681;2,54833
1962,95566;2,55489
1960,9045;2,55781
1958,85335;2,55573
1956,80219;2,55341
1954,75104;2,55235
1952,69988;2,55159
1950,64873;2,55392
1948,59757;2,55965
1946,54642;2,56333
1944,49526;2,5613
1942,44411;2,55626
1940,39295;2,55441
1938,34179;2,55659
1936,29064;2,56075
1934,23948;2,56504
1932,18833;2,56842
1930,13717;2,57072
1928,08602;2,57218
1926,03486;2,57294
1923,98371;2,5723
1921,93255;2,57179
1919,8814;2,57268
1917,83024;2,57618
1915,77909;2,58073
1913,72793;2,58147
1911,67678;2,58152
1909,62562;2,5849
1907,57446;2,58878
1905,52331;2,58862
1903,47215;2,58687
1901,421;2,58816
1899,36984;2,59106
1897,31869;2,59169
1895,26753;2,59138
1893,21638;2,59414
1891,16522;2,59778
1889,11407;2,60024
1887,06291;2,60379
1885,01176;2,60859
1882,9606;2,61315
1880,90945;2,61615
1878,85829;2,61848
1876,80713;2,62232
1874,75598;2,62869
1872,70482;2,63478
1870,65367;2,63539
1868,60251;2,63349
1866,55136;2,63634
1864,5002;2,6415
1862,44905;2,64423
1860,39789;2,64488
1858,34674;2,64801
1856,29558;2,65485
1854,24443;2,65867
1852,19327;2,657
1850,14212;2,6567
1848,09096;2,66022
1846,0398;2,66122
1843,98865;2,66171
1841,93749;2,67119
1839,88634;2,683
1837,83518;2,6898
1835,78403;2,69463
1833,73287;2,69945
1831,68172;2,70409
1829,63056;2,71232
1827,57941;2,72201
1825,52825;2,72513
1823,4771;2,72665
1821,42594;2,73253
1819,37478;2,74219
1817,32363;2,75507
1815,27247;2,77002
1813,22132;2,78644
1811,17016;2,80191
1809,11901;2,81246
1807,06785;2,82204
1805,0167;2,83998
1802,96554;2,86676
1800,91439;2,89275
1798,86323;2,90974
1796,81208;2,91614
1794,76092;2,91463
1792,70977;2,91079
1790,65861;2,90921
1788,60745;2,9057
1786,5563;2,89767
1784,50514;2,88807
1782,45399;2,87767
1780,40283;2,86728
1778,35168;2,85911
1776,30052;2,85213
1774,24937;2,84644
1772,19821;2,84703
1770,14706;2,85402
1768,0959;2,85801
1766,04475;2,86157
1763,99359;2,86788
1761,94244;2,87365
1759,89128;2,87981
1757,84012;2,88757
1755,78897;2,89835
1753,73781;2,90927
1751,68666;2,91711
1749,6355;2,92569
1747,58435;2,93355
1745,53319;2,9387
1743,48204;2,94433
1741,43088;2,949
1739,37973;2,95237
1737,32857;2,95962
1735,27742;2,96778
1733,22626;2,98012
1731,17511;2,99751
1729,12395;3,00858
1727,07279;3,00985
1725,02164;3,00875
1722,97048;3,01867
1720,91933;3,03625
1718,86817;3,04719
1716,81702;3,0553
1714,76586;3,06326
1712,71471;3,06746
1710,66355;3,07681
1708,6124;3,09839
1706,56124;3,12421
1704,51009;3,13573
1702,45893;3,13023
1700,40778;3,13687
1698,35662;3,16787
1696,30546;3,19448
1694,25431;3,21954
1692,20315;3,23847
1690,152;3,23562
1688,10084;3,22121
1686,04969;3,20354
1683,99853;3,17839
1681,94738;3,15787
1679,89622;3,14287
1677,84507;3,12231
1675,79391;3,09622
1673,74276;3,0788
1671,6916;3,06266
1669,64045;3,03478
1667,58929;3,01152
1665,53813;2,99635
1663,48698;2,97423
1661,43582;2,94787
1659,38467;2,93059
1657,33351;2,92345
1655,28236;2,91184
1653,2312;2,88745
1651,18005;2,87157
1649,12889;2,86304
1647,07774;2,85253
1645,02658;2,84647
1642,97543;2,8411
1640,92427;2,83163
1638,87312;2,81848
1636,82196;2,80351
1634,7708;2,79832
1632,71965;2,80486
1630,66849;2,80793
1628,61734;2,80464
1626,56618;2,80158
1624,51503;2,79766
1622,46387;2,79414
1620,41272;2,79401
1618,36156;2,78908
1616,31041;2,78042
1614,25925;2,77939
1612,2081;2,7829
1610,15694;2,78467
1608,10579;2,78618
1606,05463;2,78932
1604,00347;2,79245
1601,95232;2,79486
1599,90116;2,79738
1597,85001;2,79992
1595,79885;2,80209
1593,7477;2,80513
1591,69654;2,81
1589,64539;2,81631
1587,59423;2,82165
1585,54308;2,82241
1583,49192;2,82099
1581,44077;2,82304
1579,38961;2,82603
1577,33846;2,82522
1575,2873;2,82656
1573,23614;2,82757
1571,18499;2,81795
1569,13383;2,8061
1567,08268;2,80238
1565,03152;2,8041
1562,98037;2,80534
1560,92921;2,79241
1558,87806;2,76913
1556,8269;2,76052
1554,77575;2,75981
1552,72459;2,75652
1550,67344;2,74512
1548,62228;2,73124
1546,57113;2,7256
1544,51997;2,72409
1542,46881;2,71203
1540,41766;2,68895
1538,3665;2,68242
1536,31535;2,68819
1534,26419;2,68576
1532,21304;2,68213
1530,16188;2,68356
1528,11073;2,68417
1526,05957;2,68207
1524,00842;2,6763
1521,95726;2,66969
1519,90611;2,67012
1517,85495;2,66733
1515,80379;2,65937
1513,75264;2,65605
1511,70148;2,65326
1509,65033;2,64413
1507,59917;2,62803
1505,54802;2,61844
1503,49686;2,61783
1501,44571;2,61349
1499,39455;2,60448
1497,3434;2,59664
1495,29224;2,59622
1493,24109;2,60017
1491,18993;2,59929
1489,13878;2,59592
1487,08762;2,59645
1485,03646;2,60269
1482,98531;2,61192
1480,93415;2,61939
1478,883;2,62531
1476,83184;2,63428
1474,78069;2,64681
1472,72953;2,65879
1470,67838;2,67089
1468,62722;2,681
1466,57607;2,68771
1464,52491;2,69552
1462,47376;2,70522
1460,4226;2,71163
1458,37145;2,71321
1456,32029;2,7149
1454,26913;2,71886
1452,21798;2,72187
1450,16682;2,724
1448,11567;2,72378
1446,06451;2,72031
1444,01336;2,7165
1441,9622;2,71636
1439,91105;2,71682
1437,85989;2,71232
1435,80874;2,70807
1433,75758;2,70532
1431,70643;2,69973
1429,65527;2,69629
1427,60412;2,69683
1425,55296;2,69507
1423,5018;2,69246
1421,45065;2,69143
1419,39949;2,68683
1417,34834;2,68202
1415,29718;2,67783
1413,24603;2,67055
1411,19487;2,66546
1409,14372;2,66908
1407,09256;2,6785
1405,04141;2,68795
1402,99025;2,69429
1400,9391;2,69507
1398,88794;2,69698
1396,83679;2,70696
1394,78563;2,7195
1392,73447;2,72917
1390,68332;2,73455
1388,63216;2,73777
1386,58101;2,74098
1384,52985;2,74266
1382,4787;2,7454
1380,42754;2,75344
1378,37639;2,76309
1376,32523;2,77034
1374,27408;2,77727
1372,22292;2,78456
1370,17177;2,78629
1368,12061;2,78108
1366,06946;2,77566
1364,0183;2,77399
1361,96714;2,7766
1359,91599;2,78263
1357,86483;2,78773
1355,81368;2,78791
1353,76252;2,78466
1351,71137;2,7838
1349,66021;2,78701
1347,60906;2,79128
1345,5579;2,79704
1343,50675;2,80564
1341,45559;2,81032
1339,40444;2,80685
1337,35328;2,80304
1335,30213;2,80266
1333,25097;2,80393
1331,19981;2,80795
1329,14866;2,81066
1327,0975;2,80462
1325,04635;2,79226
1322,99519;2,78473
1320,94404;2,78578
1318,89288;2,78783
1316,84173;2,78676
1314,79057;2,786
1312,73942;2,78792
1310,68826;2,78904
1308,63711;2,79046
1306,58595;2,79827
1304,5348;2,80768
1302,48364;2,81165
1300,43248;2,8119
1298,38133;2,81003
1296,33017;2,80553
1294,27902;2,80451
1292,22786;2,80976
1290,17671;2,81507
1288,12555;2,81936
1286,0744;2,82101
1284,02324;2,81894
1281,97209;2,81822
1279,92093;2,81931
1277,86978;2,81948
1275,81862;2,81712
1273,76747;2,81474
1271,71631;2,81916
1269,66515;2,82741
1267,614;2,83142
1265,56284;2,83325
1263,51169;2,83221
1261,46053;2,82721
1259,40938;2,82565
1257,35822;2,82814
1255,30707;2,82847
1253,25591;2,82844
1251,20476;2,83228
1249,1536;2,83478
1247,10245;2,83271
1245,05129;2,83144
1243,00013;2,8307
1240,94898;2,82839
1238,89782;2,82977
1236,84667;2,83762
1234,79551;2,84362
1232,74436;2,83901
1230,6932;2,82783
1228,64205;2,82156
1226,59089;2,82497
1224,53974;2,83348
1222,48858;2,83872
1220,43743;2,83253
1218,38627;2,8222
1216,33512;2,82212
1214,28396;2,82623
1212,2328;2,82638
1210,18165;2,82838
1208,13049;2,83072
1206,07934;2,83043
1204,02818;2,83325
1201,97703;2,83958
1199,92587;2,84938
1197,87472;2,86195
1195,82356;2,86555
1193,77241;2,85954
1191,72125;2,85234
1189,6701;2,84971
1187,61894;2,85542
1185,56779;2,86834
1183,51663;2,88539
1181,46547;2,8933
1179,41432;2,89045
1177,36316;2,89409
1175,31201;2,89861
1173,26085;2,89735
1171,2097;2,90286
1169,15854;2,91291
1167,10739;2,91945
1165,05623;2,92263
1163,00508;2,91986
1160,95392;2,91498
1158,90277;2,91245
1156,85161;2,91445
1154,80046;2,92315
1152,7493;2,92788
1150,69814;2,92401
1148,64699;2,91927
1146,59583;2,91559
1144,54468;2,91227
1142,49352;2,91004
1140,44237;2,90629
1138,39121;2,90374
1136,34006;2,90742
1134,2889;2,91088
1132,23775;2,91321
1130,18659;2,91095
1128,13544;2,90379
1126,08428;2,89958
1124,03313;2,89369
1121,98197;2,88576
1119,93081;2,88461
1117,87966;2,892
1115,8285;2,89753
1113,77735;2,89558
1111,72619;2,89164
1109,67504;2,88924
1107,62388;2,88496
1105,57273;2,8724
1103,52157;2,85992
1101,47042;2,85168
1099,41926;2,84489
1097,36811;2,8471
1095,31695;2,8538
1093,2658;2,8559
1091,21464;2,85504
1089,16348;2,84964
1087,11233;2,84128
1085,06117;2,83689
1083,01002;2,83439
1080,95886;2,82531
1078,90771;2,81053
1076,85655;2,80242
1074,8054;2,80564
1072,75424;2,81357
1070,70309;2,81897
1068,65193;2,82157
1066,60078;2,82054
1064,54962;2,81388
1062,49847;2,80861
1060,44731;2,80517
1058,39615;2,79831
1056,345;2,78797
1054,29384;2,77562
1052,24269;2,76692
1050,19153;2,76587
1048,14038;2,76988
1046,08922;2,77419
1044,03807;2,77405
1041,98691;2,76575
1039,93576;2,75721
1037,8846;2,75914
1035,83345;2,76263
1033,78229;2,75804
1031,73114;2,75027
1029,67998;2,75018
1027,62882;2,7562
1025,57767;2,75652
1023,52651;2,75307
1021,47536;2,74986
1019,4242;2,74966
1017,37305;2,75127
1015,32189;2,74191
1013,27074;2,72957
1011,21958;2,73724
1009,16843;2,75478
1007,11727;2,75749
1005,06612;2,75137
1003,01496;2,74956
1000,96381;2,75034
998,91265;2,75062
996,86149;2,74629
994,81034;2,73782
992,75918;2,73641
990,70803;2,74338
988,65687;2,74699
986,60572;2,74562
984,55456;2,74692
982,50341;2,74627
980,45225;2,73585
978,4011;2,72563
976,34994;2,72653
974,29879;2,73513
972,24763;2,74595
970,19647;2,7521
968,14532;2,74814
966,09416;2,74205
964,04301;2,74135
961,99185;2,74754
959,9407;2,75797
957,88954;2,75937
955,83839;2,75327
953,78723;2,75749
951,73608;2,7715
949,68492;2,77949
947,63377;2,77485
945,58261;2,76505
943,53146;2,76192
941,4803;2,7678
939,42914;2,77683
937,37799;2,78683
935,32683;2,79442
933,27568;2,79029
931,22452;2,77791
929,17337;2,7692
927,12221;2,76403
925,07106;2,76255
923,0199;2,76758
920,96875;2,77639
918,91759;2,78295
916,86644;2,78326
914,81528;2,78343
912,76413;2,78786
910,71297;2,78978
908,66181;2,7829
906,61066;2,77579
904,5595;2,77365
902,50835;2,76397
900,45719;2,74946
898,40604;2,74307
896,35488;2,7468
894,30373;2,75377
892,25257;2,74811
890,20142;2,7238
888,15026;2,69934
886,09911;2,68878
884,04795;2,68947
881,9968;2,68585
879,94564;2,671
877,89448;2,66734
875,84333;2,67955
873,79217;2,68504
871,74102;2,69441
869,68986;2,73278
867,63871;2,77862
865,58755;2,79961
863,5364;2,80988
861,48524;2,82165
859,43409;2,82544
857,38293;2,823
855,33178;2,82078
853,28062;2,81957
851,22947;2,82606
849,17831;2,84733
847,12715;2,85969
845,076;2,84951
843,02484;2,84718
840,97369;2,86072
838,92253;2,85698
836,87138;2,83411
834,82022;2,823
832,76907;2,83193
830,71791;2,84189
828,66676;2,83512
826,6156;2,83319
824,56445;2,84299
822,51329;2,84292
820,46214;2,84128
818,41098;2,84343
816,35982;2,84313
814,30867;2,84117
812,25751;2,84059
810,20636;2,83953
808,1552;2,84196
806,10405;2,85616
804,05289;2,86474
802,00174;2,85893
799,95058;2,85744
797,89943;2,86905
795,84827;2,88324
793,79712;2,89174
791,74596;2,87936
789,69481;2,85662
787,64365;2,84457
785,59249;2,83934
783,54134;2,829
781,49018;2,81914
779,43903;2,81486
777,38787;2,81621
775,33672;2,83286
773,28556;2,86835
771,23441;2,88096
769,18325;2,85581
767,1321;2,84732
765,08094;2,86998
763,02979;2,88451
760,97863;2,88027
758,92748;2,87586
756,87632;2,87427
754,82516;2,87441
752,77401;2,87562
750,72285;2,86881
748,6717;2,85964
746,62054;2,85384
744,56939;2,83959
742,51823;2,81857
740,46708;2,8124
738,41592;2,82986
736,36477;2,84509
734,31361;2,83416
732,26246;2,81993
730,2113;2,8186
728,16015;2,82154
726,10899;2,83036
724,05783;2,83773
722,00668;2,8354
719,95552;2,83711
717,90437;2,84721
715,85321;2,85395
713,80206;2,85752
711,7509;2,85641
709,69975;2,84549
707,64859;2,83431
705,59744;2,83515
703,54628;2,83458
701,49513;2,81802
699,44397;2,80349
697,39281;2,81179
695,34166;2,83702
693,2905;2,85725
691,23935;2,85795
689,18819;2,83531
687,13704;2,80473
685,08588;2,78967
683,03473;2,78785
680,98357;2,78627
678,93242;2,78746
676,88126;2,79145
674,83011;2,78456
672,77895;2,76371
670,7278;2,73642
668,67664;2,71654
666,62548;2,7206
664,57433;2,73212
662,52317;2,73895
660,47202;2,73928
658,42086;2,72562
656,36971;2,7138
654,31855;2,7241
652,2674;2,74128
650,21624;2,74046
648,16509;2,72722
646,11393;2,71226
644,06278;2,69092
642,01162;2,66561
639,96047;2,65538
637,90931;2,67143
635,85815;2,69827
633,807;2,70907
631,75584;2,69841
629,70469;2,68939
627,65353;2,69529
625,60238;2,68679
623,55122;2,6628
621,50007;2,65468
619,44891;2,67554
617,39776;2,69234
615,3466;2,67424
613,29545;2,64832
611,24429;2,63672
609,19314;2,63112
607,14198;2,62906
605,09082;2,63703
603,03967;2,63897
600,98851;2,62307
598,93736;2,61645
596,8862;2,62571
594,83505;2,63207
592,78389;2,64201
590,73274;2,66393
588,68158;2,67205
586,63043;2,64948
584,57927;2,61556
582,52812;2,59989
580,47696;2,61043
578,42581;2,61515
576,37465;2,59751
574,32349;2,58704
572,27234;2,5866
570,22118;2,58212
568,17003;2,59088
566,11887;2,61834
564,06772;2,62968
562,01656;2,6236
559,96541;2,61688
557,91425;2,60283
555,8631;2,58115
553,81194;2,55211
551,76079;2,53621
549,70963;2,54716
547,65848;2,55998
545,60732;2,56614
543,55616;2,57249
541,50501;2,56552
539,45385;2,54425
537,4027;2,52547
535,35154;2,52649
533,30039;2,54303
531,24923;2,54282
529,19808;2,52345
527,14692;2,51039
525,09577;2,52012
523,04461;2,53728
520,99346;2,52428
518,9423;2,48797
516,89115;2,46764
514,83999;2,47347
512,78883;2,48601
510,73768;2,49781
508,68652;2,51444
506,63537;2,52281
504,58421;2,51589
502,53306;2,50913
500,4819;2,50487
498,43075;2,49744
496,37959;2,48488
494,32844;2,47045
492,27728;2,47379
490,22613;2,49191
488,17497;2,48521
486,12382;2,44815
484,07266;2,42154
482,0215;2,42423
479,97035;2,43907
477,91919;2,44008
475,86804;2,4273
473,81688;2,42857
471,76573;2,44451
469,71457;2,44099
467,66342;2,41298
465,61226;2,39465
463,56111;2,39407
461,50995;2,38287
459,4588;2,36767
457,40764;2,38548
455,35649;2,41572
453,30533;2,421
451,25417;2,41492
449,20302;2,40474
447,15186;2,3834
445,10071;2,35535
443,04955;2,32319
440,9984;2,30799
438,94724;2,32499
436,89609;2,34687
434,84493;2,35532
432,79378;2,35493
430,74262;2,34087
428,69147;2,33294
426,64031;2,35232
424,58916;2,37319
422,538;2,37755
420,48684;2,37771
418,43569;2,36844
416,38453;2,33254
414,33338;2,28123
412,28222;2,26464
410,23107;2,29957
408,17991;2,3372
406,12876;2,34937
404,0776;2,34196
402,02645;2,30909
399,97529;2,26424
