3997,70175;1,86717
3995,6506;1,86807
3993,59944;1,87139
3991,54829;1,87486
3989,49713;1,87612
3987,44598;1,87609
3985,39482;1,87704
3983,34367;1,8786
3981,29251;1,8794
3979,24136;1,87992
3977,1902;1,88125
3975,13905;1,88368
3973,08789;1,88584
3971,03673;1,8866
3968,98558;1,88725
3966,93442;1,88929
3964,88327;1,89199
3962,83211;1,89387
3960,78096;1,89559
3958,7298;1,89872
3956,67865;1,90291
3954,62749;1,90626
3952,57634;1,90795
3950,52518;1,90885
3948,47403;1,90979
3946,42287;1,91092
3944,37172;1,91121
3942,32056;1,91088
3940,2694;1,91068
3938,21825;1,90972
3936,16709;1,90805
3934,11594;1,90581
3932,06478;1,90285
3930,01363;1,90001
3927,96247;1,89819
3925,91132;1,89616
3923,86016;1,89278
3921,80901;1,88857
3919,75785;1,8837
3917,7067;1,87802
3915,65554;1,87268
3913,60439;1,86927
3911,55323;1,86804
3909,50207;1,86827
3907,45092;1,8681
3905,39976;1,86656
3903,34861;1,86456
3901,29745;1,86184
3899,2463;1,85845
3897,19514;1,85646
3895,14399;1,8551
3893,09283;1,85381
3891,04168;1,85539
3888,99052;1,85957
3886,93937;1,86049
3884,88821;1,85951
3882,83706;1,85891
3880,7859;1,8566
3878,73474;1,8554
3876,68359;1,8551
3874,63243;1,85467
3872,58128;1,85505
3870,53012;1,85348
3868,47897;1,85222
3866,42781;1,85124
3864,37666;1,84929
3862,3255;1,84851
3860,27435;1,84861
3858,22319;1,84888
3856,17204;1,84672
3854,12088;1,84152
3852,06973;1,83889
3850,01857;1,83822
3847,96741;1,83727
3845,91626;1,8369
3843,8651;1,83694
3841,81395;1,83685
3839,76279;1,83518
3837,71164;1,83366
3835,66048;1,83455
3833,60933;1,83511
3831,55817;1,83456
3829,50702;1,83419
3827,45586;1,83393
3825,40471;1,83518
3823,35355;1,83501
3821,3024;1,83272
3819,25124;1,83394
3817,20008;1,83459
3815,14893;1,83437
3813,09777;1,83601
3811,04662;1,8375
3808,99546;1,83796
3806,94431;1,8388
3804,89315;1,84134
3802,842;1,84073
3800,79084;1,84016
3798,73969;1,84265
3796,68853;1,84315
3794,63738;1,84279
3792,58622;1,842
3790,53506;1,84095
3788,48391;1,84095
3786,43275;1,84086
3784,3816;1,841
3782,33044;1,84291
3780,27929;1,8446
3778,22813;1,8454
3776,17698;1,8462
3774,12582;1,84735
3772,07467;1,84844
3770,02351;1,84932
3767,97236;1,85127
3765,9212;1,85302
3763,87005;1,85481
3761,81889;1,8567
3759,76773;1,85912
3757,71658;1,86302
3755,66542;1,86647
3753,61427;1,86727
3751,56311;1,86758
3749,51196;1,87184
3747,4608;1,87711
3745,40965;1,87865
3743,35849;1,88329
3741,30734;1,89102
3739,25618;1,89507
3737,20503;1,89651
3735,15387;1,89873
3733,10272;1,90165
3731,05156;1,90441
3729,0004;1,90798
3726,94925;1,91243
3724,89809;1,91825
3722,84694;1,92311
3720,79578;1,92614
3718,74463;1,92906
3716,69347;1,93336
3714,64232;1,93817
3712,59116;1,94278
3710,54001;1,94956
3708,48885;1,95902
3706,4377;1,97049
3704,38654;1,98557
3702,33539;2,00849
3700,28423;2,04132
3698,23307;2,07626
3696,18192;2,1033
3694,13076;2,11783
3692,07961;2,11989
3690,02845;2,11321
3687,9773;2,10451
3685,92614;2,09987
3683,87499;2,09954
3681,82383;2,10346
3679,77268;2,11139
3677,72152;2,1221
3675,67037;2,13766
3673,61921;2,15781
3671,56806;2,17283
3669,5169;2,18824
3667,46574;2,21071
3665,41459;2,23184
3663,36343;2,24885
3661,31228;2,26675
3659,26112;2,28839
3657,20997;2,311
3655,15881;2,33414
3653,10766;2,35806
3651,0565;2,38706
3649,00535;2,43051
3646,95419;2,47923
3644,90304;2,51312
3642,85188;2,528
3640,80073;2,53088
3638,74957;2,52623
3636,69841;2,51579
3634,64726;2,50359
3632,5961;2,49711
3630,54495;2,49945
3628,49379;2,51057
3626,44264;2,52698
3624,39148;2,53872
3622,34033;2,54121
3620,28917;2,53858
3618,23802;2,54109
3616,18686;2,54926
3614,13571;2,55582
3612,08455;2,56091
3610,0334;2,56797
3607,98224;2,58234
3605,93108;2,60113
3603,87993;2,61013
3601,82877;2,60805
3599,77762;2,60765
3597,72646;2,61298
3595,67531;2,61407
3593,62415;2,61044
3591,573;2,61258
3589,52184;2,62272
3587,47069;2,64002
3585,41953;2,65742
3583,36838;2,66438
3581,31722;2,66464
3579,26607;2,66571
3577,21491;2,66983
3575,16375;2,67776
3573,1126;2,68767
3571,06144;2,6917
3569,01029;2,6848
3566,95913;2,67882
3564,90798;2,68717
3562,85682;2,69964
3560,80567;2,70419
3558,75451;2,70368
3556,70336;2,70396
3554,6522;2,70744
3552,60105;2,71523
3550,54989;2,72599
3548,49874;2,7338
3546,44758;2,73676
3544,39642;2,73698
3542,34527;2,73252
3540,29411;2,72563
3538,24296;2,72079
3536,1918;2,71739
3534,14065;2,71653
3532,08949;2,72127
3530,03834;2,72837
3527,98718;2,7325
3525,93603;2,73438
3523,88487;2,73562
3521,83372;2,73849
3519,78256;2,74656
3517,73141;2,75514
3515,68025;2,7579
3513,62909;2,7576
3511,57794;2,75728
3509,52678;2,75656
3507,47563;2,75472
3505,42447;2,75238
3503,37332;2,75285
3501,32216;2,75593
3499,27101;2,75811
3497,21985;2,76126
3495,1687;2,76884
3493,11754;2,77584
3491,06639;2,77941
3489,01523;2,7823
3486,96407;2,7817
3484,91292;2,77371
3482,86176;2,76661
3480,81061;2,77032
3478,75945;2,77594
3476,7083;2,77358
3474,65714;2,77344
3472,60599;2,78163
3470,55483;2,78557
3468,50368;2,78001
3466,45252;2,77533
3464,40137;2,77745
3462,35021;2,78198
3460,29906;2,78347
3458,2479;2,78396
3456,19674;2,78877
3454,14559;2,79317
3452,09443;2,78928
3450,04328;2,78262
3447,99212;2,78175
3445,94097;2,78704
3443,88981;2,78936
3441,83866;2,7858
3439,7875;2,78677
3437,73635;2,79035
3435,68519;2,78409
3433,63404;2,7757
3431,58288;2,78497
3429,53173;2,803
3427,48057;2,80193
3425,42941;2,78471
3423,37826;2,77255
3421,3271;2,76993
3419,27595;2,77417
3417,22479;2,78122
3415,17364;2,78504
3413,12248;2,78495
3411,07133;2,78124
3409,02017;2,77309
3406,96902;2,76518
3404,91786;2,76724
3402,86671;2,77512
3400,81555;2,77954
3398,7644;2,78531
3396,71324;2,79123
3394,66208;2,78955
3392,61093;2,77956
3390,55977;2,76964
3388,50862;2,77008
3386,45746;2,78071
3384,40631;2,7876
3382,35515;2,78487
3380,304;2,78846
3378,25284;2,79794
3376,20169;2,79292
3374,15053;2,78008
3372,09938;2,77994
3370,04822;2,7864
3367,99707;2,7885
3365,94591;2,79182
3363,89475;2,79732
3361,8436;2,79806
3359,79244;2,79245
3357,74129;2,78246
3355,69013;2,77697
3353,63898;2,78052
3351,58782;2,78024
3349,53667;2,77338
3347,48551;2,77274
3345,43436;2,77396
3343,3832;2,76776
3341,33205;2,76585
3339,28089;2,77343
3337,22974;2,77991
3335,17858;2,78167
3333,12742;2,78163
3331,07627;2,7802
3329,02511;2,778
3326,97396;2,77696
3324,9228;2,77342
3322,87165;2,76781
3320,82049;2,76693
3318,76934;2,76891
3316,71818;2,77052
3314,66703;2,77359
3312,61587;2,77789
3310,56472;2,78135
3308,51356;2,78168
3306,46241;2,77975
3304,41125;2,78215
3302,36009;2,78944
3300,30894;2,79146
3298,25778;2,78174
3296,20663;2,76955
3294,15547;2,76629
3292,10432;2,76499
3290,05316;2,7618
3288,00201;2,76243
3285,95085;2,76281
3283,8997;2,76081
3281,84854;2,76112
3279,79739;2,76011
3277,74623;2,75085
3275,69508;2,73723
3273,64392;2,72953
3271,59276;2,73638
3269,54161;2,75522
3267,49045;2,76562
3265,4393;2,75629
3263,38814;2,74479
3261,33699;2,74406
3259,28583;2,7482
3257,23468;2,75095
3255,18352;2,75003
3253,13237;2,7455
3251,08121;2,73891
3249,03006;2,72869
3246,9789;2,71877
3244,92775;2,71626
3242,87659;2,71712
3240,82543;2,71578
3238,77428;2,71894
3236,72312;2,72535
3234,67197;2,72068
3232,62081;2,70996
3230,56966;2,7092
3228,5185;2,71516
3226,46735;2,71815
3224,41619;2,71698
3222,36504;2,71459
3220,31388;2,71454
3218,26273;2,71393
3216,21157;2,71122
3214,16041;2,71327
3212,10926;2,71985
3210,0581;2,72134
3208,00695;2,71409
3205,95579;2,70531
3203,90464;2,70122
3201,85348;2,69926
3199,80233;2,69696
3197,75117;2,69663
3195,70002;2,69888
3193,64886;2,69735
3191,59771;2,68821
3189,54655;2,68204
3187,4954;2,68435
3185,44424;2,68542
3183,39308;2,68345
3181,34193;2,68321
3179,29077;2,68495
3177,23962;2,68682
3175,18846;2,68635
3173,13731;2,68375
3171,08615;2,67991
3169,035;2,67614
3166,98384;2,67328
3164,93269;2,67247
3162,88153;2,67405
3160,83038;2,67459
3158,77922;2,67213
3156,72807;2,6677
3154,67691;2,66347
3152,62575;2,66183
3150,5746;2,65934
3148,52344;2,655
3146,47229;2,65593
3144,42113;2,66014
3142,36998;2,65963
3140,31882;2,65601
3138,26767;2,65616
3136,21651;2,65951
3134,16536;2,65771
3132,1142;2,65048
3130,06305;2,64585
3128,01189;2,64543
3125,96074;2,64887
3123,90958;2,65258
3121,85842;2,65003
3119,80727;2,6485
3117,75611;2,65144
3115,70496;2,65189
3113,6538;2,65048
3111,60265;2,64931
3109,55149;2,64738
3107,50034;2,64338
3105,44918;2,63912
3103,39803;2,63838
3101,34687;2,64056
3099,29572;2,64269
3097,24456;2,64216
3095,19341;2,63536
3093,14225;2,62412
3091,09109;2,61822
3089,03994;2,62484
3086,98878;2,63713
3084,93763;2,64118
3082,88647;2,63837
3080,83532;2,63524
3078,78416;2,62963
3076,73301;2,623
3074,68185;2,62078
3072,6307;2,62356
3070,57954;2,62738
3068,52839;2,62913
3066,47723;2,62662
3064,42608;2,62
3062,37492;2,61544
3060,32376;2,61848
3058,27261;2,62659
3056,22145;2,63077
3054,1703;2,62554
3052,11914;2,61685
3050,06799;2,6138
3048,01683;2,61592
3045,96568;2,61581
3043,91452;2,61422
3041,86337;2,61349
3039,81221;2,61247
3037,76106;2,61504
3035,7099;2,61638
3033,65875;2,61039
3031,60759;2,60327
3029,55643;2,59683
3027,50528;2,59056
3025,45412;2,58875
3023,40297;2,5915
3021,35181;2,59454
3019,30066;2,59488
3017,2495;2,59407
3015,19835;2,59339
3013,14719;2,5905
3011,09604;2,58704
3009,04488;2,58609
3006,99373;2,58772
3004,94257;2,59468
3002,89142;2,60434
3000,84026;2,60626
2998,7891;2,60206
2996,73795;2,60238
2994,68679;2,60817
2992,63564;2,6166
2990,58448;2,62459
2988,53333;2,6315
2986,48217;2,63965
2984,43102;2,6449
2982,37986;2,645
2980,32871;2,64608
2978,27755;2,65054
2976,2264;2,65569
2974,17524;2,65701
2972,12409;2,6533
2970,07293;2,65014
2968,02177;2,65238
2965,97062;2,65892
2963,91946;2,6646
2961,86831;2,66279
2959,81715;2,65215
2957,766;2,64321
2955,71484;2,64394
2953,66369;2,64668
2951,61253;2,64318
2949,56138;2,63618
2947,51022;2,63067
2945,45907;2,62925
2943,40791;2,6309
2941,35675;2,63225
2939,3056;2,63421
2937,25444;2,63933
2935,20329;2,64349
2933,15213;2,64092
2931,10098;2,63483
2929,04982;2,63033
2926,99867;2,62506
2924,94751;2,61857
2922,89636;2,61667
2920,8452;2,61816
2918,79405;2,61696
2916,74289;2,61191
2914,69174;2,60456
2912,64058;2,60008
2910,58942;2,60054
2908,53827;2,60248
2906,48711;2,60515
2904,43596;2,60377
2902,3848;2,59606
2900,33365;2,59049
2898,28249;2,59031
2896,23134;2,59174
2894,18018;2,59189
2892,12903;2,5902
2890,07787;2,58964
2888,02672;2,5908
2885,97556;2,59199
2883,92441;2,59315
2881,87325;2,59517
2879,82209;2,60215
2877,77094;2,6119
2875,71978;2,61632
2873,66863;2,61549
2871,61747;2,61263
2869,56632;2,60996
2867,51516;2,60469
2865,46401;2,59233
2863,41285;2,58105
2861,3617;2,57811
2859,31054;2,57808
2857,25939;2,57541
2855,20823;2,57203
2853,15708;2,56916
2851,10592;2,56265
2849,05476;2,55236
2847,00361;2,54227
2844,95245;2,53487
2842,9013;2,52821
2840,85014;2,51932
2838,79899;2,51419
2836,74783;2,51523
2834,69668;2,51459
2832,64552;2,50866
2830,59437;2,49942
2828,54321;2,4907
2826,49206;2,48345
2824,4409;2,47645
2822,38975;2,47096
2820,33859;2,46853
2818,28743;2,46628
2816,23628;2,45866
2814,18512;2,44888
2812,13397;2,44328
2810,08281;2,44072
2808,03166;2,4393
2805,9805;2,43904
2803,92935;2,43766
2801,87819;2,43518
2799,82704;2,43335
2797,77588;2,43019
2795,72473;2,42513
2793,67357;2,42052
2791,62242;2,41728
2789,57126;2,41511
2787,5201;2,41393
2785,46895;2,41192
2783,41779;2,40881
2781,36664;2,40672
2779,31548;2,40343
2777,26433;2,39773
2775,21317;2,3937
2773,16202;2,39184
2771,11086;2,39007
2769,05971;2,39098
2767,00855;2,39178
2764,9574;2,3861
2762,90624;2,37941
2760,85509;2,37846
2758,80393;2,37911
2756,75277;2,37546
2754,70162;2,37033
2752,65046;2,36901
2750,59931;2,36984
2748,54815;2,36957
2746,497;2,36797
2744,44584;2,36345
2742,39469;2,35833
2740,34353;2,35772
2738,29238;2,35864
2736,24122;2,35835
2734,19007;2,35854
2732,13891;2,35756
2730,08776;2,35349
2728,0366;2,34729
2725,98544;2,34244
2723,93429;2,34258
2721,88313;2,34549
2719,83198;2,34474
2717,78082;2,34051
2715,72967;2,33805
2713,67851;2,33766
2711,62736;2,33739
2709,5762;2,33684
2707,52505;2,33467
2705,47389;2,33144
2703,42274;2,33087
2701,37158;2,33301
2699,32043;2,33308
2697,26927;2,32984
2695,21811;2,32652
2693,16696;2,32517
2691,1158;2,32568
2689,06465;2,32713
2687,01349;2,328
2684,96234;2,32687
2682,91118;2,32432
2680,86003;2,32172
2678,80887;2,32038
2676,75772;2,31995
2674,70656;2,31954
2672,65541;2,32148
2670,60425;2,32419
2668,55309;2,32435
2666,50194;2,32446
2664,45078;2,32458
2662,39963;2,32268
2660,34847;2,32092
2658,29732;2,32088
2656,24616;2,32094
2654,19501;2,32031
2652,14385;2,32022
2650,0927;2,32278
2648,04154;2,3272
2645,99039;2,32994
2643,93923;2,33093
2641,88808;2,33165
2639,83692;2,3342
2637,78576;2,34053
2635,73461;2,34786
2633,68345;2,35417
2631,6323;2,36084
2629,58114;2,36618
2627,52999;2,36832
2625,47883;2,37215
2623,42768;2,38011
2621,37652;2,38613
2619,32537;2,39054
2617,27421;2,39724
2615,22306;2,40335
2613,1719;2,40823
2611,12075;2,41277
2609,06959;2,41585
2607,01843;2,41737
2604,96728;2,41818
2602,91612;2,42126
2600,86497;2,42561
2598,81381;2,42735
2596,76266;2,42824
2594,7115;2,43036
2592,66035;2,43352
2590,60919;2,43697
2588,55804;2,43804
2586,50688;2,43713
2584,45573;2,43622
2582,40457;2,43604
2580,35342;2,43831
2578,30226;2,4401
2576,2511;2,43855
2574,19995;2,43745
2572,14879;2,43825
2570,09764;2,439
2568,04648;2,44002
2565,99533;2,4421
2563,94417;2,44473
2561,89302;2,4474
2559,84186;2,44881
2557,79071;2,44624
2555,73955;2,44222
2553,6884;2,444
2551,63724;2,45088
2549,58609;2,45725
2547,53493;2,46053
2545,48377;2,46096
2543,43262;2,46122
2541,38146;2,46311
2539,33031;2,46952
2537,27915;2,48092
2535,228;2,49098
2533,17684;2,49762
2531,12569;2,50607
2529,07453;2,51821
2527,02338;2,53046
2524,97222;2,53841
2522,92107;2,54156
2520,86991;2,54486
2518,81876;2,54986
2516,7676;2,55325
2514,71644;2,55304
2512,66529;2,54988
2510,61413;2,5448
2508,56298;2,53947
2506,51182;2,53487
2504,46067;2,52735
2502,40951;2,51835
2500,35836;2,51236
2498,3072;2,50454
2496,25605;2,49322
2494,20489;2,4814
2492,15374;2,46743
2490,10258;2,45253
2488,05143;2,43957
2486,00027;2,42984
2483,94911;2,42277
2481,89796;2,41276
2479,8468;2,39976
2477,79565;2,38983
2475,74449;2,38091
2473,69334;2,3682
2471,64218;2,35403
2469,59103;2,34206
2467,53987;2,33313
2465,48872;2,32684
2463,43756;2,32146
2461,38641;2,31572
2459,33525;2,30981
2457,2841;2,30397
2455,23294;2,29785
2453,18178;2,29141
2451,13063;2,2853
2449,07947;2,28033
2447,02832;2,27697
2444,97716;2,27433
2442,92601;2,27102
2440,87485;2,26595
2438,8237;2,26034
2436,77254;2,257
2434,72139;2,25607
2432,67023;2,25542
2430,61908;2,25331
2428,56792;2,25158
2426,51677;2,25138
2424,46561;2,24928
2422,41445;2,24523
2420,3633;2,24204
2418,31214;2,23915
2416,26099;2,23643
2414,20983;2,23464
2412,15868;2,2327
2410,10752;2,23085
2408,05637;2,23007
2406,00521;2,22844
2403,95406;2,22526
2401,9029;2,22381
2399,85175;2,22424
2397,80059;2,22421
2395,74944;2,22344
2393,69828;2,22303
2391,64712;2,22312
2389,59597;2,22292
2387,54481;2,22232
2385,49366;2,22193
2383,4425;2,22118
2381,39135;2,21993
2379,34019;2,22013
2377,28904;2,22186
2375,23788;2,22199
2373,18673;2,21971
2371,13557;2,21956
2369,08442;2,22426
2367,03326;2,22933
2364,9821;2,23106
2362,93095;2,22994
2360,87979;2,22656
2358,82864;2,2236
2356,77748;2,22204
2354,72633;2,21919
2352,67517;2,21747
2350,62402;2,22109
2348,57286;2,22762
2346,52171;2,23134
2344,47055;2,22908
2342,4194;2,2243
2340,36824;2,22383
2338,31709;2,22773
2336,26593;2,23098
2334,21477;2,23219
2332,16362;2,23258
2330,11246;2,23148
2328,06131;2,22987
2326,01015;2,22975
2323,959;2,22922
2321,90784;2,22665
2319,85669;2,22489
2317,80553;2,22591
2315,75438;2,22796
2313,70322;2,22932
2311,65207;2,22954
2309,60091;2,22852
2307,54976;2,2268
2305,4986;2,22559
2303,44744;2,22583
2301,39629;2,22716
2299,34513;2,22799
2297,29398;2,2265
2295,24282;2,22337
2293,19167;2,22183
2291,14051;2,22255
2289,08936;2,22307
2287,0382;2,22276
2284,98705;2,22326
2282,93589;2,22484
2280,88474;2,22572
2278,83358;2,22501
2276,78243;2,22417
2274,73127;2,22468
2272,68011;2,22619
2270,62896;2,22676
2268,5778;2,22598
2266,52665;2,22684
2264,47549;2,22995
2262,42434;2,23217
2260,37318;2,23225
2258,32203;2,2319
2256,27087;2,23227
2254,21972;2,23314
2252,16856;2,23577
2250,11741;2,23994
2248,06625;2,24255
2246,0151;2,24351
2243,96394;2,24564
2241,91278;2,24831
2239,86163;2,24995
2237,81047;2,25025
2235,75932;2,2515
2233,70816;2,25454
2231,65701;2,25707
2229,60585;2,25918
2227,5547;2,26039
2225,50354;2,25989
2223,45239;2,26052
2221,40123;2,26317
2219,35008;2,26586
2217,29892;2,26775
2215,24777;2,26932
2213,19661;2,2709
2211,14545;2,27233
2209,0943;2,27269
2207,04314;2,27186
2204,99199;2,27168
2202,94083;2,2724
2200,88968;2,27313
2198,83852;2,27425
2196,78737;2,27613
2194,73621;2,2789
2192,68506;2,28146
2190,6339;2,28275
2188,58275;2,28249
2186,53159;2,28068
2184,48044;2,28023
2182,42928;2,2815
2180,37812;2,28281
2178,32697;2,28505
2176,27581;2,28772
2174,22466;2,29031
2172,1735;2,29308
2170,12235;2,29555
2168,07119;2,29829
2166,02004;2,30191
2163,96888;2,30598
2161,91773;2,31038
2159,86657;2,31484
2157,81542;2,32011
2155,76426;2,32697
2153,71311;2,33317
2151,66195;2,33776
2149,61079;2,34194
2147,55964;2,34568
2145,50848;2,3487
2143,45733;2,35026
2141,40617;2,34884
2139,35502;2,34669
2137,30386;2,34707
2135,25271;2,34759
2133,20155;2,34502
2131,1504;2,34038
2129,09924;2,33561
2127,04809;2,33099
2124,99693;2,32587
2122,94578;2,31959
2120,89462;2,31453
2118,84346;2,31221
2116,79231;2,30966
2114,74115;2,30785
2112,69;2,30837
2110,63884;2,30777
2108,58769;2,30511
2106,53653;2,30269
2104,48538;2,30048
2102,43422;2,29766
2100,38307;2,29572
2098,33191;2,29564
2096,28076;2,2968
2094,2296;2,29795
2092,17844;2,29737
2090,12729;2,29576
2088,07613;2,29552
2086,02498;2,29691
2083,97382;2,29806
2081,92267;2,29749
2079,87151;2,29694
2077,82036;2,29909
2075,7692;2,30254
2073,71805;2,30402
2071,66689;2,30309
2069,61574;2,30219
2067,56458;2,30397
2065,51343;2,3078
2063,46227;2,31028
2061,41111;2,31025
2059,35996;2,30927
2057,3088;2,30926
2055,25765;2,31103
2053,20649;2,31209
2051,15534;2,31132
2049,10418;2,31169
2047,05303;2,31431
2045,00187;2,31723
2042,95072;2,31851
2040,89956;2,31788
2038,84841;2,31718
2036,79725;2,31804
2034,7461;2,31919
2032,69494;2,31975
2030,64378;2,32105
2028,59263;2,32333
2026,54147;2,32557
2024,49032;2,3264
2022,43916;2,32603
2020,38801;2,32666
2018,33685;2,32744
2016,2857;2,32769
2014,23454;2,32972
2012,18339;2,33151
2010,13223;2,33128
2008,08108;2,33195
2006,02992;2,33415
2003,97877;2,33555
2001,92761;2,33461
1999,87645;2,33347
1997,8253;2,3346
1995,77414;2,33652
1993,72299;2,33728
1991,67183;2,3371
1989,62068;2,33674
1987,56952;2,33704
1985,51837;2,33907
1983,46721;2,34173
1981,41606;2,3437
1979,3649;2,34517
1977,31375;2,34672
1975,26259;2,34861
1973,21144;2,35075
1971,16028;2,35385
1969,10912;2,35822
1967,05797;2,3625
1965,00681;2,36737
1962,95566;2,37329
1960,9045;2,3766
1958,85335;2,37451
1956,80219;2,37002
1954,75104;2,36632
1952,69988;2,36345
1950,64873;2,36105
1948,59757;2,3597
1946,54642;2,36128
1944,49526;2,36555
1942,44411;2,36915
1940,39295;2,37043
1938,34179;2,37047
1936,29064;2,37158
1934,23948;2,37387
1932,18833;2,37624
1930,13717;2,37845
1928,08602;2,38068
1926,03486;2,3828
1923,98371;2,38331
1921,93255;2,38378
1919,8814;2,38495
1917,83024;2,38607
1915,77909;2,3895
1913,72793;2,39298
1911,67678;2,39379
1909,62562;2,39431
1907,57446;2,39658
1905,52331;2,39852
1903,47215;2,40058
1901,421;2,40355
1899,36984;2,40496
1897,31869;2,4062
1895,26753;2,40926
1893,21638;2,41337
1891,16522;2,41712
1889,11407;2,41886
1887,06291;2,41826
1885,01176;2,41704
1882,9606;2,41792
1880,90945;2,42036
1878,85829;2,42376
1876,80713;2,42952
1874,75598;2,43668
1872,70482;2,44184
1870,65367;2,44301
1868,60251;2,44433
1866,55136;2,44855
1864,5002;2,45072
1862,44905;2,45012
1860,39789;2,45107
1858,34674;2,45603
1856,29558;2,46257
1854,24443;2,46753
1852,19327;2,47114
1850,14212;2,47493
1848,09096;2,48074
1846,0398;2,48752
1843,98865;2,49421
1841,93749;2,50313
1839,88634;2,51031
1837,83518;2,51193
1835,78403;2,51133
1833,73287;2,51195
1831,68172;2,51332
1829,63056;2,51797
1827,57941;2,52795
1825,52825;2,53817
1823,4771;2,54665
1821,42594;2,55437
1819,37478;2,56193
1817,32363;2,57014
1815,27247;2,57843
1813,22132;2,58427
1811,17016;2,59037
1809,11901;2,60379
1807,06785;2,62276
1805,0167;2,64044
1802,96554;2,65488
1800,91439;2,66807
1798,86323;2,68169
1796,81208;2,69355
1794,76092;2,70103
1792,70977;2,70517
1790,65861;2,70549
1788,60745;2,69688
1786,5563;2,68146
1784,50514;2,66904
1782,45399;2,66093
1780,40283;2,65202
1778,35168;2,64425
1776,30052;2,63857
1774,24937;2,63137
1772,19821;2,62778
1770,14706;2,6351
1768,0959;2,64373
1766,04475;2,64826
1763,99359;2,65107
1761,94244;2,6521
1759,89128;2,65329
1757,84012;2,65661
1755,78897;2,66158
1753,73781;2,66473
1751,68666;2,66641
1749,6355;2,67144
1747,58435;2,67778
1745,53319;2,6821
1743,48204;2,68349
1741,43088;2,68273
1739,37973;2,68384
1737,32857;2,68661
1735,27742;2,68862
1733,22626;2,69647
1731,17511;2,70575
1729,12395;2,70967
1727,07279;2,71399
1725,02164;2,72032
1722,97048;2,72809
1720,91933;2,73677
1718,86817;2,74621
1716,81702;2,75957
1714,76586;2,77261
1712,71471;2,78343
1710,66355;2,79761
1708,6124;2,81372
1706,56124;2,82984
1704,51009;2,85279
1702,45893;2,87942
1700,40778;2,90123
1698,35662;2,91226
1696,30546;2,90716
1694,25431;2,90695
1692,20315;2,92337
1690,152;2,94546
1688,10084;2,95945
1686,04969;2,95375
1683,99853;2,93837
1681,94738;2,93967
1679,89622;2,95035
1677,84507;2,95129
1675,79391;2,94255
1673,74276;2,93444
1671,6916;2,92154
1669,64045;2,90155
1667,58929;2,89072
1665,53813;2,88805
1663,48698;2,88194
1661,43582;2,87354
1659,38467;2,86482
1657,33351;2,85521
1655,28236;2,84161
1653,2312;2,82219
1651,18005;2,8098
1649,12889;2,80136
1647,07774;2,79067
1645,02658;2,78318
1642,97543;2,77628
1640,92427;2,76849
1638,87312;2,75973
1636,82196;2,74297
1634,7708;2,72341
1632,71965;2,71343
1630,66849;2,7067
1628,61734;2,70002
1626,56618;2,6982
1624,51503;2,69818
1622,46387;2,69687
1620,41272;2,69644
1618,36156;2,69493
1616,31041;2,69242
1614,25925;2,69062
1612,2081;2,68928
1610,15694;2,69136
1608,10579;2,6967
1606,05463;2,69828
1604,00347;2,69311
1601,95232;2,68816
1599,90116;2,68912
1597,85001;2,69209
1595,79885;2,69303
1593,7477;2,69425
1591,69654;2,69806
1589,64539;2,70173
1587,59423;2,70243
1585,54308;2,70409
1583,49192;2,7085
1581,44077;2,71001
1579,38961;2,70561
1577,33846;2,69884
1575,2873;2,69964
1573,23614;2,70768
1571,18499;2,70838
1569,13383;2,70101
1567,08268;2,69309
1565,03152;2,6848
1562,98037;2,67619
1560,92921;2,66235
1558,87806;2,64744
1556,8269;2,64557
1554,77575;2,64337
1552,72459;2,63489
1550,67344;2,62357
1548,62228;2,61196
1546,57113;2,6041
1544,51997;2,60186
1542,46881;2,59993
1540,41766;2,59263
1538,3665;2,58973
1536,31535;2,59104
1534,26419;2,58566
1532,21304;2,5761
1530,16188;2,5679
1528,11073;2,56015
1526,05957;2,55393
1524,00842;2,54887
1521,95726;2,54313
1519,90611;2,54141
1517,85495;2,53969
1515,80379;2,53523
1513,75264;2,5326
1511,70148;2,52973
1509,65033;2,52013
1507,59917;2,5006
1505,54802;2,48603
1503,49686;2,4839
1501,44571;2,48011
1499,39455;2,47116
1497,3434;2,46374
1495,29224;2,45979
1493,24109;2,45328
1491,18993;2,4422
1489,13878;2,43328
1487,08762;2,42809
1485,03646;2,42299
1482,98531;2,41928
1480,93415;2,41973
1478,883;2,42334
1476,83184;2,42874
1474,78069;2,43618
1472,72953;2,44305
1470,67838;2,44926
1468,62722;2,45437
1466,57607;2,45711
1464,52491;2,46107
1462,47376;2,46888
1460,4226;2,47376
1458,37145;2,4692
1456,32029;2,4634
1454,26913;2,46558
1452,21798;2,46917
1450,16682;2,47056
1448,11567;2,46941
1446,06451;2,46534
1444,01336;2,45952
1441,9622;2,45485
1439,91105;2,45043
1437,85989;2,44222
1435,80874;2,43568
1433,75758;2,43339
1431,70643;2,42731
1429,65527;2,41754
1427,60412;2,40902
1425,55296;2,40245
1423,5018;2,39749
1421,45065;2,38994
1419,39949;2,37631
1417,34834;2,36386
1415,29718;2,35389
1413,24603;2,34066
1411,19487;2,32566
1409,14372;2,31656
1407,09256;2,31766
1405,04141;2,3274
1402,99025;2,34132
1400,9391;2,35422
1398,88794;2,36623
1396,83679;2,37833
1394,78563;2,38984
1392,73447;2,40305
1390,68332;2,41684
1388,63216;2,42917
1386,58101;2,44093
1384,52985;2,45185
1382,4787;2,46137
1380,42754;2,47074
1378,37639;2,48068
1376,32523;2,48967
1374,27408;2,49675
1372,22292;2,50433
1370,17177;2,5117
1368,12061;2,51706
1366,06946;2,52158
1364,0183;2,52591
1361,96714;2,53088
1359,91599;2,53673
1357,86483;2,54115
1355,81368;2,54245
1353,76252;2,54341
1351,71137;2,54728
1349,66021;2,55231
1347,60906;2,55587
1345,5579;2,55783
1343,50675;2,55964
1341,45559;2,56243
1339,40444;2,56682
1337,35328;2,57181
1335,30213;2,57382
1333,25097;2,57311
1331,19981;2,57439
1329,14866;2,5786
1327,0975;2,58234
1325,04635;2,58554
1322,99519;2,58863
1320,94404;2,59155
1318,89288;2,59523
1316,84173;2,59594
1314,79057;2,59259
1312,73942;2,59052
1310,68826;2,59102
1308,63711;2,59077
1306,58595;2,59153
1304,5348;2,59607
1302,48364;2,59905
1300,43248;2,59645
1298,38133;2,5914
1296,33017;2,58864
1294,27902;2,58997
1292,22786;2,59219
1290,17671;2,59292
1288,12555;2,59252
1286,0744;2,59231
1284,02324;2,59439
1281,97209;2,59829
1279,92093;2,60196
1277,86978;2,60459
1275,81862;2,60567
1273,76747;2,60494
1271,71631;2,60519
1269,66515;2,60718
1267,614;2,60472
1265,56284;2,59879
1263,51169;2,60126
1261,46053;2,61265
1259,40938;2,62021
1257,35822;2,62123
1255,30707;2,62265
1253,25591;2,62394
1251,20476;2,62348
1249,1536;2,62402
1247,10245;2,62502
1245,05129;2,62633
1243,00013;2,62943
1240,94898;2,63308
1238,89782;2,63409
1236,84667;2,63012
1234,79551;2,62435
1232,74436;2,6209
1230,6932;2,6211
1228,64205;2,62554
1226,59089;2,63095
1224,53974;2,63341
1222,48858;2,63146
1220,43743;2,62691
1218,38627;2,62428
1216,33512;2,62501
1214,28396;2,62726
1212,2328;2,62787
1210,18165;2,62927
1208,13049;2,6341
1206,07934;2,63713
1204,02818;2,63543
1201,97703;2,62982
1199,92587;2,62876
1197,87472;2,63951
1195,82356;2,64616
1193,77241;2,6437
1191,72125;2,64864
1189,6701;2,658
1187,61894;2,65955
1185,56779;2,65793
1183,51663;2,66153
1181,46547;2,66758
1179,41432;2,67141
1177,36316;2,67325
1175,31201;2,67265
1173,26085;2,67436
1171,2097;2,67896
1169,15854;2,67595
1167,10739;2,67114
1165,05623;2,67851
1163,00508;2,68974
1160,95392;2,69125
1158,90277;2,68798
1156,85161;2,68741
1154,80046;2,68483
1152,7493;2,67841
1150,69814;2,67438
1148,64699;2,67524
1146,59583;2,67742
1144,54468;2,67571
1142,49352;2,67251
1140,44237;2,67514
1138,39121;2,68267
1136,34006;2,68689
1134,2889;2,68397
1132,23775;2,68058
1130,18659;2,67953
1128,13544;2,67676
1126,08428;2,6755
1124,03313;2,67295
1121,98197;2,66483
1119,93081;2,65974
1117,87966;2,65971
1115,8285;2,65884
1113,77735;2,65542
1111,72619;2,65381
1109,67504;2,65793
1107,62388;2,66249
1105,57273;2,6638
1103,52157;2,66078
1101,47042;2,65048
1099,41926;2,64162
1097,36811;2,6427
1095,31695;2,6479
1093,2658;2,64961
1091,21464;2,64554
1089,16348;2,63938
1087,11233;2,63538
1085,06117;2,63334
1083,01002;2,62822
1080,95886;2,6192
1078,90771;2,61413
1076,85655;2,612
1074,8054;2,60773
1072,75424;2,60305
1070,70309;2,59765
1068,65193;2,59218
1066,60078;2,59114
1064,54962;2,59036
1062,49847;2,58099
1060,44731;2,56839
1058,39615;2,55976
1056,345;2,55562
1054,29384;2,55673
1052,24269;2,55563
1050,19153;2,54737
1048,14038;2,5381
1046,08922;2,5279
1044,03807;2,51457
1041,98691;2,50224
1039,93576;2,49293
1037,8846;2,48471
1035,83345;2,47987
1033,78229;2,47962
1031,73114;2,47736
1029,67998;2,47068
1027,62882;2,46499
1025,57767;2,46215
1023,52651;2,46021
1021,47536;2,46095
1019,4242;2,4639
1017,37305;2,46347
1015,32189;2,45864
1013,27074;2,45423
1011,21958;2,45345
1009,16843;2,45353
1007,11727;2,45357
1005,06612;2,45725
1003,01496;2,46187
1000,96381;2,46283
998,91265;2,46168
996,86149;2,46164
994,81034;2,46213
992,75918;2,46209
990,70803;2,46454
988,65687;2,46936
986,60572;2,47279
984,55456;2,47462
982,50341;2,47589
980,45225;2,47719
978,4011;2,47825
976,34994;2,47889
974,29879;2,48177
972,24763;2,48576
970,19647;2,4907
968,14532;2,50044
966,09416;2,5096
964,04301;2,5125
961,99185;2,51225
959,9407;2,51304
957,88954;2,51504
955,83839;2,5165
953,78723;2,51925
951,73608;2,52556
949,68492;2,53068
947,63377;2,5294
945,58261;2,53005
943,53146;2,53616
941,4803;2,54044
939,42914;2,54218
937,37799;2,54174
935,32683;2,53914
933,27568;2,53764
931,22452;2,53937
929,17337;2,54197
927,12221;2,54518
925,07106;2,55078
923,0199;2,5547
920,96875;2,55292
918,91759;2,5477
916,86644;2,54474
914,81528;2,54729
912,76413;2,55095
910,71297;2,54958
908,66181;2,54736
906,61066;2,54952
904,5595;2,55488
902,50835;2,56059
900,45719;2,55956
898,40604;2,55389
896,35488;2,55368
894,30373;2,55205
892,25257;2,53732
890,20142;2,51531
888,15026;2,50253
886,09911;2,51602
884,04795;2,55257
881,9968;2,58354
879,94564;2,59056
877,89448;2,57562
875,84333;2,54381
873,79217;2,50334
871,74102;2,47232
869,68986;2,47343
867,63871;2,50785
865,58755;2,5459
863,5364;2,56316
861,48524;2,56643
859,43409;2,57024
857,38293;2,57941
855,33178;2,58717
853,28062;2,59067
851,22947;2,59507
849,17831;2,59511
847,12715;2,58551
845,076;2,57597
843,02484;2,57207
840,97369;2,57238
838,92253;2,57694
836,87138;2,58301
834,82022;2,58538
832,76907;2,58527
830,71791;2,59118
828,66676;2,59835
826,6156;2,59768
824,56445;2,59655
822,51329;2,60382
820,46214;2,61199
818,41098;2,61118
816,35982;2,61402
814,30867;2,62779
812,25751;2,63796
810,20636;2,63805
808,1552;2,63681
806,10405;2,63869
804,05289;2,64171
802,00174;2,64067
799,95058;2,63584
797,89943;2,6441
795,84827;2,66026
793,79712;2,66026
791,74596;2,64941
789,69481;2,6476
787,64365;2,65387
785,59249;2,65641
783,54134;2,65369
781,49018;2,65095
779,43903;2,65719
777,38787;2,66859
775,33672;2,67235
773,28556;2,67341
771,23441;2,67665
769,18325;2,67599
767,1321;2,67651
765,08094;2,68349
763,02979;2,68897
760,97863;2,68903
758,92748;2,68998
756,87632;2,69037
754,82516;2,67507
752,77401;2,65391
750,72285;2,64442
748,6717;2,64572
746,62054;2,66254
744,56939;2,6931
742,51823;2,70929
740,46708;2,6967
738,41592;2,67978
736,36477;2,67963
734,31361;2,6959
732,26246;2,72138
730,2113;2,74454
728,16015;2,74329
726,10899;2,728
724,05783;2,72156
722,00668;2,72523
719,95552;2,74198
717,90437;2,76602
715,85321;2,77806
713,80206;2,76645
711,7509;2,73851
709,69975;2,72036
707,64859;2,71877
705,59744;2,71704
703,54628;2,70658
701,49513;2,68714
699,44397;2,66644
697,39281;2,65063
695,34166;2,63951
693,2905;2,63583
691,23935;2,64174
689,18819;2,65426
687,13704;2,6632
685,08588;2,65975
683,03473;2,64797
680,98357;2,63929
678,93242;2,63732
676,88126;2,63559
674,83011;2,63021
672,77895;2,62676
670,7278;2,63255
668,67664;2,63459
666,62548;2,61594
664,57433;2,59738
662,52317;2,59089
660,47202;2,58951
658,42086;2,59153
656,36971;2,59039
654,31855;2,58352
652,2674;2,58167
650,21624;2,58403
648,16509;2,57889
646,11393;2,56403
644,06278;2,54384
642,01162;2,52208
639,96047;2,5066
637,90931;2,50525
635,85815;2,50973
633,807;2,50679
631,75584;2,50295
629,70469;2,50256
627,65353;2,49637
625,60238;2,48421
623,55122;2,47253
621,50007;2,47077
619,44891;2,47963
617,39776;2,47578
615,3466;2,45217
613,29545;2,43855
611,24429;2,44517
609,19314;2,44861
607,14198;2,43899
605,09082;2,43371
603,03967;2,43317
600,98851;2,42615
598,93736;2,41436
596,8862;2,40005
594,83505;2,38713
592,78389;2,38302
590,73274;2,3861
588,68158;2,38332
586,63043;2,36878
584,57927;2,35119
582,52812;2,33864
580,47696;2,32952
578,42581;2,31732
576,37465;2,31153
574,32349;2,3204
572,27234;2,32463
570,22118;2,313
568,17003;2,30239
566,11887;2,29746
564,06772;2,28715
562,01656;2,28005
559,96541;2,2831
557,91425;2,28363
555,8631;2,27309
553,81194;2,25874
551,76079;2,24822
549,70963;2,23849
547,65848;2,22772
545,60732;2,21977
543,55616;2,21443
541,50501;2,21478
539,45385;2,2214
537,4027;2,22637
535,35154;2,22507
533,30039;2,21696
531,24923;2,21202
529,19808;2,2175
527,14692;2,22265
525,09577;2,21961
523,04461;2,21176
520,99346;2,20433
518,9423;2,20089
516,89115;2,20359
514,83999;2,20872
512,78883;2,20823
510,73768;2,20126
508,68652;2,19804
506,63537;2,20887
504,58421;2,22284
502,53306;2,22311
500,4819;2,21763
498,43075;2,21669
496,37959;2,21471
494,32844;2,21351
492,27728;2,21317
490,22613;2,208
488,17497;2,2066
486,12382;2,20524
484,07266;2,18906
482,0215;2,16883
479,97035;2,16039
477,91919;2,15543
475,86804;2,14268
473,81688;2,13245
471,76573;2,1384
469,71457;2,1466
467,66342;2,13661
465,61226;2,11495
463,56111;2,10318
461,50995;2,10847
459,4588;2,11363
457,40764;2,10842
455,35649;2,10425
453,30533;2,10644
451,25417;2,11093
449,20302;2,11031
447,15186;2,10608
445,10071;2,10419
443,04955;2,10008
440,9984;2,08951
438,94724;2,08407
436,89609;2,09278
434,84493;2,10421
432,79378;2,11421
430,74262;2,1307
428,69147;2,14079
426,64031;2,13592
424,58916;2,13487
422,538;2,14922
420,48684;2,16688
418,43569;2,17722
416,38453;2,18029
414,33338;2,17496
412,28222;2,16368
410,23107;2,15046
408,17991;2,14242
406,12876;2,13208
404,0776;2,11203
402,02645;2,10531
399,97529;2,12643
