3997,70175;1,95801
3995,6506;1,95669
3993,59944;1,95707
3991,54829;1,95901
3989,49713;1,95913
3987,44598;1,95834
3985,39482;1,96059
3983,34367;1,96486
3981,29251;1,96759
3979,24136;1,96871
3977,1902;1,97041
3975,13905;1,97297
3973,08789;1,97391
3971,03673;1,97259
3968,98558;1,9716
3966,93442;1,973
3964,88327;1,97567
3962,83211;1,9776
3960,78096;1,9796
3958,7298;1,98261
3956,67865;1,9865
3954,62749;1,99059
3952,57634;1,99304
3950,52518;1,99366
3948,47403;1,99457
3946,42287;1,99712
3944,37172;1,99909
3942,32056;1,99858
3940,2694;1,99522
3938,21825;1,99015
3936,16709;1,98698
3934,11594;1,98664
3932,06478;1,98824
3930,01363;1,98932
3927,96247;1,98702
3925,91132;1,98199
3923,86016;1,97727
3921,80901;1,97362
3919,75785;1,97015
3917,7067;1,96617
3915,65554;1,96121
3913,60439;1,95611
3911,55323;1,95203
3909,50207;1,95124
3907,45092;1,95445
3905,39976;1,95804
3903,34861;1,9578
3901,29745;1,95244
3899,2463;1,94515
3897,19514;1,94142
3895,14399;1,94124
3893,09283;1,94132
3891,04168;1,94083
3888,99052;1,94109
3886,93937;1,94131
3884,88821;1,94461
3882,83706;1,94731
3880,7859;1,94373
3878,73474;1,94105
3876,68359;1,94141
3874,63243;1,94346
3872,58128;1,94728
3870,53012;1,94747
3868,47897;1,94665
3866,42781;1,94478
3864,37666;1,94042
3862,3255;1,9367
3860,27435;1,93469
3858,22319;1,9352
3856,17204;1,93455
3854,12088;1,93088
3852,06973;1,93019
3850,01857;1,92961
3847,96741;1,92644
3845,91626;1,92494
3843,8651;1,92697
3841,81395;1,93044
3839,76279;1,93143
3837,71164;1,93021
3835,66048;1,92864
3833,60933;1,92604
3831,55817;1,92489
3829,50702;1,9269
3827,45586;1,92814
3825,40471;1,92858
3823,35355;1,92735
3821,3024;1,9258
3819,25124;1,92771
3817,20008;1,92454
3815,14893;1,92055
3813,09777;1,92164
3811,04662;1,92259
3808,99546;1,92216
3806,94431;1,92273
3804,89315;1,92696
3802,842;1,92893
3800,79084;1,9306
3798,73969;1,93372
3796,68853;1,93217
3794,63738;1,92972
3792,58622;1,9299
3790,53506;1,93215
3788,48391;1,93386
3786,43275;1,93292
3784,3816;1,932
3782,33044;1,93376
3780,27929;1,9361
3778,22813;1,93823
3776,17698;1,93935
3774,12582;1,94003
3772,07467;1,94122
3770,02351;1,94217
3767,97236;1,94298
3765,9212;1,94238
3763,87005;1,94351
3761,81889;1,94649
3759,76773;1,95016
3757,71658;1,95524
3755,66542;1,95986
3753,61427;1,96183
3751,56311;1,96238
3749,51196;1,96544
3747,4608;1,96826
3745,40965;1,96444
3743,35849;1,96646
3741,30734;1,97833
3739,25618;1,98815
3737,20503;1,9933
3735,15387;1,99635
3733,10272;1,99818
3731,05156;2,00026
3729,0004;2,00414
3726,94925;2,00782
3724,89809;2,012
3722,84694;2,0155
3720,79578;2,01921
3718,74463;2,02536
3716,69347;2,03273
3714,64232;2,03803
3712,59116;2,04302
3710,54001;2,05301
3708,48885;2,06438
3706,4377;2,0736
3704,38654;2,08494
3702,33539;2,10273
3700,28423;2,12727
3698,23307;2,15294
3696,18192;2,17369
3694,13076;2,18643
3692,07961;2,1926
3690,02845;2,19799
3687,9773;2,20507
3685,92614;2,21241
3683,87499;2,21893
3681,82383;2,22896
3679,77268;2,24367
3677,72152;2,25726
3675,67037;2,27121
3673,61921;2,29559
3671,56806;2,3233
3669,5169;2,35091
3667,46574;2,37275
3665,41459;2,38367
3663,36343;2,39636
3661,31228;2,41794
3659,26112;2,44256
3657,20997;2,46807
3655,15881;2,49845
3653,10766;2,52544
3651,0565;2,54254
3649,00535;2,56169
3646,95419;2,59282
3644,90304;2,62936
3642,85188;2,65504
3640,80073;2,66591
3638,74957;2,66991
3636,69841;2,67366
3634,64726;2,67872
3632,5961;2,6841
3630,54495;2,69042
3628,49379;2,70334
3626,44264;2,72117
3624,39148;2,73726
3622,34033;2,75262
3620,28917;2,76362
3618,23802;2,76537
3616,18686;2,76054
3614,13571;2,75671
3612,08455;2,76181
3610,0334;2,7745
3607,98224;2,78375
3605,93108;2,78519
3603,87993;2,78676
3601,82877;2,79325
3599,77762;2,80065
3597,72646;2,8046
3595,67531;2,80482
3593,62415;2,8118
3591,573;2,82595
3589,52184;2,83282
3587,47069;2,838
3585,41953;2,85251
3583,36838;2,86048
3581,31722;2,8541
3579,26607;2,84557
3577,21491;2,84443
3575,16375;2,85195
3573,1126;2,86429
3571,06144;2,87513
3569,01029;2,88322
3566,95913;2,89181
3564,90798;2,89826
3562,85682;2,8989
3560,80567;2,89676
3558,75451;2,88969
3556,70336;2,87541
3554,6522;2,87042
3552,60105;2,88616
3550,54989;2,90032
3548,49874;2,89571
3546,44758;2,88726
3544,39642;2,88432
3542,34527;2,88135
3540,29411;2,87971
3538,24296;2,88529
3536,1918;2,8967
3534,14065;2,91182
3532,08949;2,92726
3530,03834;2,93203
3527,98718;2,93114
3525,93603;2,94185
3523,88487;2,96354
3521,83372;2,98093
3519,78256;2,97818
3517,73141;2,95597
3515,68025;2,93619
3513,62909;2,93669
3511,57794;2,94406
3509,52678;2,94493
3507,47563;2,94999
3505,42447;2,95818
3503,37332;2,95515
3501,32216;2,94371
3499,27101;2,93651
3497,21985;2,93311
3495,1687;2,93352
3493,11754;2,94534
3491,06639;2,96254
3489,01523;2,97717
3486,96407;2,98102
3484,91292;2,97216
3482,86176;2,96362
3480,81061;2,96353
3478,75945;2,96344
3476,7083;2,96045
3474,65714;2,96249
3472,60599;2,96604
3470,55483;2,96311
3468,50368;2,95684
3466,45252;2,96212
3464,40137;2,98282
3462,35021;2,99537
3460,29906;2,9878
3458,2479;2,9722
3456,19674;2,96504
3454,14559;2,9732
3452,09443;2,98149
3450,04328;2,98426
3447,99212;2,99386
3445,94097;3,00277
3443,88981;2,99396
3441,83866;2,97607
3439,7875;2,97011
3437,73635;2,97888
3435,68519;2,9869
3433,63404;2,98625
3431,58288;2,98327
3429,53173;2,98113
3427,48057;2,97646
3425,42941;2,97113
3423,37826;2,97577
3421,3271;2,98885
3419,27595;2,99861
3417,22479;3,00238
3415,17364;2,99047
3413,12248;2,96573
3411,07133;2,9578
3409,02017;2,96994
3406,96902;2,97699
3404,91786;2,97293
3402,86671;2,97695
3400,81555;2,98275
3398,7644;2,97706
3396,71324;2,97662
3394,66208;2,98315
3392,61093;2,98414
3390,55977;2,9872
3388,50862;2,99148
3386,45746;2,986
3384,40631;2,98075
3382,35515;2,98053
3380,304;2,97262
3378,25284;2,96795
3376,20169;2,97985
3374,15053;2,98755
3372,09938;2,98175
3370,04822;2,97896
3367,99707;2,97867
3365,94591;2,97809
3363,89475;2,98685
3361,8436;2,99839
3359,79244;2,99716
3357,74129;2,98689
3355,69013;2,9769
3353,63898;2,97091
3351,58782;2,97122
3349,53667;2,97634
3347,48551;2,97765
3345,43436;2,9752
3343,3832;2,97941
3341,33205;2,98161
3339,28089;2,97438
3337,22974;2,96736
3335,17858;2,9668
3333,12742;2,97143
3331,07627;2,98429
3329,02511;3,00406
3326,97396;3,01106
3324,9228;2,99555
3322,87165;2,97175
3320,82049;2,95977
3318,76934;2,97098
3316,71818;2,99309
3314,66703;3,00263
3312,61587;2,98966
3310,56472;2,96005
3308,51356;2,93465
3306,46241;2,93498
3304,41125;2,94954
3302,36009;2,95134
3300,30894;2,94737
3298,25778;2,95825
3296,20663;2,97192
3294,15547;2,96839
3292,10432;2,96246
3290,05316;2,97086
3288,00201;2,97339
3285,95085;2,95674
3283,8997;2,94026
3281,84854;2,93453
3279,79739;2,93158
3277,74623;2,9287
3275,69508;2,93783
3273,64392;2,95806
3271,59276;2,96628
3269,54161;2,95637
3267,49045;2,94692
3265,4393;2,94635
3263,38814;2,94783
3261,33699;2,94981
3259,28583;2,95518
3257,23468;2,95852
3255,18352;2,95092
3253,13237;2,9382
3251,08121;2,93269
3249,03006;2,92931
3246,9789;2,92155
3244,92775;2,91742
3242,87659;2,91707
3240,82543;2,9206
3238,77428;2,93519
3236,72312;2,95211
3234,67197;2,95373
3232,62081;2,93505
3230,56966;2,90735
3228,5185;2,89421
3226,46735;2,90667
3224,41619;2,93093
3222,36504;2,94677
3220,31388;2,94012
3218,26273;2,91849
3216,21157;2,90434
3214,16041;2,90384
3212,10926;2,90823
3210,0581;2,90873
3208,00695;2,90722
3205,95579;2,90787
3203,90464;2,90207
3201,85348;2,89397
3199,80233;2,90267
3197,75117;2,91994
3195,70002;2,92679
3193,64886;2,92875
3191,59771;2,92795
3189,54655;2,91497
3187,4954;2,89347
3185,44424;2,87624
3183,39308;2,87324
3181,34193;2,88359
3179,29077;2,89055
3177,23962;2,8844
3175,18846;2,88256
3173,13731;2,88546
3171,08615;2,87568
3169,035;2,86233
3166,98384;2,85953
3164,93269;2,86409
3162,88153;2,87179
3160,83038;2,87792
3158,77922;2,87966
3156,72807;2,88152
3154,67691;2,88074
3152,62575;2,87603
3150,5746;2,86983
3148,52344;2,86097
3146,47229;2,85552
3144,42113;2,85395
3142,36998;2,84792
3140,31882;2,84166
3138,26767;2,84291
3136,21651;2,84824
3134,16536;2,85235
3132,1142;2,8514
3130,06305;2,84605
3128,01189;2,84684
3125,96074;2,85275
3123,90958;2,84737
3121,85842;2,83334
3119,80727;2,82575
3117,75611;2,82831
3115,70496;2,83587
3113,6538;2,83881
3111,60265;2,83364
3109,55149;2,82732
3107,50034;2,8276
3105,44918;2,83551
3103,39803;2,8431
3101,34687;2,84112
3099,29572;2,82987
3097,24456;2,81944
3095,19341;2,81393
3093,14225;2,81401
3091,09109;2,82317
3089,03994;2,83231
3086,98878;2,82846
3084,93763;2,81375
3082,88647;2,80192
3080,83532;2,80451
3078,78416;2,81491
3076,73301;2,81782
3074,68185;2,81582
3072,6307;2,81687
3070,57954;2,81525
3068,52839;2,8051
3066,47723;2,79478
3064,42608;2,79359
3062,37492;2,80081
3060,32376;2,8114
3058,27261;2,81701
3056,22145;2,81432
3054,1703;2,81339
3052,11914;2,81693
3050,06799;2,81589
3048,01683;2,81006
3045,96568;2,80261
3043,91452;2,79213
3041,86337;2,78022
3039,81221;2,77193
3037,76106;2,76799
3035,7099;2,76888
3033,65875;2,77419
3031,60759;2,77539
3029,55643;2,77006
3027,50528;2,76445
3025,45412;2,75996
3023,40297;2,7585
3021,35181;2,76232
3019,30066;2,76804
3017,2495;2,77515
3015,19835;2,78197
3013,14719;2,78394
3011,09604;2,78324
3009,04488;2,77993
3006,99373;2,77262
3004,94257;2,76724
3002,89142;2,76658
3000,84026;2,76806
2998,7891;2,77009
2996,73795;2,77206
2994,68679;2,77777
2992,63564;2,79494
2990,58448;2,81348
2988,53333;2,80882
2986,48217;2,798
2984,43102;2,80546
2982,37986;2,81406
2980,32871;2,8141
2978,27755;2,81327
2976,2264;2,81297
2974,17524;2,81635
2972,12409;2,8224
2970,07293;2,82702
2968,02177;2,82739
2965,97062;2,82025
2963,91946;2,81748
2961,86831;2,82668
2959,81715;2,83189
2957,766;2,82393
2955,71484;2,80949
2953,66369;2,80328
2951,61253;2,80697
2949,56138;2,80967
2947,51022;2,8091
2945,45907;2,80724
2943,40791;2,80212
2941,35675;2,79733
2939,3056;2,7999
2937,25444;2,80454
2935,20329;2,80241
2933,15213;2,79349
2931,10098;2,78702
2929,04982;2,79417
2926,99867;2,80646
2924,94751;2,80331
2922,89636;2,79127
2920,8452;2,78539
2918,79405;2,77973
2916,74289;2,76907
2914,69174;2,76381
2912,64058;2,76686
2910,58942;2,76362
2908,53827;2,75529
2906,48711;2,75184
2904,43596;2,74712
2902,3848;2,73749
2900,33365;2,72832
2898,28249;2,72679
2896,23134;2,73348
2894,18018;2,73539
2892,12903;2,72747
2890,07787;2,72409
2888,02672;2,72837
2885,97556;2,73451
2883,92441;2,74358
2881,87325;2,75344
2879,82209;2,75727
2877,77094;2,75813
2875,71978;2,76049
2873,66863;2,756
2871,61747;2,74371
2869,56632;2,73049
2867,51516;2,71934
2865,46401;2,71223
2863,41285;2,71121
2861,3617;2,71687
2859,31054;2,72189
2857,25939;2,72117
2855,20823;2,71975
2853,15708;2,71522
2851,10592;2,70073
2849,05476;2,68702
2847,00361;2,68259
2844,95245;2,67498
2842,9013;2,66034
2840,85014;2,64637
2838,79899;2,63452
2836,74783;2,62815
2834,69668;2,62649
2832,64552;2,62237
2830,59437;2,6154
2828,54321;2,60741
2826,49206;2,59987
2824,4409;2,59541
2822,38975;2,59268
2820,33859;2,58772
2818,28743;2,58019
2816,23628;2,57382
2814,18512;2,57073
2812,13397;2,57005
2810,08281;2,56757
2808,03166;2,56407
2805,9805;2,56354
2803,92935;2,56171
2801,87819;2,55636
2799,82704;2,55093
2797,77588;2,54577
2795,72473;2,54198
2793,67357;2,54038
2791,62242;2,53792
2789,57126;2,53354
2787,5201;2,5277
2785,46895;2,52167
2783,41779;2,51939
2781,36664;2,52145
2779,31548;2,52047
2777,26433;2,51236
2775,21317;2,50557
2773,16202;2,50601
2771,11086;2,50622
2769,05971;2,49904
2767,00855;2,49066
2764,9574;2,48722
2762,90624;2,48539
2760,85509;2,4836
2758,80393;2,48392
2756,75277;2,48533
2754,70162;2,48387
2752,65046;2,48024
2750,59931;2,47849
2748,54815;2,47757
2746,497;2,47552
2744,44584;2,47238
2742,39469;2,46899
2740,34353;2,46706
2738,29238;2,46472
2736,24122;2,46123
2734,19007;2,45979
2732,13891;2,45844
2730,08776;2,45384
2728,0366;2,44839
2725,98544;2,44454
2723,93429;2,44315
2721,88313;2,4446
2719,83198;2,4469
2717,78082;2,44749
2715,72967;2,44676
2713,67851;2,44574
2711,62736;2,44244
2709,5762;2,43835
2707,52505;2,43759
2705,47389;2,43876
2703,42274;2,43729
2701,37158;2,43186
2699,32043;2,42715
2697,26927;2,4256
2695,21811;2,42544
2693,16696;2,42631
2691,1158;2,42808
2689,06465;2,43052
2687,01349;2,43143
2684,96234;2,42896
2682,91118;2,42571
2680,86003;2,42323
2678,80887;2,42093
2676,75772;2,41879
2674,70656;2,41682
2672,65541;2,41572
2670,60425;2,41726
2668,55309;2,42134
2666,50194;2,42349
2664,45078;2,42198
2662,39963;2,42084
2660,34847;2,41911
2658,29732;2,41537
2656,24616;2,41472
2654,19501;2,41628
2652,14385;2,41498
2650,0927;2,41503
2648,04154;2,41963
2645,99039;2,42232
2643,93923;2,42121
2641,88808;2,42325
2639,83692;2,42786
2637,78576;2,42971
2635,73461;2,43173
2633,68345;2,43821
2631,6323;2,44844
2629,58114;2,45896
2627,52999;2,46673
2625,47883;2,47063
2623,42768;2,47287
2621,37652;2,4772
2619,32537;2,4821
2617,27421;2,48635
2615,22306;2,49255
2613,1719;2,49877
2611,12075;2,49838
2609,06959;2,4931
2607,01843;2,49343
2604,96728;2,50094
2602,91612;2,50684
2600,86497;2,50756
2598,81381;2,50987
2596,76266;2,5144
2594,7115;2,5152
2592,66035;2,51415
2590,60919;2,51332
2588,55804;2,51311
2586,50688;2,51519
2584,45573;2,51847
2582,40457;2,52062
2580,35342;2,51925
2578,30226;2,51581
2576,2511;2,51624
2574,19995;2,52097
2572,14879;2,52296
2570,09764;2,51979
2568,04648;2,51511
2565,99533;2,51299
2563,94417;2,51485
2561,89302;2,51895
2559,84186;2,52375
2557,79071;2,52844
2555,73955;2,53308
2553,6884;2,5343
2551,63724;2,5305
2549,58609;2,52886
2547,53493;2,53183
2545,48377;2,53566
2543,43262;2,53975
2541,38146;2,54378
2539,33031;2,54664
2537,27915;2,54979
2535,228;2,55502
2533,17684;2,5636
2531,12569;2,57479
2529,07453;2,58525
2527,02338;2,59184
2524,97222;2,59516
2522,92107;2,59953
2520,86991;2,6056
2518,81876;2,61011
2516,7676;2,61115
2514,71644;2,60937
2512,66529;2,60742
2510,61413;2,60604
2508,56298;2,60403
2506,51182;2,60059
2504,46067;2,59602
2502,40951;2,59024
2500,35836;2,58418
2498,3072;2,57995
2496,25605;2,57105
2494,20489;2,55448
2492,15374;2,54129
2490,10258;2,53304
2488,05143;2,52244
2486,00027;2,51075
2483,94911;2,50006
2481,89796;2,48952
2479,8468;2,47903
2477,79565;2,46688
2475,74449;2,45435
2473,69334;2,44504
2471,64218;2,43666
2469,59103;2,42638
2467,53987;2,41781
2465,48872;2,41216
2463,43756;2,40523
2461,38641;2,39751
2459,33525;2,39195
2457,2841;2,38771
2455,23294;2,38294
2453,18178;2,37831
2451,13063;2,37571
2449,07947;2,37295
2447,02832;2,36688
2444,97716;2,35966
2442,92601;2,35497
2440,87485;2,35287
2438,8237;2,35143
2436,77254;2,34971
2434,72139;2,34724
2432,67023;2,34331
2430,61908;2,3386
2428,56792;2,33442
2426,51677;2,33176
2424,46561;2,3316
2422,41445;2,33225
2420,3633;2,33106
2418,31214;2,32755
2416,26099;2,32327
2414,20983;2,32049
2412,15868;2,31938
2410,10752;2,31821
2408,05637;2,31581
2406,00521;2,31325
2403,95406;2,31216
2401,9029;2,31057
2399,85175;2,30787
2397,80059;2,30676
2395,74944;2,30775
2393,69828;2,30847
2391,64712;2,30786
2389,59597;2,30689
2387,54481;2,30631
2385,49366;2,30649
2383,4425;2,30758
2381,39135;2,3088
2379,34019;2,30813
2377,28904;2,30411
2375,23788;2,29873
2373,18673;2,29721
2371,13557;2,30193
2369,08442;2,3084
2367,03326;2,31197
2364,9821;2,31089
2362,93095;2,30549
2360,87979;2,30227
2358,82864;2,30671
2356,77748;2,31466
2354,72633;2,31928
2352,67517;2,31793
2350,62402;2,31321
2348,57286;2,31065
2346,52171;2,31193
2344,47055;2,31323
2342,4194;2,31239
2340,36824;2,3114
2338,31709;2,30966
2336,26593;2,30724
2334,21477;2,30728
2332,16362;2,30937
2330,11246;2,31025
2328,06131;2,30997
2326,01015;2,31057
2323,959;2,31099
2321,90784;2,31014
2319,85669;2,31072
2317,80553;2,31298
2315,75438;2,31367
2313,70322;2,31295
2311,65207;2,31254
2309,60091;2,31194
2307,54976;2,31115
2305,4986;2,31066
2303,44744;2,31075
2301,39629;2,31186
2299,34513;2,31321
2297,29398;2,31355
2295,24282;2,31275
2293,19167;2,31106
2291,14051;2,30909
2289,08936;2,30857
2287,0382;2,31005
2284,98705;2,31124
2282,93589;2,31034
2280,88474;2,30861
2278,83358;2,30815
2276,78243;2,30898
2274,73127;2,31018
2272,68011;2,31123
2270,62896;2,31167
2268,5778;2,31236
2266,52665;2,31382
2264,47549;2,31491
2262,42434;2,31577
2260,37318;2,31748
2258,32203;2,31996
2256,27087;2,32218
2254,21972;2,32328
2252,16856;2,32336
2250,11741;2,32384
2248,06625;2,3262
2246,0151;2,32918
2243,96394;2,33053
2241,91278;2,33031
2239,86163;2,33139
2237,81047;2,33439
2235,75932;2,33722
2233,70816;2,33979
2231,65701;2,34204
2229,60585;2,34395
2227,5547;2,34654
2225,50354;2,34824
2223,45239;2,3483
2221,40123;2,34942
2219,35008;2,3518
2217,29892;2,35408
2215,24777;2,3558
2213,19661;2,35571
2211,14545;2,3553
2209,0943;2,35737
2207,04314;2,36023
2204,99199;2,36134
2202,94083;2,36139
2200,88968;2,36169
2198,83852;2,36288
2196,78737;2,36375
2194,73621;2,36285
2192,68506;2,36289
2190,6339;2,36589
2188,58275;2,36958
2186,53159;2,37193
2184,48044;2,37287
2182,42928;2,3731
2180,37812;2,37263
2178,32697;2,37156
2176,27581;2,37271
2174,22466;2,37665
2172,1735;2,3799
2170,12235;2,38222
2168,07119;2,38522
2166,02004;2,38848
2163,96888;2,39207
2161,91773;2,39629
2159,86657;2,40065
2157,81542;2,406
2155,76426;2,41292
2153,71311;2,42017
2151,66195;2,42667
2149,61079;2,43162
2147,55964;2,43452
2145,50848;2,43611
2143,45733;2,43771
2141,40617;2,44032
2139,35502;2,44326
2137,30386;2,44409
2135,25271;2,44214
2133,20155;2,4383
2131,1504;2,43411
2129,09924;2,43086
2127,04809;2,42676
2124,99693;2,42132
2122,94578;2,41709
2120,89462;2,41382
2118,84346;2,40827
2116,79231;2,40069
2114,74115;2,39462
2112,69;2,39075
2110,63884;2,38777
2108,58769;2,38578
2106,53653;2,38507
2104,48538;2,38466
2102,43422;2,3837
2100,38307;2,38306
2098,33191;2,38232
2096,28076;2,38113
2094,2296;2,38124
2092,17844;2,38276
2090,12729;2,38376
2088,07613;2,38256
2086,02498;2,37965
2083,97382;2,37818
2081,92267;2,37959
2079,87151;2,38199
2077,82036;2,38378
2075,7692;2,38505
2073,71805;2,38604
2071,66689;2,38676
2069,61574;2,38768
2067,56458;2,389
2065,51343;2,38932
2063,46227;2,3889
2061,41111;2,38835
2059,35996;2,38792
2057,3088;2,38936
2055,25765;2,39249
2053,20649;2,39415
2051,15534;2,39345
2049,10418;2,39337
2047,05303;2,39424
2045,00187;2,39549
2042,95072;2,39799
2040,89956;2,39932
2038,84841;2,3983
2036,79725;2,39818
2034,7461;2,40122
2032,69494;2,40561
2030,64378;2,4074
2028,59263;2,40683
2026,54147;2,40746
2024,49032;2,40799
2022,43916;2,40747
2020,38801;2,40962
2018,33685;2,41309
2016,2857;2,41225
2014,23454;2,40911
2012,18339;2,40908
2010,13223;2,41122
2008,08108;2,41404
2006,02992;2,41768
2003,97877;2,41943
2001,92761;2,41873
1999,87645;2,41756
1997,8253;2,41671
1995,77414;2,41717
1993,72299;2,41843
1991,67183;2,42017
1989,62068;2,42299
1987,56952;2,42543
1985,51837;2,42679
1983,46721;2,42778
1981,41606;2,43039
1979,3649;2,43314
1977,31375;2,43345
1975,26259;2,43177
1973,21144;2,43008
1971,16028;2,43218
1969,10912;2,43912
1967,05797;2,44681
1965,00681;2,45334
1962,95566;2,45939
1960,9045;2,46259
1958,85335;2,46043
1956,80219;2,45536
1954,75104;2,4509
1952,69988;2,44739
1950,64873;2,44508
1948,59757;2,44582
1946,54642;2,44935
1944,49526;2,45273
1942,44411;2,45392
1940,39295;2,45332
1938,34179;2,45125
1936,29064;2,45176
1934,23948;2,45607
1932,18833;2,45972
1930,13717;2,46099
1928,08602;2,46227
1926,03486;2,46569
1923,98371;2,46943
1921,93255;2,47183
1919,8814;2,47248
1917,83024;2,47309
1915,77909;2,47623
1913,72793;2,47881
1911,67678;2,47907
1909,62562;2,47698
1907,57446;2,47609
1905,52331;2,48028
1903,47215;2,48767
1901,421;2,49385
1899,36984;2,49597
1897,31869;2,49452
1895,26753;2,49503
1893,21638;2,501
1891,16522;2,50593
1889,11407;2,50685
1887,06291;2,51014
1885,01176;2,51566
1882,9606;2,51766
1880,90945;2,51679
1878,85829;2,51823
1876,80713;2,52104
1874,75598;2,52356
1872,70482;2,52873
1870,65367;2,53529
1868,60251;2,53969
1866,55136;2,54198
1864,5002;2,54334
1862,44905;2,54596
1860,39789;2,5511
1858,34674;2,5562
1856,29558;2,55903
1854,24443;2,56168
1852,19327;2,56474
1850,14212;2,56705
1848,09096;2,5715
1846,0398;2,57733
1843,98865;2,57995
1841,93749;2,58241
1839,88634;2,58853
1837,83518;2,59965
1835,78403;2,61123
1833,73287;2,61642
1831,68172;2,6185
1829,63056;2,62731
1827,57941;2,64066
1825,52825;2,64775
1823,4771;2,65198
1821,42594;2,65778
1819,37478;2,66363
1817,32363;2,6709
1815,27247;2,68202
1813,22132;2,69642
1811,17016;2,71162
1809,11901;2,72528
1807,06785;2,7369
1805,0167;2,74939
1802,96554;2,76627
1800,91439;2,7883
1798,86323;2,81019
1796,81208;2,82316
1794,76092;2,82542
1792,70977;2,82084
1790,65861;2,81293
1788,60745;2,80179
1786,5563;2,78799
1784,50514;2,77689
1782,45399;2,77014
1780,40283;2,76394
1778,35168;2,75963
1776,30052;2,75896
1774,24937;2,75771
1772,19821;2,75378
1770,14706;2,75175
1768,0959;2,74987
1766,04475;2,74836
1763,99359;2,7506
1761,94244;2,75993
1759,89128;2,77337
1757,84012;2,77931
1755,78897;2,78023
1753,73781;2,78626
1751,68666;2,79881
1749,6355;2,81267
1747,58435;2,81769
1745,53319;2,81764
1743,48204;2,82226
1741,43088;2,82692
1739,37973;2,82693
1737,32857;2,82752
1735,27742;2,83097
1733,22626;2,84609
1731,17511;2,86653
1729,12395;2,87575
1727,07279;2,87517
1725,02164;2,87284
1722,97048;2,8765
1720,91933;2,88705
1718,86817;2,90088
1716,81702;2,9169
1714,76586;2,92689
1712,71471;2,93303
1710,66355;2,94596
1708,6124;2,96532
1706,56124;2,98707
1704,51009;3,01352
1702,45893;3,04438
1700,40778;3,07923
1698,35662;3,11407
1696,30546;3,13123
1694,25431;3,1314
1692,20315;3,13335
1690,152;3,15227
1688,10084;3,17718
1686,04969;3,18003
1683,99853;3,16505
1681,94738;3,15696
1679,89622;3,1534
1677,84507;3,15325
1675,79391;3,16052
1673,74276;3,16698
1671,6916;3,15276
1669,64045;3,12327
1667,58929;3,10299
1665,53813;3,08714
1663,48698;3,06571
1661,43582;3,05695
1659,38467;3,06658
1657,33351;3,07274
1655,28236;3,05409
1653,2312;3,02245
1651,18005;3,02042
1649,12889;3,02719
1647,07774;3,01475
1645,02658;3,00321
1642,97543;3,00309
1640,92427;2,99814
1638,87312;2,98156
1636,82196;2,95961
1634,7708;2,95201
1632,71965;2,95838
1630,66849;2,95406
1628,61734;2,94331
1626,56618;2,94016
1624,51503;2,93918
1622,46387;2,93875
1620,41272;2,94294
1618,36156;2,94437
1616,31041;2,9385
1614,25925;2,93095
1612,2081;2,92775
1610,15694;2,92716
1608,10579;2,92295
1606,05463;2,9158
1604,00347;2,90844
1601,95232;2,9025
1599,90116;2,90146
1597,85001;2,9039
1595,79885;2,90546
1593,7477;2,90722
1591,69654;2,91042
1589,64539;2,91222
1587,59423;2,91311
1585,54308;2,91649
1583,49192;2,91984
1581,44077;2,91832
1579,38961;2,91289
1577,33846;2,90579
1575,2873;2,90444
1573,23614;2,909
1571,18499;2,90629
1569,13383;2,89814
1567,08268;2,89302
1565,03152;2,89103
1562,98037;2,89402
1560,92921;2,89392
1558,87806;2,88401
1556,8269;2,87102
1554,77575;2,85539
1552,72459;2,84472
1550,67344;2,84008
1548,62228;2,83862
1546,57113;2,84083
1544,51997;2,84366
1542,46881;2,84037
1540,41766;2,82486
1538,3665;2,81293
1536,31535;2,80955
1534,26419;2,80237
1532,21304;2,79805
1530,16188;2,79789
1528,11073;2,79231
1526,05957;2,78454
1524,00842;2,78062
1521,95726;2,77835
1519,90611;2,78048
1517,85495;2,78014
1515,80379;2,76804
1513,75264;2,75033
1511,70148;2,73878
1509,65033;2,7339
1507,59917;2,72097
1505,54802;2,70142
1503,49686;2,68795
1501,44571;2,6764
1499,39455;2,66378
1497,3434;2,64991
1495,29224;2,63689
1493,24109;2,62702
1491,18993;2,61681
1489,13878;2,60529
1487,08762;2,59572
1485,03646;2,59175
1482,98531;2,59066
1480,93415;2,59065
1478,883;2,59648
1476,83184;2,6106
1474,78069;2,62788
1472,72953;2,64165
1470,67838;2,65521
1468,62722;2,66614
1466,57607;2,6714
1464,52491;2,67901
1462,47376;2,69512
1460,4226;2,71329
1458,37145;2,72515
1456,32029;2,73122
1454,26913;2,7353
1452,21798;2,73555
1450,16682;2,73333
1448,11567;2,72883
1446,06451;2,7242
1444,01336;2,72303
1441,9622;2,72373
1439,91105;2,71769
1437,85989;2,6994
1435,80874;2,68496
1433,75758;2,68482
1431,70643;2,68378
1429,65527;2,67808
1427,60412;2,67404
1425,55296;2,66841
1423,5018;2,66042
1421,45065;2,65232
1419,39949;2,64337
1417,34834;2,63863
1415,29718;2,63696
1413,24603;2,6344
1411,19487;2,63142
1409,14372;2,63022
1407,09256;2,63352
1405,04141;2,64492
1402,99025;2,66296
1400,9391;2,67717
1398,88794;2,68397
1396,83679;2,68993
1394,78563;2,6996
1392,73447;2,71485
1390,68332;2,73084
1388,63216;2,74075
1386,58101;2,74447
1384,52985;2,7451
1382,4787;2,74387
1380,42754;2,74285
1378,37639;2,74371
1376,32523;2,74726
1374,27408;2,753
1372,22292;2,7586
1370,17177;2,76041
1368,12061;2,76064
1366,06946;2,76515
1364,0183;2,77336
1361,96714;2,78008
1359,91599;2,78285
1357,86483;2,7845
1355,81368;2,7889
1353,76252;2,7966
1351,71137;2,80324
1349,66021;2,80439
1347,60906;2,80314
1345,5579;2,80462
1343,50675;2,80864
1341,45559;2,81116
1339,40444;2,81439
1337,35328;2,8214
1335,30213;2,82364
1333,25097;2,81949
1331,19981;2,817
1329,14866;2,81715
1327,0975;2,81831
1325,04635;2,82235
1322,99519;2,82823
1320,94404;2,83267
1318,89288;2,83525
1316,84173;2,83637
1314,79057;2,83508
1312,73942;2,83324
1310,68826;2,83255
1308,63711;2,83093
1306,58595;2,82911
1304,5348;2,82723
1302,48364;2,82422
1300,43248;2,82268
1298,38133;2,82481
1296,33017;2,82954
1294,27902;2,83244
1292,22786;2,8303
1290,17671;2,82717
1288,12555;2,82786
1286,0744;2,8322
1284,02324;2,83531
1281,97209;2,83372
1279,92093;2,83164
1277,86978;2,83254
1275,81862;2,83444
1273,76747;2,83705
1271,71631;2,83799
1269,66515;2,8376
1267,614;2,84161
1265,56284;2,84793
1263,51169;2,85366
1261,46053;2,86074
1259,40938;2,86551
1257,35822;2,86692
1255,30707;2,87184
1253,25591;2,87699
1251,20476;2,86888
1249,1536;2,85414
1247,10245;2,85227
1245,05129;2,8621
1243,00013;2,86991
1240,94898;2,87129
1238,89782;2,86971
1236,84667;2,86929
1234,79551;2,86726
1232,74436;2,86148
1230,6932;2,85752
1228,64205;2,85595
1226,59089;2,8585
1224,53974;2,86574
1222,48858;2,86586
1220,43743;2,85944
1218,38627;2,85938
1216,33512;2,86664
1214,28396;2,87221
1212,2328;2,87339
1210,18165;2,88147
1208,13049;2,89433
1206,07934;2,89422
1204,02818;2,89045
1201,97703;2,90048
1199,92587;2,91032
1197,87472;2,90583
1195,82356;2,90134
1193,77241;2,90567
1191,72125;2,91477
1189,6701;2,92516
1187,61894;2,93403
1185,56779;2,93611
1183,51663;2,93085
1181,46547;2,93434
1179,41432;2,95273
1177,36316;2,97385
1175,31201;2,97952
1173,26085;2,96871
1171,2097;2,96558
1169,15854;2,96902
1167,10739;2,96759
1165,05623;2,96943
1163,00508;2,9721
1160,95392;2,97061
1158,90277;2,96937
1156,85161;2,9718
1154,80046;2,98852
1152,7493;3,01116
1150,69814;3,00855
1148,64699;2,99257
1146,59583;2,99036
1144,54468;2,99176
1142,49352;2,98378
1140,44237;2,98003
1138,39121;2,98764
1136,34006;2,98585
1134,2889;2,9707
1132,23775;2,9655
1130,18659;2,97293
1128,13544;2,9799
1126,08428;2,9848
1124,03313;2,98876
1121,98197;2,99778
1119,93081;3,01753
1117,87966;3,03542
1115,8285;3,04292
1113,77735;3,04487
1111,72619;3,03435
1109,67504;3,01897
1107,62388;3,00168
1105,57273;2,97901
1103,52157;2,97454
1101,47042;2,99041
1099,41926;2,99546
1097,36811;2,98006
1095,31695;2,96862
1093,2658;2,97442
1091,21464;2,98725
1089,16348;2,99139
1087,11233;2,97835
1085,06117;2,96441
1083,01002;2,96021
1080,95886;2,9585
1078,90771;2,95644
1076,85655;2,95364
1074,8054;2,9556
1072,75424;2,9629
1070,70309;2,96657
1068,65193;2,96806
1066,60078;2,96954
1064,54962;2,9699
1062,49847;2,96944
1060,44731;2,967
1058,39615;2,95592
1056,345;2,93379
1054,29384;2,91084
1052,24269;2,89857
1050,19153;2,89675
1048,14038;2,89428
1046,08922;2,88318
1044,03807;2,86983
1041,98691;2,86573
1039,93576;2,87025
1037,8846;2,8688
1035,83345;2,85371
1033,78229;2,83218
1031,73114;2,8157
1029,67998;2,80963
1027,62882;2,80999
1025,57767;2,80921
1023,52651;2,80818
1021,47536;2,81375
1019,4242;2,81796
1017,37305;2,80404
1015,32189;2,78522
1013,27074;2,78188
1011,21958;2,79054
1009,16843;2,80017
1007,11727;2,80321
1005,06612;2,79892
1003,01496;2,79485
1000,96381;2,7955
998,91265;2,79864
996,86149;2,80052
994,81034;2,8009
992,75918;2,79863
990,70803;2,79296
988,65687;2,78922
986,60572;2,7929
984,55456;2,79923
982,50341;2,80339
980,45225;2,80899
978,4011;2,8105
976,34994;2,80392
974,29879;2,79962
972,24763;2,79914
970,19647;2,79824
968,14532;2,8045
966,09416;2,82222
964,04301;2,83719
961,99185;2,83822
959,9407;2,83345
957,88954;2,8293
955,83839;2,82569
953,78723;2,82706
951,73608;2,83278
949,68492;2,83634
947,63377;2,83615
945,58261;2,83643
943,53146;2,84323
941,4803;2,85123
939,42914;2,8562
937,37799;2,85828
935,32683;2,8578
933,27568;2,85949
931,22452;2,86393
929,17337;2,87037
927,12221;2,87939
925,07106;2,88236
923,0199;2,87589
920,96875;2,86977
918,91759;2,87252
916,86644;2,87631
914,81528;2,87243
912,76413;2,8652
910,71297;2,86541
908,66181;2,87559
906,61066;2,8772
904,5595;2,86293
902,50835;2,85528
900,45719;2,85825
898,40604;2,85883
896,35488;2,85785
894,30373;2,85614
892,25257;2,83734
890,20142;2,79123
888,15026;2,7485
886,09911;2,74071
884,04795;2,75737
881,9968;2,77387
879,94564;2,78626
877,89448;2,80455
875,84333;2,82172
873,79217;2,8188
871,74102;2,81576
869,68986;2,84478
867,63871;2,88855
865,58755;2,91027
863,5364;2,91841
861,48524;2,92624
859,43409;2,91958
857,38293;2,90145
855,33178;2,89588
853,28062;2,90844
851,22947;2,93019
849,17831;2,94281
847,12715;2,93614
845,076;2,91303
843,02484;2,89098
840,97369;2,88269
838,92253;2,89653
836,87138;2,92497
834,82022;2,94148
832,76907;2,93727
830,71791;2,94049
828,66676;2,95496
826,6156;2,956
824,56445;2,94003
822,51329;2,93763
820,46214;2,94643
818,41098;2,93323
816,35982;2,91646
814,30867;2,93621
812,25751;2,97311
810,20636;2,98251
808,1552;2,96253
806,10405;2,95185
804,05289;2,97194
802,00174;2,99524
799,95058;2,99869
797,89943;2,99976
795,84827;3,01447
793,79712;3,02283
791,74596;3,01568
789,69481;3,00094
787,64365;2,9849
785,59249;2,97889
783,54134;2,98731
781,49018;3,00986
779,43903;3,00923
777,38787;2,99268
775,33672;3,00931
773,28556;3,0437
771,23441;3,03154
769,18325;2,98517
767,1321;2,95516
765,08094;2,95762
763,02979;2,97439
760,97863;2,98906
758,92748;3,00966
756,87632;3,04336
754,82516;3,06482
752,77401;3,06681
750,72285;3,08049
748,6717;3,08948
746,62054;3,05334
744,56939;3,016
742,51823;3,01899
740,46708;3,05274
738,41592;3,08403
736,36477;3,09341
734,31361;3,07978
732,26246;3,05684
730,2113;3,03908
728,16015;3,04526
726,10899;3,06893
724,05783;3,09579
722,00668;3,12052
719,95552;3,14734
717,90437;3,15212
715,85321;3,11811
713,80206;3,07765
711,7509;3,06648
709,69975;3,07727
707,64859;3,07691
705,59744;3,07114
703,54628;3,06859
701,49513;3,06376
699,44397;3,07731
697,39281;3,09588
695,34166;3,08071
693,2905;3,04738
691,23935;3,02455
689,18819;3,02288
687,13704;3,04065
685,08588;3,06175
683,03473;3,07488
680,98357;3,085
678,93242;3,06992
676,88126;3,02775
674,83011;3,01058
672,77895;3,03383
670,7278;3,06404
668,67664;3,07072
666,62548;3,05458
664,57433;3,04423
662,52317;3,02999
660,47202;3,00861
658,42086;3,00332
656,36971;3,00973
654,31855;3,00352
652,2674;2,99794
650,21624;3,02862
648,16509;3,07504
646,11393;3,06783
644,06278;2,99864
642,01162;2,92034
639,96047;2,85995
637,90931;2,82174
635,85815;2,81455
633,807;2,84489
631,75584;2,88324
629,70469;2,88763
627,65353;2,872
625,60238;2,87547
623,55122;2,87313
621,50007;2,8671
619,44891;2,87306
617,39776;2,87333
615,3466;2,85979
613,29545;2,82962
611,24429;2,79492
609,19314;2,78353
607,14198;2,79723
605,09082;2,80684
603,03967;2,7933
600,98851;2,78091
598,93736;2,7953
596,8862;2,79674
594,83505;2,7571
592,78389;2,72263
590,73274;2,7018
588,68158;2,6798
586,63043;2,67868
584,57927;2,6975
582,52812;2,69175
580,47696;2,66286
578,42581;2,65632
576,37465;2,67092
574,32349;2,67139
572,27234;2,64218
570,22118;2,60682
568,17003;2,59692
566,11887;2,61067
564,06772;2,6164
562,01656;2,58849
559,96541;2,55568
557,91425;2,55441
555,8631;2,57227
553,81194;2,57832
551,76079;2,56469
549,70963;2,55384
547,65848;2,56317
545,60732;2,57792
543,55616;2,56617
541,50501;2,54025
539,45385;2,52899
537,4027;2,51756
535,35154;2,49379
533,30039;2,46911
531,24923;2,45196
529,19808;2,44977
527,14692;2,4646
525,09577;2,48859
523,04461;2,49999
520,99346;2,49228
518,9423;2,48434
516,89115;2,48036
514,83999;2,48138
512,78883;2,49848
510,73768;2,52905
508,68652;2,54155
506,63537;2,51402
504,58421;2,4712
502,53306;2,45925
500,4819;2,4815
498,43075;2,49508
496,37959;2,48826
494,32844;2,47655
492,27728;2,46936
490,22613;2,47357
488,17497;2,47684
486,12382;2,46966
484,07266;2,45387
482,0215;2,43149
479,97035;2,41459
477,91919;2,40701
475,86804;2,39898
473,81688;2,38294
471,76573;2,3642
469,71457;2,34806
467,66342;2,33378
465,61226;2,32879
463,56111;2,33492
461,50995;2,3444
459,4588;2,34136
457,40764;2,32141
455,35649;2,3059
453,30533;2,29403
451,25417;2,27837
449,20302;2,27009
447,15186;2,27092
445,10071;2,27258
443,04955;2,27214
440,9984;2,27083
438,94724;2,27392
436,89609;2,29031
434,84493;2,31435
432,79378;2,32677
430,74262;2,32014
428,69147;2,3048
426,64031;2,29945
424,58916;2,306
422,538;2,31752
420,48684;2,3625
418,43569;2,44481
416,38453;2,45918
414,33338;2,37995
412,28222;2,30223
410,23107;2,27942
408,17991;2,30042
406,12876;2,32977
404,0776;2,34411
402,02645;2,35659
399,97529;2,38782
