3997,70175;1,88886
3995,6506;1,88936
3993,59944;1,88855
3991,54829;1,88788
3989,49713;1,88929
3987,44598;1,89229
3985,39482;1,89518
3983,34367;1,89608
3981,29251;1,89544
3979,24136;1,89585
3977,1902;1,89851
3975,13905;1,90116
3973,08789;1,90069
3971,03673;1,8992
3968,98558;1,90002
3966,93442;1,90241
3964,88327;1,90433
3962,83211;1,90486
3960,78096;1,906
3958,7298;1,909
3956,67865;1,91178
3954,62749;1,9135
3952,57634;1,9159
3950,52518;1,91939
3948,47403;1,92246
3946,42287;1,92493
3944,37172;1,92564
3942,32056;1,92331
3940,2694;1,92009
3938,21825;1,91884
3936,16709;1,91957
3934,11594;1,91938
3932,06478;1,91713
3930,01363;1,91418
3927,96247;1,9113
3925,91132;1,9081
3923,86016;1,90432
3921,80901;1,89952
3919,75785;1,89349
3917,7067;1,88759
3915,65554;1,88384
3913,60439;1,88199
3911,55323;1,88022
3909,50207;1,87856
3907,45092;1,87762
3905,39976;1,87769
3903,34861;1,8783
3901,29745;1,87619
3899,2463;1,87128
3897,19514;1,86906
3895,14399;1,87004
3893,09283;1,87067
3891,04168;1,87095
3888,99052;1,87178
3886,93937;1,87024
3884,88821;1,86922
3882,83706;1,86984
3880,7859;1,86827
3878,73474;1,86761
3876,68359;1,86811
3874,63243;1,8684
3872,58128;1,86951
3870,53012;1,86881
3868,47897;1,86842
3866,42781;1,8684
3864,37666;1,86637
3862,3255;1,8634
3860,27435;1,86064
3858,22319;1,85913
3856,17204;1,8565
3854,12088;1,85213
3852,06973;1,85193
3850,01857;1,8536
3847,96741;1,85343
3845,91626;1,85259
3843,8651;1,85171
3841,81395;1,85148
3839,76279;1,85084
3837,71164;1,84928
3835,66048;1,84866
3833,60933;1,84888
3831,55817;1,84924
3829,50702;1,8499
3827,45586;1,85031
3825,40471;1,85196
3823,35355;1,85279
3821,3024;1,85123
3819,25124;1,85119
3817,20008;1,84883
3815,14893;1,8455
3813,09777;1,84559
3811,04662;1,84647
3808,99546;1,84615
3806,94431;1,84644
3804,89315;1,84996
3802,842;1,85111
3800,79084;1,85037
3798,73969;1,85083
3796,68853;1,84945
3794,63738;1,84826
3792,58622;1,84777
3790,53506;1,84712
3788,48391;1,8472
3786,43275;1,84832
3784,3816;1,85107
3782,33044;1,8551
3780,27929;1,85764
3778,22813;1,85809
3776,17698;1,8572
3774,12582;1,85664
3772,07467;1,85744
3770,02351;1,85876
3767,97236;1,8602
3765,9212;1,86114
3763,87005;1,86378
3761,81889;1,86667
3759,76773;1,86712
3757,71658;1,8672
3755,66542;1,86872
3753,61427;1,8702
3751,56311;1,87083
3749,51196;1,87361
3747,4608;1,87779
3745,40965;1,87812
3743,35849;1,88086
3741,30734;1,88842
3739,25618;1,89433
3737,20503;1,89825
3735,15387;1,9018
3733,10272;1,90478
3731,05156;1,90854
3729,0004;1,91386
3726,94925;1,91805
3724,89809;1,92107
3722,84694;1,92346
3720,79578;1,92576
3718,74463;1,92895
3716,69347;1,93387
3714,64232;1,93958
3712,59116;1,94455
3710,54001;1,94938
3708,48885;1,95468
3706,4377;1,96205
3704,38654;1,97497
3702,33539;1,99676
3700,28423;2,02628
3698,23307;2,05509
3696,18192;2,07765
3694,13076;2,09343
3692,07961;2,10004
3690,02845;2,09558
3687,9773;2,0864
3685,92614;2,08211
3683,87499;2,08291
3681,82383;2,0877
3679,77268;2,09745
3677,72152;2,11115
3675,67037;2,12774
3673,61921;2,14612
3671,56806;2,15964
3669,5169;2,17216
3667,46574;2,18736
3665,41459;2,20099
3663,36343;2,21591
3661,31228;2,23655
3659,26112;2,26225
3657,20997;2,28802
3655,15881;2,3115
3653,10766;2,33393
3651,0565;2,36012
3649,00535;2,39767
3646,95419;2,44062
3644,90304;2,47291
3642,85188;2,48809
3640,80073;2,48988
3638,74957;2,48387
3636,69841;2,47814
3634,64726;2,4796
3632,5961;2,48673
3630,54495;2,49299
3628,49379;2,49757
3626,44264;2,50163
3624,39148;2,50431
3622,34033;2,50599
3620,28917;2,50575
3618,23802;2,50895
3616,18686;2,52149
3614,13571;2,53829
3612,08455;2,55103
3610,0334;2,55672
3607,98224;2,55768
3605,93108;2,55685
3603,87993;2,55675
3601,82877;2,55951
3599,77762;2,56678
3597,72646;2,57465
3595,67531;2,57635
3593,62415;2,57662
3591,573;2,58629
3589,52184;2,60384
3587,47069;2,61418
3585,41953;2,61075
3583,36838;2,60753
3581,31722;2,61221
3579,26607;2,61995
3577,21491;2,6284
3575,16375;2,63719
3573,1126;2,63995
3571,06144;2,63718
3569,01029;2,63934
3566,95913;2,64694
3564,90798;2,65246
3562,85682;2,65427
3560,80567;2,65076
3558,75451;2,64472
3556,70336;2,64474
3554,6522;2,65298
3552,60105;2,66224
3550,54989;2,66429
3548,49874;2,66153
3546,44758;2,66399
3544,39642;2,67536
3542,34527;2,68916
3540,29411;2,69467
3538,24296;2,6903
3536,1918;2,68548
3534,14065;2,68267
3532,08949;2,68005
3530,03834;2,68408
3527,98718;2,69656
3525,93603;2,70604
3523,88487;2,70641
3521,83372;2,70613
3519,78256;2,70751
3517,73141;2,70618
3515,68025;2,70407
3513,62909;2,70341
3511,57794;2,70352
3509,52678;2,70327
3507,47563;2,70388
3505,42447;2,70742
3503,37332;2,71372
3501,32216;2,71998
3499,27101;2,72388
3497,21985;2,72786
3495,1687;2,7306
3493,11754;2,72555
3491,06639;2,71417
3489,01523;2,70428
3486,96407;2,6989
3484,91292;2,69849
3482,86176;2,70637
3480,81061;2,7188
3478,75945;2,72414
3476,7083;2,72222
3474,65714;2,72068
3472,60599;2,71945
3470,55483;2,72162
3468,50368;2,73113
3466,45252;2,73754
3464,40137;2,73605
3462,35021;2,73451
3460,29906;2,73403
3458,2479;2,73336
3456,19674;2,73146
3454,14559;2,72201
3452,09443;2,70538
3450,04328;2,69548
3447,99212;2,70014
3445,94097;2,71117
3443,88981;2,71943
3441,83866;2,72186
3439,7875;2,71915
3437,73635;2,7231
3435,68519;2,73091
3433,63404;2,7229
3431,58288;2,71285
3429,53173;2,71669
3427,48057;2,72221
3425,42941;2,7271
3423,37826;2,73528
3421,3271;2,73852
3419,27595;2,73512
3417,22479;2,73447
3415,17364;2,73625
3413,12248;2,73776
3411,07133;2,74081
3409,02017;2,73871
3406,96902;2,73581
3404,91786;2,74288
3402,86671;2,74965
3400,81555;2,74416
3398,7644;2,72824
3396,71324;2,71405
3394,66208;2,71534
3392,61093;2,72901
3390,55977;2,73652
3388,50862;2,73172
3386,45746;2,7252
3384,40631;2,72477
3382,35515;2,72619
3380,304;2,72209
3378,25284;2,71767
3376,20169;2,71574
3374,15053;2,71577
3372,09938;2,72305
3370,04822;2,72969
3367,99707;2,72726
3365,94591;2,72703
3363,89475;2,73425
3361,8436;2,73739
3359,79244;2,73228
3357,74129;2,73395
3355,69013;2,74773
3353,63898;2,75311
3351,58782;2,74093
3349,53667;2,72363
3347,48551;2,71361
3345,43436;2,71614
3343,3832;2,72916
3341,33205;2,74241
3339,28089;2,74078
3337,22974;2,72721
3335,17858;2,71673
3333,12742;2,71229
3331,07627;2,71428
3329,02511;2,71965
3326,97396;2,71907
3324,9228;2,71383
3322,87165;2,71098
3320,82049;2,71286
3318,76934;2,72051
3316,71818;2,73216
3314,66703;2,73735
3312,61587;2,72937
3310,56472;2,71896
3308,51356;2,71935
3306,46241;2,72621
3304,41125;2,72397
3302,36009;2,71334
3300,30894;2,70927
3298,25778;2,71247
3296,20663;2,71592
3294,15547;2,72013
3292,10432;2,72146
3290,05316;2,71573
3288,00201;2,71023
3285,95085;2,71074
3283,8997;2,71333
3281,84854;2,71266
3279,79739;2,70583
3277,74623;2,69783
3275,69508;2,69524
3273,64392;2,69686
3271,59276;2,69973
3269,54161;2,6987
3267,49045;2,69553
3265,4393;2,69911
3263,38814;2,70547
3261,33699;2,70559
3259,28583;2,7005
3257,23468;2,69483
3255,18352;2,6893
3253,13237;2,68404
3251,08121;2,68213
3249,03006;2,68376
3246,9789;2,68284
3244,92775;2,68237
3242,87659;2,68661
3240,82543;2,68493
3238,77428;2,67662
3236,72312;2,67528
3234,67197;2,68184
3232,62081;2,68168
3230,56966;2,67476
3228,5185;2,67616
3226,46735;2,68328
3224,41619;2,68738
3222,36504;2,68931
3220,31388;2,68575
3218,26273;2,67743
3216,21157;2,67687
3214,16041;2,68453
3212,10926;2,68957
3210,0581;2,69098
3208,00695;2,68706
3205,95579;2,6778
3203,90464;2,67119
3201,85348;2,66821
3199,80233;2,66667
3197,75117;2,66667
3195,70002;2,66788
3193,64886;2,6697
3191,59771;2,67267
3189,54655;2,67443
3187,4954;2,67125
3185,44424;2,6677
3183,39308;2,67134
3181,34193;2,67804
3179,29077;2,67534
3177,23962;2,668
3175,18846;2,66842
3173,13731;2,66778
3171,08615;2,65775
3169,035;2,64731
3166,98384;2,64293
3164,93269;2,64515
3162,88153;2,65033
3160,83038;2,65271
3158,77922;2,65259
3156,72807;2,64869
3154,67691;2,64259
3152,62575;2,6421
3150,5746;2,64658
3148,52344;2,64964
3146,47229;2,6495
3144,42113;2,64863
3142,36998;2,64811
3140,31882;2,6462
3138,26767;2,64187
3136,21651;2,63708
3134,16536;2,63603
3132,1142;2,63997
3130,06305;2,64394
3128,01189;2,64312
3125,96074;2,63997
3123,90958;2,63727
3121,85842;2,63342
3119,80727;2,63084
3117,75611;2,63527
3115,70496;2,64189
3113,6538;2,63801
3111,60265;2,62621
3109,55149;2,62295
3107,50034;2,63103
3105,44918;2,63654
3103,39803;2,6371
3101,34687;2,63805
3099,29572;2,63404
3097,24456;2,62504
3095,19341;2,61917
3093,14225;2,61798
3091,09109;2,62041
3089,03994;2,62526
3086,98878;2,6282
3084,93763;2,6271
3082,88647;2,62367
3080,83532;2,62017
3078,78416;2,61755
3076,73301;2,61651
3074,68185;2,61667
3072,6307;2,61735
3070,57954;2,61993
3068,52839;2,6242
3066,47723;2,62575
3064,42608;2,62117
3062,37492;2,6139
3060,32376;2,61002
3058,27261;2,61229
3056,22145;2,61659
3054,1703;2,61683
3052,11914;2,61246
3050,06799;2,60843
3048,01683;2,60787
3045,96568;2,60946
3043,91452;2,61311
3041,86337;2,61533
3039,81221;2,61176
3037,76106;2,60497
3035,7099;2,60073
3033,65875;2,60218
3031,60759;2,60554
3029,55643;2,60717
3027,50528;2,61004
3025,45412;2,61429
3023,40297;2,61595
3021,35181;2,61584
3019,30066;2,6164
3017,2495;2,61536
3015,19835;2,61253
3013,14719;2,61192
3011,09604;2,61109
3009,04488;2,60893
3006,99373;2,61197
3004,94257;2,61722
3002,89142;2,61683
3000,84026;2,61567
2998,7891;2,62136
2996,73795;2,62954
2994,68679;2,6342
2992,63564;2,63856
2990,58448;2,64465
2988,53333;2,65045
2986,48217;2,65447
2984,43102;2,65672
2982,37986;2,65934
2980,32871;2,66397
2978,27755;2,66884
2976,2264;2,67357
2974,17524;2,68199
2972,12409;2,69151
2970,07293;2,69957
2968,02177;2,71407
2965,97062;2,73013
2963,91946;2,7329
2961,86831;2,73167
2959,81715;2,73392
2957,766;2,72946
2955,71484;2,72263
2953,66369;2,72122
2951,61253;2,72292
2949,56138;2,72894
2947,51022;2,73797
2945,45907;2,74247
2943,40791;2,74422
2941,35675;2,7485
2939,3056;2,749
2937,25444;2,74242
2935,20329;2,73295
2933,15213;2,72165
2931,10098;2,71388
2929,04982;2,71427
2926,99867;2,71183
2924,94751;2,70072
2922,89636;2,69226
2920,8452;2,68891
2918,79405;2,68394
2916,74289;2,67779
2914,69174;2,67579
2912,64058;2,67412
2910,58942;2,66779
2908,53827;2,66284
2906,48711;2,66104
2904,43596;2,65886
2902,3848;2,6565
2900,33365;2,65582
2898,28249;2,65871
2896,23134;2,66473
2894,18018;2,6696
2892,12903;2,67014
2890,07787;2,66416
2888,02672;2,65555
2885,97556;2,65406
2883,92441;2,65723
2881,87325;2,65741
2879,82209;2,65509
2877,77094;2,65488
2875,71978;2,65872
2873,66863;2,65957
2871,61747;2,65569
2869,56632;2,65708
2867,51516;2,6654
2865,46401;2,67294
2863,41285;2,67787
2861,3617;2,68524
2859,31054;2,69331
2857,25939;2,69209
2855,20823;2,68055
2853,15708;2,66563
2851,10592;2,65035
2849,05476;2,63752
2847,00361;2,63091
2844,95245;2,62801
2842,9013;2,62181
2840,85014;2,60778
2838,79899;2,58727
2836,74783;2,56742
2834,69668;2,55266
2832,64552;2,5434
2830,59437;2,53672
2828,54321;2,53038
2826,49206;2,5269
2824,4409;2,52429
2822,38975;2,51826
2820,33859;2,50915
2818,28743;2,49914
2816,23628;2,48976
2814,18512;2,48382
2812,13397;2,48292
2810,08281;2,48113
2808,03166;2,47439
2805,9805;2,46765
2803,92935;2,46424
2801,87819;2,46166
2799,82704;2,45737
2797,77588;2,45436
2795,72473;2,45355
2793,67357;2,44937
2791,62242;2,44291
2789,57126;2,4385
2787,5201;2,43449
2785,46895;2,43145
2783,41779;2,43061
2781,36664;2,42942
2779,31548;2,42518
2777,26433;2,4194
2775,21317;2,41541
2773,16202;2,41251
2771,11086;2,4119
2769,05971;2,41474
2767,00855;2,41787
2764,9574;2,41901
2762,90624;2,41583
2760,85509;2,40941
2758,80393;2,40525
2756,75277;2,40435
2754,70162;2,40267
2752,65046;2,4
2750,59931;2,39794
2748,54815;2,39445
2746,497;2,3904
2744,44584;2,3887
2742,39469;2,38856
2740,34353;2,38888
2738,29238;2,38997
2736,24122;2,39052
2734,19007;2,38847
2732,13891;2,38557
2730,08776;2,38358
2728,0366;2,38182
2725,98544;2,38227
2723,93429;2,38279
2721,88313;2,37915
2719,83198;2,37587
2717,78082;2,37447
2715,72967;2,37194
2713,67851;2,37056
2711,62736;2,37108
2709,5762;2,37152
2707,52505;2,37233
2705,47389;2,37343
2703,42274;2,37325
2701,37158;2,3714
2699,32043;2,36972
2697,26927;2,36857
2695,21811;2,36538
2693,16696;2,36167
2691,1158;2,36204
2689,06465;2,36537
2687,01349;2,36667
2684,96234;2,36432
2682,91118;2,36124
2680,86003;2,36032
2678,80887;2,35995
2676,75772;2,35861
2674,70656;2,35838
2672,65541;2,35849
2670,60425;2,35715
2668,55309;2,3549
2666,50194;2,35306
2664,45078;2,35421
2662,39963;2,35641
2660,34847;2,35615
2658,29732;2,35469
2656,24616;2,35359
2654,19501;2,35293
2652,14385;2,35239
2650,0927;2,35285
2648,04154;2,35439
2645,99039;2,35491
2643,93923;2,3554
2641,88808;2,35795
2639,83692;2,36245
2637,78576;2,36844
2635,73461;2,37486
2633,68345;2,379
2631,6323;2,38039
2629,58114;2,38333
2627,52999;2,38887
2625,47883;2,39377
2623,42768;2,39703
2621,37652;2,39804
2619,32537;2,39928
2617,27421;2,40487
2615,22306;2,41054
2613,1719;2,41281
2611,12075;2,41688
2609,06959;2,42391
2607,01843;2,429
2604,96728;2,4304
2602,91612;2,42982
2600,86497;2,42992
2598,81381;2,4315
2596,76266;2,43338
2594,7115;2,43586
2592,66035;2,43735
2590,60919;2,43588
2588,55804;2,43435
2586,50688;2,43499
2584,45573;2,436
2582,40457;2,43489
2580,35342;2,43244
2578,30226;2,43337
2576,2511;2,43716
2574,19995;2,4384
2572,14879;2,43681
2570,09764;2,43598
2568,04648;2,43805
2565,99533;2,4391
2563,94417;2,43673
2561,89302;2,43595
2559,84186;2,43929
2557,79071;2,44341
2555,73955;2,44585
2553,6884;2,44672
2551,63724;2,44511
2549,58609;2,44319
2547,53493;2,44348
2545,48377;2,44391
2543,43262;2,44612
2541,38146;2,45285
2539,33031;2,46024
2537,27915;2,46484
2535,228;2,4693
2533,17684;2,47662
2531,12569;2,48344
2529,07453;2,4876
2527,02338;2,49453
2524,97222;2,50381
2522,92107;2,50906
2520,86991;2,51071
2518,81876;2,51297
2516,7676;2,51568
2514,71644;2,51615
2512,66529;2,51419
2510,61413;2,5117
2508,56298;2,51057
2506,51182;2,51077
2504,46067;2,50886
2502,40951;2,50216
2500,35836;2,49358
2498,3072;2,48694
2496,25605;2,48038
2494,20489;2,47039
2492,15374;2,45755
2490,10258;2,44528
2488,05143;2,43537
2486,00027;2,42615
2483,94911;2,41589
2481,89796;2,4055
2479,8468;2,39571
2477,79565;2,38554
2475,74449;2,37491
2473,69334;2,36552
2471,64218;2,35837
2469,59103;2,3505
2467,53987;2,34007
2465,48872;2,33183
2463,43756;2,32744
2461,38641;2,32353
2459,33525;2,31975
2457,2841;2,31554
2455,23294;2,30992
2453,18178;2,30518
2451,13063;2,30221
2449,07947;2,29825
2447,02832;2,29242
2444,97716;2,28858
2442,92601;2,28737
2440,87485;2,28412
2438,8237;2,27844
2436,77254;2,27405
2434,72139;2,27284
2432,67023;2,27234
2430,61908;2,26981
2428,56792;2,26711
2426,51677;2,26598
2424,46561;2,2644
2422,41445;2,26106
2420,3633;2,25842
2418,31214;2,25766
2416,26099;2,25681
2414,20983;2,25448
2412,15868;2,25119
2410,10752;2,24907
2408,05637;2,24875
2406,00521;2,24838
2403,95406;2,24675
2401,9029;2,24444
2399,85175;2,24307
2397,80059;2,2431
2395,74944;2,24376
2393,69828;2,24381
2391,64712;2,24231
2389,59597;2,23959
2387,54481;2,2373
2385,49366;2,23636
2383,4425;2,23605
2381,39135;2,236
2379,34019;2,23772
2377,28904;2,24101
2375,23788;2,24212
2373,18673;2,24024
2371,13557;2,2396
2369,08442;2,24098
2367,03326;2,24016
2364,9821;2,23868
2362,93095;2,24276
2360,87979;2,24908
2358,82864;2,24956
2356,77748;2,24526
2354,72633;2,2407
2352,67517;2,23828
2350,62402;2,2388
2348,57286;2,23839
2346,52171;2,23464
2344,47055;2,23148
2342,4194;2,22967
2340,36824;2,22632
2338,31709;2,2254
2336,26593;2,23047
2334,21477;2,23686
2332,16362;2,23773
2330,11246;2,23371
2328,06131;2,23258
2326,01015;2,23584
2323,959;2,23678
2321,90784;2,2332
2319,85669;2,23129
2317,80553;2,2353
2315,75438;2,24063
2313,70322;2,24114
2311,65207;2,23749
2309,60091;2,23461
2307,54976;2,23443
2305,4986;2,23471
2303,44744;2,23366
2301,39629;2,2326
2299,34513;2,23324
2297,29398;2,23422
2295,24282;2,23362
2293,19167;2,23207
2291,14051;2,23098
2289,08936;2,23076
2287,0382;2,23083
2284,98705;2,23034
2282,93589;2,2288
2280,88474;2,2271
2278,83358;2,22678
2276,78243;2,22776
2274,73127;2,22909
2272,68011;2,23046
2270,62896;2,23179
2268,5778;2,23302
2266,52665;2,23398
2264,47549;2,23434
2262,42434;2,23416
2260,37318;2,23466
2258,32203;2,2364
2256,27087;2,23841
2254,21972;2,24071
2252,16856;2,24273
2250,11741;2,24308
2248,06625;2,24302
2246,0151;2,24383
2243,96394;2,24477
2241,91278;2,24612
2239,86163;2,24906
2237,81047;2,25197
2235,75932;2,25266
2233,70816;2,25268
2231,65701;2,25311
2229,60585;2,25331
2227,5547;2,25477
2225,50354;2,25826
2223,45239;2,26043
2221,40123;2,26044
2219,35008;2,26234
2217,29892;2,26552
2215,24777;2,26586
2213,19661;2,26371
2211,14545;2,26314
2209,0943;2,26545
2207,04314;2,26699
2204,99199;2,26607
2202,94083;2,26519
2200,88968;2,26653
2198,83852;2,26898
2196,78737;2,27117
2194,73621;2,27259
2192,68506;2,27236
2190,6339;2,27238
2188,58275;2,27407
2186,53159;2,27569
2184,48044;2,2765
2182,42928;2,27697
2180,37812;2,27767
2178,32697;2,27919
2176,27581;2,27969
2174,22466;2,27963
2172,1735;2,2828
2170,12235;2,28828
2168,07119;2,29223
2166,02004;2,29397
2163,96888;2,29614
2161,91773;2,29918
2159,86657;2,3005
2157,81542;2,30104
2155,76426;2,30432
2153,71311;2,31038
2151,66195;2,31657
2149,61079;2,32165
2147,55964;2,32541
2145,50848;2,32739
2143,45733;2,32926
2141,40617;2,33258
2139,35502;2,33412
2137,30386;2,33199
2135,25271;2,32946
2133,20155;2,32791
2131,1504;2,32538
2129,09924;2,32221
2127,04809;2,31996
2124,99693;2,31732
2122,94578;2,31253
2120,89462;2,30659
2118,84346;2,30259
2116,79231;2,29997
2114,74115;2,29625
2112,69;2,29383
2110,63884;2,29375
2108,58769;2,29263
2106,53653;2,29047
2104,48538;2,28917
2102,43422;2,28847
2100,38307;2,28837
2098,33191;2,2881
2096,28076;2,28834
2094,2296;2,29008
2092,17844;2,29118
2090,12729;2,29229
2088,07613;2,2954
2086,02498;2,29696
2083,97382;2,29603
2081,92267;2,29695
2079,87151;2,29913
2077,82036;2,29956
2075,7692;2,2991
2073,71805;2,29869
2071,66689;2,29855
2069,61574;2,29958
2067,56458;2,30094
2065,51343;2,301
2063,46227;2,29983
2061,41111;2,29909
2059,35996;2,30099
2057,3088;2,30502
2055,25765;2,3088
2053,20649;2,31082
2051,15534;2,31114
2049,10418;2,3118
2047,05303;2,31317
2045,00187;2,31395
2042,95072;2,31436
2040,89956;2,3144
2038,84841;2,31315
2036,79725;2,31267
2034,7461;2,31608
2032,69494;2,32108
2030,64378;2,32376
2028,59263;2,3249
2026,54147;2,32568
2024,49032;2,32454
2022,43916;2,32318
2020,38801;2,32475
2018,33685;2,32791
2016,2857;2,33015
2014,23454;2,33071
2012,18339;2,33016
2010,13223;2,32936
2008,08108;2,32828
2006,02992;2,32776
2003,97877;2,3288
2001,92761;2,32996
1999,87645;2,32998
1997,8253;2,33045
1995,77414;2,3333
1993,72299;2,33743
1991,67183;2,34115
1989,62068;2,34364
1987,56952;2,34448
1985,51837;2,3451
1983,46721;2,34631
1981,41606;2,34774
1979,3649;2,34792
1977,31375;2,34657
1975,26259;2,34626
1973,21144;2,34784
1971,16028;2,34964
1969,10912;2,35209
1967,05797;2,35715
1965,00681;2,36281
1962,95566;2,36546
1960,9045;2,36577
1958,85335;2,3649
1956,80219;2,36268
1954,75104;2,35994
1952,69988;2,3588
1950,64873;2,35986
1948,59757;2,36067
1946,54642;2,36091
1944,49526;2,36261
1942,44411;2,36543
1940,39295;2,36817
1938,34179;2,37001
1936,29064;2,37114
1934,23948;2,37087
1932,18833;2,36973
1930,13717;2,37061
1928,08602;2,37364
1926,03486;2,37587
1923,98371;2,37673
1921,93255;2,3799
1919,8814;2,38405
1917,83024;2,38537
1915,77909;2,38596
1913,72793;2,3875
1911,67678;2,38896
1909,62562;2,38923
1907,57446;2,39001
1905,52331;2,39197
1903,47215;2,39355
1901,421;2,3938
1899,36984;2,3944
1897,31869;2,39685
1895,26753;2,39946
1893,21638;2,40147
1891,16522;2,40356
1889,11407;2,40579
1887,06291;2,4068
1885,01176;2,40635
1882,9606;2,40667
1880,90945;2,4089
1878,85829;2,41358
1876,80713;2,41889
1874,75598;2,42198
1872,70482;2,42294
1870,65367;2,42246
1868,60251;2,42321
1866,55136;2,42739
1864,5002;2,43167
1862,44905;2,43486
1860,39789;2,43876
1858,34674;2,44308
1856,29558;2,44589
1854,24443;2,44652
1852,19327;2,44633
1850,14212;2,44892
1848,09096;2,45796
1846,0398;2,46982
1843,98865;2,4766
1841,93749;2,47818
1839,88634;2,47932
1837,83518;2,48283
1835,78403;2,48716
1833,73287;2,48994
1831,68172;2,49194
1829,63056;2,4958
1827,57941;2,50179
1825,52825;2,50697
1823,4771;2,51145
1821,42594;2,51626
1819,37478;2,52215
1817,32363;2,52937
1815,27247;2,53803
1813,22132;2,54707
1811,17016;2,55493
1809,11901;2,5639
1807,06785;2,57644
1805,0167;2,59097
1802,96554;2,60444
1800,91439;2,61745
1798,86323;2,63344
1796,81208;2,65074
1794,76092;2,66205
1792,70977;2,66208
1790,65861;2,65479
1788,60745;2,64487
1786,5563;2,63339
1784,50514;2,62429
1782,45399;2,61976
1780,40283;2,61864
1778,35168;2,62128
1776,30052;2,62661
1774,24937;2,63099
1772,19821;2,63378
1770,14706;2,63864
1768,0959;2,64798
1766,04475;2,66244
1763,99359;2,67776
1761,94244;2,69394
1759,89128;2,71426
1757,84012;2,73746
1755,78897;2,76241
1753,73781;2,78089
1751,68666;2,78539
1749,6355;2,77981
1747,58435;2,76992
1745,53319;2,75869
1743,48204;2,74743
1741,43088;2,73732
1739,37973;2,73083
1737,32857;2,72567
1735,27742;2,71301
1733,22626;2,69828
1731,17511;2,69106
1729,12395;2,68806
1727,07279;2,68574
1725,02164;2,68179
1722,97048;2,68098
1720,91933;2,68711
1718,86817;2,69285
1716,81702;2,69186
1714,76586;2,6862
1712,71471;2,68229
1710,66355;2,6855
1708,6124;2,69546
1706,56124;2,7038
1704,51009;2,70672
1702,45893;2,70936
1700,40778;2,71853
1698,35662;2,73482
1696,30546;2,74307
1694,25431;2,74323
1692,20315;2,74256
1690,152;2,74167
1688,10084;2,74179
1686,04969;2,74221
1683,99853;2,74351
1681,94738;2,74568
1679,89622;2,74378
1677,84507;2,73893
1675,79391;2,73352
1673,74276;2,73205
1671,6916;2,73106
1669,64045;2,72452
1667,58929;2,71939
1665,53813;2,71442
1663,48698;2,70268
1661,43582;2,69175
1659,38467;2,68767
1657,33351;2,68665
1655,28236;2,6815
1653,2312;2,6683
1651,18005;2,65921
1649,12889;2,65474
1647,07774;2,64782
1645,02658;2,64198
1642,97543;2,63954
1640,92427;2,63954
1638,87312;2,63804
1636,82196;2,62807
1634,7708;2,61666
1632,71965;2,61516
1630,66849;2,61582
1628,61734;2,61219
1626,56618;2,60552
1624,51503;2,5978
1622,46387;2,59591
1620,41272;2,60039
1618,36156;2,59909
1616,31041;2,59171
1614,25925;2,58816
1612,2081;2,5877
1610,15694;2,58722
1608,10579;2,58805
1606,05463;2,59152
1604,00347;2,59465
1601,95232;2,59416
1599,90116;2,59156
1597,85001;2,59146
1595,79885;2,59616
1593,7477;2,60168
1591,69654;2,60362
1589,64539;2,60449
1587,59423;2,60748
1585,54308;2,61061
1583,49192;2,61199
1581,44077;2,61274
1579,38961;2,61305
1577,33846;2,61188
1575,2873;2,61236
1573,23614;2,61362
1571,18499;2,6087
1569,13383;2,60196
1567,08268;2,60124
1565,03152;2,60481
1562,98037;2,60984
1560,92921;2,60793
1558,87806;2,59537
1556,8269;2,58518
1554,77575;2,57751
1552,72459;2,56961
1550,67344;2,56263
1548,62228;2,55603
1546,57113;2,54975
1544,51997;2,5472
1542,46881;2,54656
1540,41766;2,53593
1538,3665;2,52223
1536,31535;2,517
1534,26419;2,51466
1532,21304;2,51294
1530,16188;2,50923
1528,11073;2,50256
1526,05957;2,49787
1524,00842;2,49537
1521,95726;2,49115
1519,90611;2,48743
1517,85495;2,48198
1515,80379;2,47334
1513,75264;2,46575
1511,70148;2,46132
1509,65033;2,4576
1507,59917;2,44832
1505,54802;2,43836
1503,49686;2,43284
1501,44571;2,42546
1499,39455;2,41682
1497,3434;2,41321
1495,29224;2,41737
1493,24109;2,42238
1491,18993;2,42164
1489,13878;2,41917
1487,08762;2,41824
1485,03646;2,41771
1482,98531;2,41855
1480,93415;2,42385
1478,883;2,43475
1476,83184;2,4489
1474,78069;2,46626
1472,72953;2,49015
1470,67838;2,51867
1468,62722;2,53816
1466,57607;2,54021
1464,52491;2,53289
1462,47376;2,53104
1460,4226;2,53251
1458,37145;2,52803
1456,32029;2,52069
1454,26913;2,51541
1452,21798;2,50996
1450,16682;2,50526
1448,11567;2,50153
1446,06451;2,49772
1444,01336;2,49432
1441,9622;2,4932
1439,91105;2,49248
1437,85989;2,48802
1435,80874;2,48327
1433,75758;2,48091
1431,70643;2,47704
1429,65527;2,47086
1427,60412;2,46348
1425,55296;2,45608
1423,5018;2,45194
1421,45065;2,4508
1419,39949;2,44994
1417,34834;2,45077
1415,29718;2,44991
1413,24603;2,44477
1411,19487;2,43926
1409,14372;2,43684
1407,09256;2,43732
1405,04141;2,44076
1402,99025;2,44846
1400,9391;2,45831
1398,88794;2,46772
1396,83679;2,47471
1394,78563;2,47967
1392,73447;2,48757
1390,68332;2,49757
1388,63216;2,50661
1386,58101;2,5166
1384,52985;2,5272
1382,4787;2,53474
1380,42754;2,53947
1378,37639;2,54418
1376,32523;2,54834
1374,27408;2,54888
1372,22292;2,54799
1370,17177;2,54919
1368,12061;2,55298
1366,06946;2,55772
1364,0183;2,55942
1361,96714;2,55822
1359,91599;2,55786
1357,86483;2,5581
1355,81368;2,5592
1353,76252;2,56224
1351,71137;2,56375
1349,66021;2,56281
1347,60906;2,56477
1345,5579;2,57072
1343,50675;2,57562
1341,45559;2,57563
1339,40444;2,57271
1337,35328;2,57057
1335,30213;2,56963
1333,25097;2,57047
1331,19981;2,57438
1329,14866;2,57961
1327,0975;2,58287
1325,04635;2,5855
1322,99519;2,59035
1320,94404;2,59504
1318,89288;2,59667
1316,84173;2,59611
1314,79057;2,59335
1312,73942;2,58909
1310,68826;2,58729
1308,63711;2,59036
1306,58595;2,59439
1304,5348;2,59245
1302,48364;2,58673
1300,43248;2,58696
1298,38133;2,59345
1296,33017;2,59803
1294,27902;2,59979
1292,22786;2,60097
1290,17671;2,60084
1288,12555;2,60125
1286,0744;2,60377
1284,02324;2,60705
1281,97209;2,60839
1279,92093;2,60725
1277,86978;2,60862
1275,81862;2,61406
1273,76747;2,61622
1271,71631;2,61368
1269,66515;2,6143
1267,614;2,62012
1265,56284;2,62475
1263,51169;2,62425
1261,46053;2,62128
1259,40938;2,62161
1257,35822;2,62707
1255,30707;2,63275
1253,25591;2,63284
1251,20476;2,62718
1249,1536;2,62605
1247,10245;2,63172
1245,05129;2,63011
1243,00013;2,61993
1240,94898;2,61324
1238,89782;2,6121
1236,84667;2,61134
1234,79551;2,60874
1232,74436;2,60475
1230,6932;2,60213
1228,64205;2,602
1226,59089;2,59979
1224,53974;2,59713
1222,48858;2,59975
1220,43743;2,60354
1218,38627;2,60424
1216,33512;2,60449
1214,28396;2,60507
1212,2328;2,60421
1210,18165;2,60469
1208,13049;2,60892
1206,07934;2,61197
1204,02818;2,61135
1201,97703;2,61025
1199,92587;2,60994
1197,87472;2,61215
1195,82356;2,61808
1193,77241;2,62195
1191,72125;2,61996
1189,6701;2,62011
1187,61894;2,62657
1185,56779;2,63271
1183,51663;2,63719
1181,46547;2,64298
1179,41432;2,64696
1177,36316;2,64455
1175,31201;2,63813
1173,26085;2,63405
1171,2097;2,63172
1169,15854;2,62899
1167,10739;2,62728
1165,05623;2,62618
1163,00508;2,62492
1160,95392;2,62472
1158,90277;2,62383
1156,85161;2,619
1154,80046;2,61309
1152,7493;2,61066
1150,69814;2,61097
1148,64699;2,60976
1146,59583;2,60922
1144,54468;2,61504
1142,49352;2,62014
1140,44237;2,61853
1138,39121;2,61573
1136,34006;2,61413
1134,2889;2,61321
1132,23775;2,61478
1130,18659;2,61962
1128,13544;2,62329
1126,08428;2,62143
1124,03313;2,61707
1121,98197;2,61389
1119,93081;2,6121
1117,87966;2,61019
1115,8285;2,60784
1113,77735;2,61104
1111,72619;2,6225
1109,67504;2,6326
1107,62388;2,63168
1105,57273;2,62354
1103,52157;2,61369
1101,47042;2,60315
1099,41926;2,59323
1097,36811;2,58655
1095,31695;2,58571
1093,2658;2,59066
1091,21464;2,59503
1089,16348;2,59411
1087,11233;2,59262
1085,06117;2,59054
1083,01002;2,58232
1080,95886;2,57234
1078,90771;2,56813
1076,85655;2,56853
1074,8054;2,56725
1072,75424;2,56263
1070,70309;2,55977
1068,65193;2,56036
1066,60078;2,55928
1064,54962;2,55366
1062,49847;2,54534
1060,44731;2,54171
1058,39615;2,54587
1056,345;2,54871
1054,29384;2,54321
1052,24269;2,53116
1050,19153;2,52109
1048,14038;2,51729
1046,08922;2,51679
1044,03807;2,51632
1041,98691;2,51247
1039,93576;2,50939
1037,8846;2,50928
1035,83345;2,50675
1033,78229;2,50326
1031,73114;2,50018
1029,67998;2,49455
1027,62882;2,48988
1025,57767;2,48801
1023,52651;2,48436
1021,47536;2,48221
1019,4242;2,4831
1017,37305;2,48136
1015,32189;2,47673
1013,27074;2,4702
1011,21958;2,46364
1009,16843;2,46042
1007,11727;2,46027
1005,06612;2,4614
1003,01496;2,46288
1000,96381;2,46375
998,91265;2,46323
996,86149;2,46156
994,81034;2,46168
992,75918;2,4645
990,70803;2,46465
988,65687;2,46117
986,60572;2,4604
984,55456;2,46147
982,50341;2,45884
980,45225;2,45638
978,4011;2,45952
976,34994;2,46479
974,29879;2,46566
972,24763;2,46384
970,19647;2,46498
968,14532;2,46485
966,09416;2,46134
964,04301;2,4612
961,99185;2,46418
959,9407;2,46541
957,88954;2,46471
955,83839;2,4661
953,78723;2,46929
951,73608;2,46909
949,68492;2,46926
947,63377;2,47567
945,58261;2,48114
943,53146;2,47924
941,4803;2,475
939,42914;2,47442
937,37799;2,48025
935,32683;2,48808
933,27568;2,48955
931,22452;2,4853
929,17337;2,48193
927,12221;2,48151
925,07106;2,48185
923,0199;2,48126
920,96875;2,47925
918,91759;2,4795
916,86644;2,48562
914,81528;2,49221
912,76413;2,49452
910,71297;2,49568
908,66181;2,49675
906,61066;2,49404
904,5595;2,48882
902,50835;2,4872
900,45719;2,48941
898,40604;2,48897
896,35488;2,48415
894,30373;2,47769
892,25257;2,46869
890,20142;2,45816
888,15026;2,45163
886,09911;2,45297
884,04795;2,4634
881,9968;2,47462
879,94564;2,4759
877,89448;2,4691
875,84333;2,4625
873,79217;2,4615
871,74102;2,46618
869,68986;2,47586
867,63871;2,49085
865,58755;2,5037
863,5364;2,50648
861,48524;2,50767
859,43409;2,51365
857,38293;2,51855
855,33178;2,52099
853,28062;2,52166
851,22947;2,52408
849,17831;2,52731
847,12715;2,52075
845,076;2,50895
843,02484;2,50741
840,97369;2,51314
838,92253;2,51423
836,87138;2,51234
834,82022;2,51244
832,76907;2,51564
830,71791;2,52294
828,66676;2,52675
826,6156;2,52049
824,56445;2,51287
822,51329;2,5117
820,46214;2,51674
818,41098;2,52333
816,35982;2,52692
814,30867;2,52827
812,25751;2,52904
810,20636;2,5331
808,1552;2,53569
806,10405;2,52884
804,05289;2,5228
802,00174;2,52872
799,95058;2,53808
797,89943;2,54695
795,84827;2,55546
793,79712;2,55488
791,74596;2,54823
789,69481;2,542
787,64365;2,54052
785,59249;2,54396
783,54134;2,54468
781,49018;2,54481
779,43903;2,54888
777,38787;2,54954
775,33672;2,54524
773,28556;2,54595
771,23441;2,55516
769,18325;2,56558
767,1321;2,57203
765,08094;2,5715
763,02979;2,56314
760,97863;2,55355
758,92748;2,54756
756,87632;2,5456
754,82516;2,55051
752,77401;2,56431
750,72285;2,5748
748,6717;2,57191
746,62054;2,56584
744,56939;2,56166
742,51823;2,56226
740,46708;2,56824
738,41592;2,57249
736,36477;2,57658
734,31361;2,5869
732,26246;2,59636
730,2113;2,59554
728,16015;2,59405
726,10899;2,59596
724,05783;2,59075
722,00668;2,58044
719,95552;2,57535
717,90437;2,57651
715,85321;2,57652
713,80206;2,57379
711,7509;2,57184
709,69975;2,57504
707,64859;2,58476
705,59744;2,59222
703,54628;2,58988
701,49513;2,58345
699,44397;2,58235
697,39281;2,58869
695,34166;2,59484
693,2905;2,5937
691,23935;2,58594
689,18819;2,57579
687,13704;2,56797
685,08588;2,56364
683,03473;2,5642
680,98357;2,57415
678,93242;2,59111
676,88126;2,59931
674,83011;2,592
672,77895;2,58627
670,7278;2,58775
668,67664;2,58572
666,62548;2,58777
664,57433;2,59964
662,52317;2,60326
660,47202;2,59361
658,42086;2,5851
656,36971;2,59203
654,31855;2,61191
652,2674;2,61635
650,21624;2,58985
648,16509;2,56014
646,11393;2,5493
644,06278;2,54949
642,01162;2,54954
639,96047;2,54846
637,90931;2,55019
635,85815;2,55531
633,807;2,56623
631,75584;2,57959
629,70469;2,57757
627,65353;2,56077
625,60238;2,55626
623,55122;2,55814
621,50007;2,55434
619,44891;2,55139
617,39776;2,55028
615,3466;2,54345
613,29545;2,53045
611,24429;2,52073
609,19314;2,51868
607,14198;2,52172
605,09082;2,52279
603,03967;2,51637
600,98851;2,50679
598,93736;2,50345
596,8862;2,51203
594,83505;2,52095
592,78389;2,50919
590,73274;2,48534
588,68158;2,47151
586,63043;2,45798
584,57927;2,43814
582,52812;2,43009
580,47696;2,43557
578,42581;2,44002
576,37465;2,4382
574,32349;2,43413
572,27234;2,43286
570,22118;2,43307
568,17003;2,4232
566,11887;2,41026
564,06772;2,41459
562,01656;2,42324
559,96541;2,41643
557,91425;2,40976
555,8631;2,4047
553,81194;2,3865
551,76079;2,37144
549,70963;2,36886
547,65848;2,37109
545,60732;2,37448
543,55616;2,36925
541,50501;2,35599
539,45385;2,35229
537,4027;2,35846
535,35154;2,35363
533,30039;2,3354
531,24923;2,31982
529,19808;2,31604
527,14692;2,32153
525,09577;2,32444
523,04461;2,31819
520,99346;2,3101
518,9423;2,30245
516,89115;2,29492
514,83999;2,29136
512,78883;2,28918
510,73768;2,28541
508,68652;2,28177
506,63537;2,28325
504,58421;2,29795
502,53306;2,32067
500,4819;2,32939
498,43075;2,3227
496,37959;2,32191
494,32844;2,32523
492,27728;2,31973
490,22613;2,30715
488,17497;2,29457
486,12382;2,28829
484,07266;2,2844
482,0215;2,27238
479,97035;2,25717
477,91919;2,25264
475,86804;2,258
473,81688;2,25512
471,76573;2,23848
469,71457;2,22743
467,66342;2,2302
465,61226;2,23517
463,56111;2,22876
461,50995;2,21214
459,4588;2,197
457,40764;2,19023
455,35649;2,18656
453,30533;2,18561
451,25417;2,19134
449,20302;2,1965
447,15186;2,19255
445,10071;2,17797
443,04955;2,16114
440,9984;2,15076
438,94724;2,14593
436,89609;2,14816
434,84493;2,16321
432,79378;2,17947
430,74262;2,17896
428,69147;2,16621
426,64031;2,16047
424,58916;2,17008
422,538;2,17903
420,48684;2,17378
418,43569;2,16877
416,38453;2,16979
414,33338;2,15599
412,28222;2,12399
410,23107;2,1049
408,17991;2,11761
406,12876;2,1355
404,0776;2,13605
402,02645;2,13179
399,97529;2,12912
