3997,70175;1,92898
3995,6506;1,93066
3993,59944;1,93112
3991,54829;1,93084
3989,49713;1,93
3987,44598;1,92956
3985,39482;1,93196
3983,34367;1,93544
3981,29251;1,93644
3979,24136;1,93591
3977,1902;1,93611
3975,13905;1,93741
3973,08789;1,9391
3971,03673;1,9397
3968,98558;1,93928
3966,93442;1,9411
3964,88327;1,94521
3962,83211;1,94731
3960,78096;1,94782
3958,7298;1,95039
3956,67865;1,95431
3954,62749;1,95761
3952,57634;1,96127
3950,52518;1,96517
3948,47403;1,96719
3946,42287;1,96761
3944,37172;1,96677
3942,32056;1,96499
3940,2694;1,96383
3938,21825;1,96387
3936,16709;1,96436
3934,11594;1,96231
3932,06478;1,95695
3930,01363;1,95122
3927,96247;1,9471
3925,91132;1,94334
3923,86016;1,93898
3921,80901;1,93379
3919,75785;1,92811
3917,7067;1,92379
3915,65554;1,9202
3913,60439;1,91509
3911,55323;1,90996
3909,50207;1,90778
3907,45092;1,90701
3905,39976;1,90564
3903,34861;1,90496
3901,29745;1,90323
3899,2463;1,89912
3897,19514;1,8973
3895,14399;1,89765
3893,09283;1,89632
3891,04168;1,89466
3888,99052;1,89564
3886,93937;1,89559
3884,88821;1,89665
3882,83706;1,8992
3880,7859;1,89805
3878,73474;1,8975
3876,68359;1,89854
3874,63243;1,89876
3872,58128;1,89802
3870,53012;1,89459
3868,47897;1,89405
3866,42781;1,89389
3864,37666;1,88956
3862,3255;1,88586
3860,27435;1,88504
3858,22319;1,88615
3856,17204;1,88523
3854,12088;1,88085
3852,06973;1,8795
3850,01857;1,88071
3847,96741;1,88109
3845,91626;1,88092
3843,8651;1,88049
3841,81395;1,88042
3839,76279;1,8789
3837,71164;1,87742
3835,66048;1,87888
3833,60933;1,87942
3831,55817;1,87766
3829,50702;1,87643
3827,45586;1,87583
3825,40471;1,87725
3823,35355;1,87833
3821,3024;1,87809
3819,25124;1,88045
3817,20008;1,87781
3815,14893;1,87274
3813,09777;1,87284
3811,04662;1,87496
3808,99546;1,87635
3806,94431;1,87799
3804,89315;1,88186
3802,842;1,88129
3800,79084;1,87951
3798,73969;1,88178
3796,68853;1,88211
3794,63738;1,88188
3792,58622;1,88247
3790,53506;1,88371
3788,48391;1,88584
3786,43275;1,88705
3784,3816;1,88795
3782,33044;1,89022
3780,27929;1,89123
3778,22813;1,8914
3776,17698;1,89272
3774,12582;1,89553
3772,07467;1,89824
3770,02351;1,89905
3767,97236;1,89947
3765,9212;1,89937
3763,87005;1,90103
3761,81889;1,90349
3759,76773;1,90475
3757,71658;1,90706
3755,66542;1,91081
3753,61427;1,91342
3751,56311;1,91464
3749,51196;1,91852
3747,4608;1,9239
3745,40965;1,92392
3743,35849;1,92714
3741,30734;1,93667
3739,25618;1,94409
3737,20503;1,94966
3735,15387;1,95544
3733,10272;1,95946
3731,05156;1,96224
3729,0004;1,96584
3726,94925;1,96873
3724,89809;1,97253
3722,84694;1,9771
3720,79578;1,98101
3718,74463;1,98435
3716,69347;1,98865
3714,64232;1,99355
3712,59116;1,99897
3710,54001;2,00815
3708,48885;2,01922
3706,4377;2,02942
3704,38654;2,04282
3702,33539;2,06454
3700,28423;2,09348
3698,23307;2,12121
3696,18192;2,14184
3694,13076;2,15363
3692,07961;2,15653
3690,02845;2,15378
3687,9773;2,15095
3685,92614;2,15125
3683,87499;2,15218
3681,82383;2,15777
3679,77268;2,17297
3677,72152;2,19181
3675,67037;2,20839
3673,61921;2,2275
3671,56806;2,24568
3669,5169;2,26176
3667,46574;2,277
3665,41459;2,2907
3663,36343;2,30763
3661,31228;2,32879
3659,26112;2,35096
3657,20997;2,37463
3655,15881;2,40448
3653,10766;2,43832
3651,0565;2,47119
3649,00535;2,49982
3646,95419;2,52108
3644,90304;2,54064
3642,85188;2,55876
3640,80073;2,56815
3638,74957;2,56558
3636,69841;2,56035
3634,64726;2,56497
3632,5961;2,57919
3630,54495;2,58832
3628,49379;2,58809
3626,44264;2,58776
3624,39148;2,58858
3622,34033;2,59727
3620,28917;2,62157
3618,23802;2,65209
3616,18686;2,67073
3614,13571;2,67327
3612,08455;2,67002
3610,0334;2,67458
3607,98224;2,68603
3605,93108;2,6944
3603,87993;2,69918
3601,82877;2,70131
3599,77762;2,70064
3597,72646;2,70128
3595,67531;2,70262
3593,62415;2,70792
3591,573;2,72172
3589,52184;2,73089
3587,47069;2,72553
3585,41953;2,72228
3583,36838;2,73126
3581,31722;2,74084
3579,26607;2,74215
3577,21491;2,74078
3575,16375;2,74426
3573,1126;2,75406
3571,06144;2,76522
3569,01029;2,76302
3566,95913;2,74865
3564,90798;2,74672
3562,85682;2,76103
3560,80567;2,77418
3558,75451;2,77499
3556,70336;2,76773
3554,6522;2,76308
3552,60105;2,76525
3550,54989;2,77028
3548,49874;2,77187
3546,44758;2,77212
3544,39642;2,7768
3542,34527;2,78149
3540,29411;2,78295
3538,24296;2,78138
3536,1918;2,77913
3534,14065;2,78134
3532,08949;2,7823
3530,03834;2,77604
3527,98718;2,7688
3525,93603;2,766
3523,88487;2,76723
3521,83372;2,77162
3519,78256;2,77442
3517,73141;2,77356
3515,68025;2,76993
3513,62909;2,76237
3511,57794;2,75707
3509,52678;2,76001
3507,47563;2,76615
3505,42447;2,76578
3503,37332;2,75653
3501,32216;2,74893
3499,27101;2,75341
3497,21985;2,76704
3495,1687;2,77701
3493,11754;2,77226
3491,06639;2,75985
3489,01523;2,75508
3486,96407;2,75159
3484,91292;2,7446
3482,86176;2,74684
3480,81061;2,75473
3478,75945;2,75669
3476,7083;2,75356
3474,65714;2,75151
3472,60599;2,75475
3470,55483;2,75703
3468,50368;2,75409
3466,45252;2,74805
3464,40137;2,73904
3462,35021;2,73089
3460,29906;2,73
3458,2479;2,73879
3456,19674;2,74707
3454,14559;2,74324
3452,09443;2,73917
3450,04328;2,74656
3447,99212;2,75524
3445,94097;2,75159
3443,88981;2,73876
3441,83866;2,72921
3439,7875;2,72874
3437,73635;2,73235
3435,68519;2,73334
3433,63404;2,73349
3431,58288;2,73382
3429,53173;2,72863
3427,48057;2,72327
3425,42941;2,72245
3423,37826;2,71771
3421,3271;2,70966
3419,27595;2,7072
3417,22479;2,70885
3415,17364;2,70546
3413,12248;2,69894
3411,07133;2,70105
3409,02017;2,70991
3406,96902;2,7145
3404,91786;2,71177
3402,86671;2,70509
3400,81555;2,69589
3398,7644;2,68711
3396,71324;2,68537
3394,66208;2,68778
3392,61093;2,68625
3390,55977;2,68487
3388,50862;2,68773
3386,45746;2,6907
3384,40631;2,69218
3382,35515;2,68942
3380,304;2,68105
3378,25284;2,67532
3376,20169;2,6772
3374,15053;2,6801
3372,09938;2,67535
3370,04822;2,66483
3367,99707;2,65586
3365,94591;2,65044
3363,89475;2,65008
3361,8436;2,65576
3359,79244;2,66395
3357,74129;2,67037
3355,69013;2,6709
3353,63898;2,66509
3351,58782;2,65977
3349,53667;2,65782
3347,48551;2,64938
3345,43436;2,63583
3343,3832;2,63353
3341,33205;2,64454
3339,28089;2,65416
3337,22974;2,65039
3335,17858;2,63949
3333,12742;2,63438
3331,07627;2,63536
3329,02511;2,63709
3326,97396;2,63502
3324,9228;2,6278
3322,87165;2,62638
3320,82049;2,6359
3318,76934;2,64249
3316,71818;2,6383
3314,66703;2,63075
3312,61587;2,62659
3310,56472;2,62396
3308,51356;2,62227
3306,46241;2,62279
3304,41125;2,6231
3302,36009;2,62298
3300,30894;2,62344
3298,25778;2,62498
3296,20663;2,62801
3294,15547;2,63002
3292,10432;2,62833
3290,05316;2,62315
3288,00201;2,61556
3285,95085;2,61084
3283,8997;2,61274
3281,84854;2,6178
3279,79739;2,62158
3277,74623;2,62119
3275,69508;2,61659
3273,64392;2,61128
3271,59276;2,61066
3269,54161;2,61422
3267,49045;2,61332
3265,4393;2,60943
3263,38814;2,60759
3261,33699;2,60515
3259,28583;2,6019
3257,23468;2,59898
3255,18352;2,60117
3253,13237;2,60729
3251,08121;2,60729
3249,03006;2,59968
3246,9789;2,59082
3244,92775;2,58807
3242,87659;2,59386
3240,82543;2,60088
3238,77428;2,60365
3236,72312;2,60635
3234,67197;2,61035
3232,62081;2,61086
3230,56966;2,60357
3228,5185;2,59318
3226,46735;2,59261
3224,41619;2,60312
3222,36504;2,61144
3220,31388;2,60927
3218,26273;2,60367
3216,21157;2,60489
3214,16041;2,61174
3212,10926;2,61168
3210,0581;2,60357
3208,00695;2,60005
3205,95579;2,60013
3203,90464;2,59527
3201,85348;2,58832
3199,80233;2,58684
3197,75117;2,59214
3195,70002;2,59523
3193,64886;2,5889
3191,59771;2,58616
3189,54655;2,5935
3187,4954;2,59711
3185,44424;2,59212
3183,39308;2,58544
3181,34193;2,58147
3179,29077;2,57951
3177,23962;2,57874
3175,18846;2,57814
3173,13731;2,57521
3171,08615;2,57174
3169,035;2,5719
3166,98384;2,57543
3164,93269;2,57943
3162,88153;2,5822
3160,83038;2,58206
3158,77922;2,57933
3156,72807;2,57683
3154,67691;2,57801
3152,62575;2,58177
3150,5746;2,58137
3148,52344;2,57569
3146,47229;2,57285
3144,42113;2,57769
3142,36998;2,58257
3140,31882;2,58053
3138,26767;2,57616
3136,21651;2,57368
3134,16536;2,57075
3132,1142;2,56955
3130,06305;2,57398
3128,01189;2,58035
3125,96074;2,58559
3123,90958;2,588
3121,85842;2,58545
3119,80727;2,57923
3117,75611;2,57306
3115,70496;2,57163
3113,6538;2,57427
3111,60265;2,57418
3109,55149;2,56958
3107,50034;2,5658
3105,44918;2,56369
3103,39803;2,56343
3101,34687;2,5666
3099,29572;2,56947
3097,24456;2,57127
3095,19341;2,57281
3093,14225;2,57037
3091,09109;2,56442
3089,03994;2,56103
3086,98878;2,56256
3084,93763;2,56646
3082,88647;2,56923
3080,83532;2,56704
3078,78416;2,56001
3076,73301;2,5516
3074,68185;2,54612
3072,6307;2,54713
3070,57954;2,55012
3068,52839;2,55144
3066,47723;2,55612
3064,42608;2,55937
3062,37492;2,55162
3060,32376;2,54321
3058,27261;2,5458
3056,22145;2,55197
3054,1703;2,55276
3052,11914;2,55189
3050,06799;2,55478
3048,01683;2,55743
3045,96568;2,55556
3043,91452;2,55445
3041,86337;2,55603
3039,81221;2,55476
3037,76106;2,55135
3035,7099;2,54733
3033,65875;2,54366
3031,60759;2,5468
3029,55643;2,5538
3027,50528;2,55491
3025,45412;2,5509
3023,40297;2,54801
3021,35181;2,54802
3019,30066;2,54959
3017,2495;2,55233
3015,19835;2,55444
3013,14719;2,55373
3011,09604;2,55093
3009,04488;2,546
3006,99373;2,5417
3004,94257;2,54489
3002,89142;2,5553
3000,84026;2,56381
2998,7891;2,56477
2996,73795;2,56301
2994,68679;2,56629
2992,63564;2,57156
2990,58448;2,57374
2988,53333;2,57514
2986,48217;2,57877
2984,43102;2,58421
2982,37986;2,58786
2980,32871;2,58767
2978,27755;2,58702
2976,2264;2,58704
2974,17524;2,58762
2972,12409;2,58917
2970,07293;2,58962
2968,02177;2,58961
2965,97062;2,58892
2963,91946;2,5849
2961,86831;2,58257
2959,81715;2,58773
2957,766;2,59521
2955,71484;2,59738
2953,66369;2,5961
2951,61253;2,59576
2949,56138;2,5937
2947,51022;2,59141
2945,45907;2,59375
2943,40791;2,59663
2941,35675;2,59774
2939,3056;2,59957
2937,25444;2,59956
2935,20329;2,59615
2933,15213;2,59657
2931,10098;2,60047
2929,04982;2,60086
2926,99867;2,60012
2924,94751;2,59579
2922,89636;2,58697
2920,8452;2,58139
2918,79405;2,58093
2916,74289;2,58295
2914,69174;2,58423
2912,64058;2,58368
2910,58942;2,58262
2908,53827;2,58229
2906,48711;2,58258
2904,43596;2,58313
2902,3848;2,58311
2900,33365;2,58156
2898,28249;2,57971
2896,23134;2,57862
2894,18018;2,57904
2892,12903;2,58009
2890,07787;2,57874
2888,02672;2,57711
2885,97556;2,5797
2883,92441;2,58317
2881,87325;2,58201
2879,82209;2,57739
2877,77094;2,57406
2875,71978;2,57391
2873,66863;2,57559
2871,61747;2,57708
2869,56632;2,57653
2867,51516;2,57601
2865,46401;2,57539
2863,41285;2,57265
2861,3617;2,57114
2859,31054;2,57322
2857,25939;2,57334
2855,20823;2,56397
2853,15708;2,55238
2851,10592;2,55032
2849,05476;2,55502
2847,00361;2,55841
2844,95245;2,55571
2842,9013;2,54757
2840,85014;2,54039
2838,79899;2,53492
2836,74783;2,52771
2834,69668;2,52186
2832,64552;2,51961
2830,59437;2,51813
2828,54321;2,51504
2826,49206;2,50782
2824,4409;2,50014
2822,38975;2,49568
2820,33859;2,49281
2818,28743;2,49174
2816,23628;2,48995
2814,18512;2,48614
2812,13397;2,4836
2810,08281;2,48022
2808,03166;2,47328
2805,9805;2,46759
2803,92935;2,46512
2801,87819;2,46288
2799,82704;2,46321
2797,77588;2,46626
2795,72473;2,46669
2793,67357;2,46507
2791,62242;2,46245
2789,57126;2,45576
2787,5201;2,44989
2785,46895;2,4492
2783,41779;2,44865
2781,36664;2,44664
2779,31548;2,44286
2777,26433;2,43613
2775,21317;2,43046
2773,16202;2,42697
2771,11086;2,42383
2769,05971;2,4221
2767,00855;2,42287
2764,9574;2,42441
2762,90624;2,42365
2760,85509;2,42206
2758,80393;2,42171
2756,75277;2,42101
2754,70162;2,41925
2752,65046;2,41531
2750,59931;2,41048
2748,54815;2,40981
2746,497;2,41504
2744,44584;2,42117
2742,39469;2,42087
2740,34353;2,41418
2738,29238;2,40774
2736,24122;2,405
2734,19007;2,40438
2732,13891;2,40458
2730,08776;2,40468
2728,0366;2,4024
2725,98544;2,4005
2723,93429;2,40147
2721,88313;2,40249
2719,83198;2,40253
2717,78082;2,4033
2715,72967;2,40507
2713,67851;2,40386
2711,62736;2,39852
2709,5762;2,39347
2707,52505;2,3908
2705,47389;2,38959
2703,42274;2,38965
2701,37158;2,39036
2699,32043;2,39006
2697,26927;2,38802
2695,21811;2,38498
2693,16696;2,38359
2691,1158;2,38413
2689,06465;2,38284
2687,01349;2,37902
2684,96234;2,37634
2682,91118;2,37621
2680,86003;2,37756
2678,80887;2,37967
2676,75772;2,38019
2674,70656;2,37887
2672,65541;2,37958
2670,60425;2,38046
2668,55309;2,37623
2666,50194;2,37079
2664,45078;2,3696
2662,39963;2,37075
2660,34847;2,37081
2658,29732;2,36828
2656,24616;2,36576
2654,19501;2,36719
2652,14385;2,37107
2650,0927;2,37283
2648,04154;2,37262
2645,99039;2,3744
2643,93923;2,37741
2641,88808;2,37997
2639,83692;2,38369
2637,78576;2,38752
2635,73461;2,39052
2633,68345;2,3945
2631,6323;2,40113
2629,58114;2,40838
2627,52999;2,4119
2625,47883;2,41308
2623,42768;2,41711
2621,37652;2,42493
2619,32537;2,43241
2617,27421;2,43548
2615,22306;2,43581
2613,1719;2,43991
2611,12075;2,44799
2609,06959;2,45232
2607,01843;2,45212
2604,96728;2,45396
2602,91612;2,45928
2600,86497;2,46365
2598,81381;2,46503
2596,76266;2,4656
2594,7115;2,46674
2592,66035;2,46758
2590,60919;2,46544
2588,55804;2,46053
2586,50688;2,45915
2584,45573;2,46235
2582,40457;2,46419
2580,35342;2,46387
2578,30226;2,46326
2576,2511;2,46246
2574,19995;2,46441
2572,14879;2,46932
2570,09764;2,47289
2568,04648;2,47476
2565,99533;2,47512
2563,94417;2,47285
2561,89302;2,47122
2559,84186;2,4719
2557,79071;2,4725
2555,73955;2,47386
2553,6884;2,47803
2551,63724;2,48236
2549,58609;2,48327
2547,53493;2,48263
2545,48377;2,48503
2543,43262;2,48986
2541,38146;2,49328
2539,33031;2,49602
2537,27915;2,49974
2535,228;2,50373
2533,17684;2,50977
2531,12569;2,51858
2529,07453;2,52624
2527,02338;2,52975
2524,97222;2,53012
2522,92107;2,53194
2520,86991;2,53709
2518,81876;2,54214
2516,7676;2,54656
2514,71644;2,55294
2512,66529;2,55831
2510,61413;2,55553
2508,56298;2,54658
2506,51182;2,54049
2504,46067;2,53669
2502,40951;2,52918
2500,35836;2,52009
2498,3072;2,51282
2496,25605;2,50473
2494,20489;2,49616
2492,15374;2,48887
2490,10258;2,48183
2488,05143;2,47447
2486,00027;2,46597
2483,94911;2,45608
2481,89796;2,44334
2479,8468;2,42992
2477,79565;2,41996
2475,74449;2,41144
2473,69334;2,4014
2471,64218;2,38942
2469,59103;2,37742
2467,53987;2,3682
2465,48872;2,36221
2463,43756;2,35699
2461,38641;2,35144
2459,33525;2,34711
2457,2841;2,34356
2455,23294;2,33869
2453,18178;2,33253
2451,13063;2,32643
2449,07947;2,32036
2447,02832;2,31529
2444,97716;2,31262
2442,92601;2,31142
2440,87485;2,30962
2438,8237;2,30547
2436,77254;2,30132
2434,72139;2,30027
2432,67023;2,29897
2430,61908;2,29481
2428,56792;2,29069
2426,51677;2,28799
2424,46561;2,28531
2422,41445;2,28266
2420,3633;2,28095
2418,31214;2,27892
2416,26099;2,27508
2414,20983;2,27032
2412,15868;2,26761
2410,10752;2,2673
2408,05637;2,26581
2406,00521;2,26269
2403,95406;2,26082
2401,9029;2,26025
2399,85175;2,25934
2397,80059;2,25814
2395,74944;2,25701
2393,69828;2,25617
2391,64712;2,25515
2389,59597;2,25339
2387,54481;2,25172
2385,49366;2,25106
2383,4425;2,25184
2381,39135;2,25402
2379,34019;2,2566
2377,28904;2,25868
2375,23788;2,25974
2373,18673;2,2585
2371,13557;2,25449
2369,08442;2,25122
2367,03326;2,25224
2364,9821;2,25511
2362,93095;2,25654
2360,87979;2,25728
2358,82864;2,25721
2356,77748;2,25587
2354,72633;2,25654
2352,67517;2,25884
2350,62402;2,25901
2348,57286;2,25835
2346,52171;2,25849
2344,47055;2,25774
2342,4194;2,25634
2340,36824;2,25569
2338,31709;2,25501
2336,26593;2,25397
2334,21477;2,25322
2332,16362;2,25285
2330,11246;2,25176
2328,06131;2,25076
2326,01015;2,25221
2323,959;2,25515
2321,90784;2,25754
2319,85669;2,25933
2317,80553;2,26026
2315,75438;2,25966
2313,70322;2,25734
2311,65207;2,2547
2309,60091;2,25409
2307,54976;2,25533
2305,4986;2,25618
2303,44744;2,25573
2301,39629;2,2545
2299,34513;2,25325
2297,29398;2,253
2295,24282;2,25386
2293,19167;2,25416
2291,14051;2,25349
2289,08936;2,25352
2287,0382;2,25394
2284,98705;2,25304
2282,93589;2,25207
2280,88474;2,25295
2278,83358;2,25457
2276,78243;2,25597
2274,73127;2,2578
2272,68011;2,25927
2270,62896;2,26005
2268,5778;2,26155
2266,52665;2,26315
2264,47549;2,26371
2262,42434;2,26463
2260,37318;2,26705
2258,32203;2,26977
2256,27087;2,27092
2254,21972;2,27101
2252,16856;2,27183
2250,11741;2,2735
2248,06625;2,27578
2246,0151;2,27856
2243,96394;2,28184
2241,91278;2,28438
2239,86163;2,28567
2237,81047;2,28627
2235,75932;2,28776
2233,70816;2,29087
2231,65701;2,29408
2229,60585;2,29687
2227,5547;2,29858
2225,50354;2,29895
2223,45239;2,3003
2221,40123;2,30285
2219,35008;2,30478
2217,29892;2,30607
2215,24777;2,30772
2213,19661;2,30983
2211,14545;2,3108
2209,0943;2,31161
2207,04314;2,31314
2204,99199;2,31352
2202,94083;2,31453
2200,88968;2,31657
2198,83852;2,31666
2196,78737;2,31566
2194,73621;2,31591
2192,68506;2,3172
2190,6339;2,31897
2188,58275;2,32125
2186,53159;2,32365
2184,48044;2,32539
2182,42928;2,32575
2180,37812;2,32682
2178,32697;2,33047
2176,27581;2,33441
2174,22466;2,33634
2172,1735;2,33679
2170,12235;2,33763
2168,07119;2,33899
2166,02004;2,34066
2163,96888;2,34488
2161,91773;2,35187
2159,86657;2,35882
2157,81542;2,36451
2155,76426;2,3692
2153,71311;2,37364
2151,66195;2,37999
2149,61079;2,3885
2147,55964;2,39503
2145,50848;2,39622
2143,45733;2,39492
2141,40617;2,39646
2139,35502;2,39951
2137,30386;2,39885
2135,25271;2,39509
2133,20155;2,39193
2131,1504;2,38969
2129,09924;2,3868
2127,04809;2,38258
2124,99693;2,3762
2122,94578;2,36885
2120,89462;2,36218
2118,84346;2,35652
2116,79231;2,35187
2114,74115;2,34669
2112,69;2,34285
2110,63884;2,34282
2108,58769;2,34328
2106,53653;2,34166
2104,48538;2,34026
2102,43422;2,34031
2100,38307;2,33897
2098,33191;2,33596
2096,28076;2,3344
2094,2296;2,33547
2092,17844;2,33749
2090,12729;2,33838
2088,07613;2,33837
2086,02498;2,33856
2083,97382;2,33868
2081,92267;2,33936
2079,87151;2,34084
2077,82036;2,34035
2075,7692;2,33766
2073,71805;2,33629
2071,66689;2,33694
2069,61574;2,33791
2067,56458;2,3393
2065,51343;2,34079
2063,46227;2,34179
2061,41111;2,34262
2059,35996;2,34297
2057,3088;2,3435
2055,25765;2,34485
2053,20649;2,34591
2051,15534;2,34633
2049,10418;2,34712
2047,05303;2,34859
2045,00187;2,3496
2042,95072;2,34912
2040,89956;2,34843
2038,84841;2,34966
2036,79725;2,35197
2034,7461;2,3524
2032,69494;2,3505
2030,64378;2,34964
2028,59263;2,35205
2026,54147;2,35584
2024,49032;2,35742
2022,43916;2,35649
2020,38801;2,35597
2018,33685;2,35639
2016,2857;2,35741
2014,23454;2,35923
2012,18339;2,36041
2010,13223;2,36088
2008,08108;2,36055
2006,02992;2,35862
2003,97877;2,35804
2001,92761;2,36055
1999,87645;2,36253
1997,8253;2,36142
1995,77414;2,36033
1993,72299;2,36245
1991,67183;2,36495
1989,62068;2,36545
1987,56952;2,3666
1985,51837;2,36936
1983,46721;2,37016
1981,41606;2,36897
1979,3649;2,36891
1977,31375;2,37006
1975,26259;2,37162
1973,21144;2,37404
1971,16028;2,37633
1969,10912;2,37739
1967,05797;2,37984
1965,00681;2,38719
1962,95566;2,39639
1960,9045;2,40078
1958,85335;2,39856
1956,80219;2,39443
1954,75104;2,39169
1952,69988;2,3904
1950,64873;2,38994
1948,59757;2,38871
1946,54642;2,38712
1944,49526;2,38619
1942,44411;2,38671
1940,39295;2,39063
1938,34179;2,39605
1936,29064;2,39971
1934,23948;2,39994
1932,18833;2,39824
1930,13717;2,39763
1928,08602;2,39929
1926,03486;2,40177
1923,98371;2,40302
1921,93255;2,40462
1919,8814;2,40685
1917,83024;2,40897
1915,77909;2,41164
1913,72793;2,41268
1911,67678;2,41299
1909,62562;2,41419
1907,57446;2,41534
1905,52331;2,41462
1903,47215;2,41445
1901,421;2,41803
1899,36984;2,4225
1897,31869;2,42472
1895,26753;2,42559
1893,21638;2,42683
1891,16522;2,42764
1889,11407;2,42873
1887,06291;2,43223
1885,01176;2,43577
1882,9606;2,43713
1880,90945;2,43728
1878,85829;2,43915
1876,80713;2,44318
1874,75598;2,44825
1872,70482;2,45368
1870,65367;2,45604
1868,60251;2,4564
1866,55136;2,45999
1864,5002;2,46552
1862,44905;2,47035
1860,39789;2,47426
1858,34674;2,4771
1856,29558;2,47772
1854,24443;2,47697
1852,19327;2,47913
1850,14212;2,48519
1848,09096;2,49135
1846,0398;2,4949
1843,98865;2,49923
1841,93749;2,50709
1839,88634;2,51248
1837,83518;2,51441
1835,78403;2,51696
1833,73287;2,52184
1831,68172;2,52811
1829,63056;2,53495
1827,57941;2,5409
1825,52825;2,54511
1823,4771;2,55232
1821,42594;2,56088
1819,37478;2,56647
1817,32363;2,57157
1815,27247;2,57915
1813,22132;2,58772
1811,17016;2,59615
1809,11901;2,60574
1807,06785;2,61637
1805,0167;2,6279
1802,96554;2,64071
1800,91439;2,6543
1798,86323;2,66669
1796,81208;2,67518
1794,76092;2,67804
1792,70977;2,67486
1790,65861;2,66974
1788,60745;2,66305
1786,5563;2,65058
1784,50514;2,63655
1782,45399;2,62631
1780,40283;2,61976
1778,35168;2,61862
1776,30052;2,62144
1774,24937;2,62291
1772,19821;2,6217
1770,14706;2,61902
1768,0959;2,614
1766,04475;2,61352
1763,99359;2,61853
1761,94244;2,62264
1759,89128;2,62416
1757,84012;2,62338
1755,78897;2,62645
1753,73781;2,63489
1751,68666;2,64139
1749,6355;2,64571
1747,58435;2,65276
1745,53319;2,66131
1743,48204;2,66355
1741,43088;2,65862
1739,37973;2,65798
1737,32857;2,66536
1735,27742;2,66695
1733,22626;2,66261
1731,17511;2,65787
1729,12395;2,65244
1727,07279;2,65305
1725,02164;2,6577
1722,97048;2,66168
1720,91933;2,66612
1718,86817;2,67088
1716,81702;2,67653
1714,76586;2,68035
1712,71471;2,68185
1710,66355;2,68368
1708,6124;2,68518
1706,56124;2,68671
1704,51009;2,69316
1702,45893;2,70081
1700,40778;2,70641
1698,35662;2,71234
1696,30546;2,70824
1694,25431;2,70628
1692,20315;2,7128
1690,152;2,7177
1688,10084;2,72159
1686,04969;2,72437
1683,99853;2,72778
1681,94738;2,7356
1679,89622;2,73942
1677,84507;2,73872
1675,79391;2,74028
1673,74276;2,74739
1671,6916;2,74856
1669,64045;2,73949
1667,58929;2,73418
1665,53813;2,73726
1663,48698;2,74091
1661,43582;2,7405
1659,38467;2,73859
1657,33351;2,74101
1655,28236;2,74136
1653,2312;2,73308
1651,18005;2,73324
1649,12889;2,73858
1647,07774;2,73651
1645,02658;2,73196
1642,97543;2,72705
1640,92427;2,72192
1638,87312;2,72094
1636,82196;2,71954
1634,7708;2,71436
1632,71965;2,71109
1630,66849;2,70913
1628,61734;2,70827
1626,56618;2,70898
1624,51503;2,70813
1622,46387;2,71166
1620,41272;2,71937
1618,36156;2,71546
1616,31041;2,70364
1614,25925;2,69862
1612,2081;2,69516
1610,15694;2,68949
1608,10579;2,68604
1606,05463;2,68461
1604,00347;2,68059
1601,95232;2,67152
1599,90116;2,65855
1597,85001;2,64609
1595,79885;2,63735
1593,7477;2,63181
1591,69654;2,62802
1589,64539;2,62322
1587,59423;2,61496
1585,54308;2,60594
1583,49192;2,60022
1581,44077;2,5981
1579,38961;2,59494
1577,33846;2,58379
1575,2873;2,57248
1573,23614;2,56954
1571,18499;2,56259
1569,13383;2,54996
1567,08268;2,53962
1565,03152;2,53138
1562,98037;2,5255
1560,92921;2,51264
1558,87806;2,48874
1556,8269;2,47003
1554,77575;2,45205
1552,72459;2,43121
1550,67344;2,41098
1548,62228;2,39523
1546,57113;2,3851
1544,51997;2,37675
1542,46881;2,36764
1540,41766;2,35729
1538,3665;2,35566
1536,31535;2,35895
1534,26419;2,35468
1532,21304;2,35127
1530,16188;2,3552
1528,11073;2,3609
1526,05957;2,36754
1524,00842;2,3718
1521,95726;2,36923
1519,90611;2,36848
1517,85495;2,37014
1515,80379;2,37092
1513,75264;2,37403
1511,70148;2,38068
1509,65033;2,38789
1507,59917;2,38758
1505,54802;2,38503
1503,49686;2,38934
1501,44571;2,3947
1499,39455;2,39873
1497,3434;2,40387
1495,29224;2,4123
1493,24109;2,42049
1491,18993;2,42476
1489,13878;2,42996
1487,08762;2,43733
1485,03646;2,44528
1482,98531;2,45405
1480,93415;2,46334
1478,883;2,47298
1476,83184;2,48333
1474,78069;2,49373
1472,72953;2,50161
1470,67838;2,51001
1468,62722;2,51845
1466,57607;2,52429
1464,52491;2,53156
1462,47376;2,54239
1460,4226;2,55088
1458,37145;2,55304
1456,32029;2,55262
1454,26913;2,55197
1452,21798;2,54925
1450,16682;2,54882
1448,11567;2,55115
1446,06451;2,55282
1444,01336;2,55447
1441,9622;2,55896
1439,91105;2,56426
1437,85989;2,565
1435,80874;2,56643
1433,75758;2,57173
1431,70643;2,57216
1429,65527;2,56752
1427,60412;2,56377
1425,55296;2,56089
1423,5018;2,55749
1421,45065;2,55233
1419,39949;2,5444
1417,34834;2,53694
1415,29718;2,52853
1413,24603;2,51769
1411,19487;2,50586
1409,14372;2,49661
1407,09256;2,49328
1405,04141;2,49535
1402,99025;2,50176
1400,9391;2,51013
1398,88794;2,52002
1396,83679;2,53191
1394,78563;2,54396
1392,73447;2,55717
1390,68332;2,56922
1388,63216;2,57765
1386,58101;2,58619
1384,52985;2,59673
1382,4787;2,60622
1380,42754;2,61333
1378,37639;2,61808
1376,32523;2,62081
1374,27408;2,62369
1372,22292;2,63008
1370,17177;2,63886
1368,12061;2,64703
1366,06946;2,65185
1364,0183;2,65267
1361,96714;2,65346
1359,91599;2,65449
1357,86483;2,65349
1355,81368;2,65345
1353,76252;2,65418
1351,71137;2,65422
1349,66021;2,65709
1347,60906;2,66277
1345,5579;2,66639
1343,50675;2,66702
1341,45559;2,66807
1339,40444;2,66926
1337,35328;2,66742
1335,30213;2,66425
1333,25097;2,66192
1331,19981;2,65991
1329,14866;2,66149
1327,0975;2,66767
1325,04635;2,67163
1322,99519;2,67145
1320,94404;2,67284
1318,89288;2,6758
1316,84173;2,67409
1314,79057;2,66872
1312,73942;2,66734
1310,68826;2,669
1308,63711;2,67003
1306,58595;2,67281
1304,5348;2,67623
1302,48364;2,6783
1300,43248;2,67973
1298,38133;2,68065
1296,33017;2,68185
1294,27902;2,6845
1292,22786;2,69
1290,17671;2,69685
1288,12555;2,69922
1286,0744;2,69503
1284,02324;2,69002
1281,97209;2,68788
1279,92093;2,68743
1277,86978;2,68933
1275,81862;2,69399
1273,76747;2,6982
1271,71631;2,69908
1269,66515;2,69759
1267,614;2,6961
1265,56284;2,69759
1263,51169;2,70096
1261,46053;2,69887
1259,40938;2,69333
1257,35822;2,69489
1255,30707;2,70143
1253,25591;2,70338
1251,20476;2,70402
1249,1536;2,70971
1247,10245;2,7146
1245,05129;2,7147
1243,00013;2,71457
1240,94898;2,71591
1238,89782;2,7164
1236,84667;2,71644
1234,79551;2,71856
1232,74436;2,72208
1230,6932;2,72577
1228,64205;2,72893
1226,59089;2,73003
1224,53974;2,73066
1222,48858;2,73537
1220,43743;2,74308
1218,38627;2,7453
1216,33512;2,74266
1214,28396;2,74331
1212,2328;2,74558
1210,18165;2,74272
1208,13049;2,7374
1206,07934;2,73529
1204,02818;2,73673
1201,97703;2,74305
1199,92587;2,75231
1197,87472;2,76009
1195,82356;2,76754
1193,77241;2,77782
1191,72125;2,79496
1189,6701;2,81041
1187,61894;2,81548
1185,56779;2,8242
1183,51663;2,84157
1181,46547;2,85394
1179,41432;2,85799
1177,36316;2,86066
1175,31201;2,863
1173,26085;2,8637
1171,2097;2,86292
1169,15854;2,86659
1167,10739;2,88431
1165,05623;2,90604
1163,00508;2,90914
1160,95392;2,89989
1158,90277;2,89688
1156,85161;2,89589
1154,80046;2,88895
1152,7493;2,87968
1150,69814;2,87178
1148,64699;2,86573
1146,59583;2,86276
1144,54468;2,86524
1142,49352;2,86756
1140,44237;2,86204
1138,39121;2,85222
1136,34006;2,84354
1134,2889;2,84111
1132,23775;2,84651
1130,18659;2,84877
1128,13544;2,84108
1126,08428;2,83293
1124,03313;2,8279
1121,98197;2,8227
1119,93081;2,81977
1117,87966;2,8152
1115,8285;2,80204
1113,77735;2,79173
1111,72619;2,78928
1109,67504;2,77925
1107,62388;2,76383
1105,57273;2,75814
1103,52157;2,75627
1101,47042;2,75043
1099,41926;2,74083
1097,36811;2,72229
1095,31695;2,69944
1093,2658;2,68078
1091,21464;2,66537
1089,16348;2,64806
1087,11233;2,62242
1085,06117;2,59245
1083,01002;2,56801
1080,95886;2,54823
1078,90771;2,52839
1076,85655;2,51364
1074,8054;2,50645
1072,75424;2,49852
1070,70309;2,48891
1068,65193;2,4849
1066,60078;2,48478
1064,54962;2,48116
1062,49847;2,47722
1060,44731;2,4787
1058,39615;2,48237
1056,345;2,4831
1054,29384;2,4796
1052,24269;2,47451
1050,19153;2,46946
1048,14038;2,46066
1046,08922;2,44754
1044,03807;2,43667
1041,98691;2,4305
1039,93576;2,4235
1037,8846;2,41344
1035,83345;2,4049
1033,78229;2,39834
1031,73114;2,39039
1029,67998;2,38379
1027,62882;2,38172
1025,57767;2,38119
1023,52651;2,37945
1021,47536;2,37717
1019,4242;2,37697
1017,37305;2,37823
1015,32189;2,3786
1013,27074;2,38158
1011,21958;2,38912
1009,16843;2,39495
1007,11727;2,39471
1005,06612;2,39282
1003,01496;2,39291
1000,96381;2,39435
998,91265;2,39938
996,86149;2,40833
994,81034;2,41764
992,75918;2,42687
990,70803;2,43395
988,65687;2,43699
986,60572;2,43901
984,55456;2,44052
982,50341;2,44076
980,45225;2,43907
978,4011;2,43657
976,34994;2,43647
974,29879;2,43695
972,24763;2,43521
970,19647;2,43186
968,14532;2,428
966,09416;2,42753
964,04301;2,43237
961,99185;2,43694
959,9407;2,44071
957,88954;2,44909
955,83839;2,4581
953,78723;2,46131
951,73608;2,46137
949,68492;2,46387
947,63377;2,46856
945,58261;2,47183
943,53146;2,47373
941,4803;2,47581
939,42914;2,47985
937,37799;2,48713
935,32683;2,49322
933,27568;2,49554
931,22452;2,50007
929,17337;2,5077
927,12221;2,51304
925,07106;2,51614
923,0199;2,51865
920,96875;2,52127
918,91759;2,52477
916,86644;2,52917
914,81528;2,53209
912,76413;2,53144
910,71297;2,53211
908,66181;2,53551
906,61066;2,53623
904,5595;2,53384
902,50835;2,53234
900,45719;2,53352
898,40604;2,53524
896,35488;2,53382
894,30373;2,52661
892,25257;2,5169
890,20142;2,50883
888,15026;2,5032
886,09911;2,50764
884,04795;2,5236
881,9968;2,53444
879,94564;2,53483
877,89448;2,53344
875,84333;2,53111
873,79217;2,5273
871,74102;2,53353
869,68986;2,55522
867,63871;2,5752
865,58755;2,58171
863,5364;2,58219
861,48524;2,58138
859,43409;2,58134
857,38293;2,58871
855,33178;2,59821
853,28062;2,60084
851,22947;2,6044
849,17831;2,60587
847,12715;2,59909
845,076;2,59716
843,02484;2,60539
840,97369;2,60911
838,92253;2,60191
836,87138;2,59737
834,82022;2,60426
832,76907;2,61491
830,71791;2,61406
828,66676;2,60887
826,6156;2,6192
824,56445;2,63549
822,51329;2,63416
820,46214;2,6201
818,41098;2,61606
816,35982;2,62398
814,30867;2,62701
812,25751;2,62323
810,20636;2,62396
808,1552;2,62537
806,10405;2,61617
804,05289;2,60519
802,00174;2,60216
799,95058;2,60676
797,89943;2,61986
795,84827;2,63629
793,79712;2,64693
791,74596;2,64376
789,69481;2,63862
787,64365;2,64573
785,59249;2,65058
783,54134;2,64525
781,49018;2,63673
779,43903;2,63001
777,38787;2,63333
775,33672;2,64224
773,28556;2,63647
771,23441;2,62472
769,18325;2,63187
767,1321;2,65203
765,08094;2,6607
763,02979;2,65251
760,97863;2,64837
758,92748;2,65344
756,87632;2,65401
754,82516;2,65217
752,77401;2,64824
750,72285;2,64472
748,6717;2,64326
746,62054;2,6382
744,56939;2,63765
742,51823;2,65012
740,46708;2,66834
738,41592;2,67826
736,36477;2,67742
734,31361;2,67692
732,26246;2,67342
730,2113;2,66667
728,16015;2,66282
726,10899;2,66464
724,05783;2,67277
722,00668;2,67885
719,95552;2,67838
717,90437;2,67168
715,85321;2,6641
713,80206;2,66688
711,7509;2,67187
709,69975;2,66258
707,64859;2,65054
705,59744;2,64425
703,54628;2,63512
701,49513;2,63265
699,44397;2,64564
697,39281;2,65757
695,34166;2,65431
693,2905;2,64348
691,23935;2,63461
689,18819;2,63256
687,13704;2,6365
685,08588;2,63759
683,03473;2,63727
680,98357;2,64734
678,93242;2,6586
676,88126;2,65396
674,83011;2,64783
672,77895;2,66071
670,7278;2,68511
668,67664;2,69588
666,62548;2,6759
664,57433;2,64941
662,52317;2,63874
660,47202;2,63812
658,42086;2,63404
656,36971;2,61976
654,31855;2,60168
652,2674;2,59428
650,21624;2,60369
648,16509;2,62767
646,11393;2,64898
644,06278;2,64083
642,01162;2,61369
639,96047;2,604
637,90931;2,61208
635,85815;2,61487
633,807;2,61072
631,75584;2,60435
629,70469;2,59063
627,65353;2,5796
625,60238;2,58977
623,55122;2,59671
621,50007;2,58778
619,44891;2,58688
617,39776;2,59129
615,3466;2,58187
613,29545;2,56413
611,24429;2,55605
609,19314;2,55747
607,14198;2,55104
605,09082;2,53549
603,03967;2,53002
600,98851;2,53562
598,93736;2,53484
596,8862;2,52764
594,83505;2,52487
592,78389;2,5234
590,73274;2,51891
588,68158;2,51937
586,63043;2,5266
584,57927;2,52624
582,52812;2,51351
580,47696;2,49652
578,42581;2,48449
576,37465;2,49002
574,32349;2,50208
572,27234;2,48834
570,22118;2,46786
568,17003;2,47378
566,11887;2,491
564,06772;2,49651
562,01656;2,49029
559,96541;2,47328
557,91425;2,4659
555,8631;2,4764
553,81194;2,48199
551,76079;2,476
549,70963;2,46376
547,65848;2,44515
545,60732;2,4315
543,55616;2,42925
541,50501;2,4314
539,45385;2,43195
537,4027;2,42689
535,35154;2,41723
533,30039;2,40477
531,24923;2,39798
529,19808;2,40273
527,14692;2,40735
525,09577;2,40791
523,04461;2,40905
520,99346;2,41247
518,9423;2,41742
516,89115;2,42128
514,83999;2,42009
512,78883;2,42116
510,73768;2,43463
508,68652;2,44419
506,63537;2,44242
504,58421;2,43946
502,53306;2,42858
500,4819;2,41086
498,43075;2,39847
496,37959;2,39662
494,32844;2,39865
492,27728;2,38791
490,22613;2,37009
488,17497;2,37094
486,12382;2,38604
484,07266;2,39071
482,0215;2,38374
479,97035;2,37761
477,91919;2,36455
475,86804;2,34292
473,81688;2,33249
471,76573;2,34464
469,71457;2,36741
467,66342;2,38209
465,61226;2,38098
463,56111;2,36557
461,50995;2,34288
459,4588;2,32613
457,40764;2,31857
455,35649;2,3173
453,30533;2,32654
451,25417;2,34344
449,20302;2,33769
447,15186;2,31018
445,10071;2,29579
443,04955;2,29393
440,9984;2,28859
438,94724;2,28733
436,89609;2,30018
434,84493;2,32336
432,79378;2,33577
430,74262;2,31944
428,69147;2,29138
426,64031;2,28849
424,58916;2,30618
422,538;2,30524
420,48684;2,285
418,43569;2,28084
416,38453;2,29512
414,33338;2,30366
412,28222;2,29918
410,23107;2,27744
408,17991;2,26434
406,12876;2,28217
404,0776;2,30705
402,02645;2,3089
399,97529;2,29663
