3997,70175;1,77621
3995,6506;1,77751
3993,59944;1,77862
3991,54829;1,77985
3989,49713;1,78128
3987,44598;1,78319
3985,39482;1,78534
3983,34367;1,78732
3981,29251;1,78871
3979,24136;1,78955
3977,1902;1,79128
3975,13905;1,79367
3973,08789;1,79452
3971,03673;1,79474
3968,98558;1,79689
3966,93442;1,80136
3964,88327;1,80646
3962,83211;1,80971
3960,78096;1,81055
3958,7298;1,81175
3956,67865;1,81569
3954,62749;1,82057
3952,57634;1,82364
3950,52518;1,82523
3948,47403;1,82638
3946,42287;1,82718
3944,37172;1,82822
3942,32056;1,82877
3940,2694;1,82778
3938,21825;1,82641
3936,16709;1,82522
3934,11594;1,82256
3932,06478;1,81688
3930,01363;1,80999
3927,96247;1,8047
3925,91132;1,80074
3923,86016;1,79654
3921,80901;1,79236
3919,75785;1,78848
3917,7067;1,7837
3915,65554;1,77814
3913,60439;1,77384
3911,55323;1,77103
3909,50207;1,7681
3907,45092;1,76498
3905,39976;1,76214
3903,34861;1,75893
3901,29745;1,75582
3899,2463;1,75391
3897,19514;1,75272
3895,14399;1,75224
3893,09283;1,75254
3891,04168;1,75237
3888,99052;1,75174
3886,93937;1,7519
3884,88821;1,75097
3882,83706;1,74903
3880,7859;1,74763
3878,73474;1,74615
3876,68359;1,74601
3874,63243;1,74675
3872,58128;1,74646
3870,53012;1,74561
3868,47897;1,74404
3866,42781;1,74348
3864,37666;1,74406
3862,3255;1,74385
3860,27435;1,74313
3858,22319;1,74227
3856,17204;1,7415
3854,12088;1,73902
3852,06973;1,73451
3850,01857;1,73365
3847,96741;1,73586
3845,91626;1,73636
3843,8651;1,73421
3841,81395;1,73138
3839,76279;1,73024
3837,71164;1,73087
3835,66048;1,73177
3833,60933;1,73286
3831,55817;1,73381
3829,50702;1,73423
3827,45586;1,73449
3825,40471;1,73383
3823,35355;1,73312
3821,3024;1,73249
3819,25124;1,73174
3817,20008;1,73372
3815,14893;1,7357
3813,09777;1,73548
3811,04662;1,73566
3808,99546;1,73753
3806,94431;1,73934
3804,89315;1,73918
3802,842;1,73933
3800,79084;1,73969
3798,73969;1,7403
3796,68853;1,74215
3794,63738;1,74362
3792,58622;1,74491
3790,53506;1,7462
3788,48391;1,74678
3786,43275;1,74681
3784,3816;1,74656
3782,33044;1,74735
3780,27929;1,75022
3778,22813;1,75322
3776,17698;1,75484
3774,12582;1,75568
3772,07467;1,757
3770,02351;1,75751
3767,97236;1,7558
3765,9212;1,75513
3763,87005;1,75686
3761,81889;1,75936
3759,76773;1,76074
3757,71658;1,76094
3755,66542;1,76169
3753,61427;1,76302
3751,56311;1,76375
3749,51196;1,76423
3747,4608;1,76734
3745,40965;1,77339
3743,35849;1,77705
3741,30734;1,77919
3739,25618;1,78388
3737,20503;1,79007
3735,15387;1,79565
3733,10272;1,79939
3731,05156;1,80234
3729,0004;1,8066
3726,94925;1,81202
3724,89809;1,81586
3722,84694;1,81902
3720,79578;1,82433
3718,74463;1,83081
3716,69347;1,83596
3714,64232;1,84058
3712,59116;1,84667
3710,54001;1,85503
3708,48885;1,8665
3706,4377;1,88102
3704,38654;1,89947
3702,33539;1,92306
3700,28423;1,94922
3698,23307;1,97338
3696,18192;1,99145
3694,13076;1,99979
3692,07961;1,99866
3690,02845;1,9923
3687,9773;1,98579
3685,92614;1,98293
3683,87499;1,98372
3681,82383;1,98528
3679,77268;1,98721
3677,72152;1,99419
3675,67037;2,00815
3673,61921;2,02248
3671,56806;2,03546
3669,5169;2,04968
3667,46574;2,06525
3665,41459;2,08176
3663,36343;2,09736
3661,31228;2,11092
3659,26112;2,1245
3657,20997;2,14045
3655,15881;2,15687
3653,10766;2,17269
3651,0565;2,19401
3649,00535;2,22702
3646,95419;2,26599
3644,90304;2,29709
3642,85188;2,31456
3640,80073;2,31926
3638,74957;2,31576
3636,69841;2,31201
3634,64726;2,31366
3632,5961;2,32085
3630,54495;2,33111
3628,49379;2,34034
3626,44264;2,3465
3624,39148;2,35177
3622,34033;2,35632
3620,28917;2,36018
3618,23802;2,36481
3616,18686;2,37271
3614,13571;2,38525
3612,08455;2,39719
3610,0334;2,40608
3607,98224;2,41719
3605,93108;2,42997
3603,87993;2,43803
3601,82877;2,43827
3599,77762;2,43389
3597,72646;2,43335
3595,67531;2,4418
3593,62415;2,45584
3591,573;2,46793
3589,52184;2,47335
3587,47069;2,47387
3585,41953;2,47702
3583,36838;2,48426
3581,31722;2,49063
3579,26607;2,49633
3577,21491;2,50313
3575,16375;2,50941
3573,1126;2,5146
3571,06144;2,51929
3569,01029;2,52363
3566,95913;2,52601
3564,90798;2,52507
3562,85682;2,52609
3560,80567;2,53214
3558,75451;2,53752
3556,70336;2,54066
3554,6522;2,548
3552,60105;2,55692
3550,54989;2,5586
3548,49874;2,55928
3546,44758;2,56673
3544,39642;2,57386
3542,34527;2,57717
3540,29411;2,58336
3538,24296;2,59301
3536,1918;2,59764
3534,14065;2,59513
3532,08949;2,59323
3530,03834;2,59477
3527,98718;2,59947
3525,93603;2,60692
3523,88487;2,60842
3521,83372;2,60244
3519,78256;2,60268
3517,73141;2,61201
3515,68025;2,61831
3513,62909;2,61311
3511,57794;2,60551
3509,52678;2,6084
3507,47563;2,61735
3505,42447;2,62612
3503,37332;2,64053
3501,32216;2,65876
3499,27101;2,66668
3497,21985;2,65877
3495,1687;2,64538
3493,11754;2,63956
3491,06639;2,64274
3489,01523;2,65405
3486,96407;2,67019
3484,91292;2,6767
3482,86176;2,67244
3480,81061;2,66849
3478,75945;2,66714
3476,7083;2,66749
3474,65714;2,66776
3472,60599;2,66697
3470,55483;2,66712
3468,50368;2,66935
3466,45252;2,67394
3464,40137;2,67869
3462,35021;2,68394
3460,29906;2,68797
3458,2479;2,69061
3456,19674;2,6979
3454,14559;2,70377
3452,09443;2,69819
3450,04328;2,6841
3447,99212;2,67317
3445,94097;2,67354
3443,88981;2,68084
3441,83866;2,68887
3439,7875;2,69562
3437,73635;2,69847
3435,68519;2,70021
3433,63404;2,6996
3431,58288;2,69257
3429,53173;2,68882
3427,48057;2,69363
3425,42941;2,7015
3423,37826;2,70519
3421,3271;2,70509
3419,27595;2,70633
3417,22479;2,70373
3415,17364;2,69719
3413,12248;2,69428
3411,07133;2,69263
3409,02017;2,68849
3406,96902;2,68759
3404,91786;2,69422
3402,86671;2,70188
3400,81555;2,70148
3398,7644;2,69807
3396,71324;2,69805
3394,66208;2,70041
3392,61093;2,70146
3390,55977;2,70325
3388,50862;2,70739
3386,45746;2,70705
3384,40631;2,69902
3382,35515;2,68916
3380,304;2,68159
3378,25284;2,67704
3376,20169;2,68366
3374,15053;2,70103
3372,09938;2,70855
3370,04822;2,69921
3367,99707;2,69121
3365,94591;2,69464
3363,89475;2,69826
3361,8436;2,69296
3359,79244;2,68724
3357,74129;2,68702
3355,69013;2,68443
3353,63898;2,67773
3351,58782;2,67494
3349,53667;2,67593
3347,48551;2,67286
3345,43436;2,66674
3343,3832;2,66936
3341,33205;2,6814
3339,28089;2,6866
3337,22974;2,67947
3335,17858;2,67369
3333,12742;2,66974
3331,07627;2,65928
3329,02511;2,64897
3326,97396;2,64711
3324,9228;2,65279
3322,87165;2,65861
3320,82049;2,65736
3318,76934;2,65163
3316,71818;2,64809
3314,66703;2,6488
3312,61587;2,65357
3310,56472;2,6601
3308,51356;2,66058
3306,46241;2,65638
3304,41125;2,65874
3302,36009;2,66542
3300,30894;2,66288
3298,25778;2,65253
3296,20663;2,64644
3294,15547;2,64426
3292,10432;2,64428
3290,05316;2,64768
3288,00201;2,64994
3285,95085;2,64795
3283,8997;2,64234
3281,84854;2,63906
3279,79739;2,64114
3277,74623;2,64296
3275,69508;2,6397
3273,64392;2,63302
3271,59276;2,62698
3269,54161;2,62525
3267,49045;2,62905
3265,4393;2,63416
3263,38814;2,63301
3261,33699;2,62436
3259,28583;2,61852
3257,23468;2,61751
3255,18352;2,61538
3253,13237;2,61545
3251,08121;2,62116
3249,03006;2,62838
3246,9789;2,63391
3244,92775;2,6361
3242,87659;2,63103
3240,82543;2,61807
3238,77428;2,60564
3236,72312;2,60252
3234,67197;2,60742
3232,62081;2,61637
3230,56966;2,62474
3228,5185;2,62577
3226,46735;2,61835
3224,41619;2,61172
3222,36504;2,61271
3220,31388;2,61283
3218,26273;2,60645
3216,21157;2,59957
3214,16041;2,5957
3212,10926;2,59675
3210,0581;2,60093
3208,00695;2,60265
3205,95579;2,60321
3203,90464;2,60381
3201,85348;2,60039
3199,80233;2,59203
3197,75117;2,58531
3195,70002;2,58266
3193,64886;2,57923
3191,59771;2,57574
3189,54655;2,57402
3187,4954;2,57224
3185,44424;2,56967
3183,39308;2,56921
3181,34193;2,57173
3179,29077;2,57222
3177,23962;2,5706
3175,18846;2,57282
3173,13731;2,57759
3171,08615;2,57785
3169,035;2,57393
3166,98384;2,56943
3164,93269;2,56192
3162,88153;2,55021
3160,83038;2,5433
3158,77922;2,54887
3156,72807;2,5596
3154,67691;2,56232
3152,62575;2,55478
3150,5746;2,54417
3148,52344;2,53413
3146,47229;2,5267
3144,42113;2,5259
3142,36998;2,5287
3140,31882;2,52806
3138,26767;2,52596
3136,21651;2,5254
3134,16536;2,52406
3132,1142;2,52072
3130,06305;2,51633
3128,01189;2,51286
3125,96074;2,51399
3123,90958;2,52221
3121,85842;2,53156
3119,80727;2,53326
3117,75611;2,52638
3115,70496;2,51753
3113,6538;2,51074
3111,60265;2,50443
3109,55149;2,50173
3107,50034;2,50542
3105,44918;2,50704
3103,39803;2,50459
3101,34687;2,50414
3099,29572;2,50371
3097,24456;2,50339
3095,19341;2,50208
3093,14225;2,4973
3091,09109;2,49471
3089,03994;2,49429
3086,98878;2,49131
3084,93763;2,48666
3082,88647;2,48481
3080,83532;2,48646
3078,78416;2,48673
3076,73301;2,48405
3074,68185;2,48092
3072,6307;2,4781
3070,57954;2,47671
3068,52839;2,47912
3066,47723;2,48448
3064,42608;2,48738
3062,37492;2,48615
3060,32376;2,48454
3058,27261;2,4822
3056,22145;2,47791
3054,1703;2,47484
3052,11914;2,4745
3050,06799;2,47328
3048,01683;2,47021
3045,96568;2,46977
3043,91452;2,47183
3041,86337;2,4729
3039,81221;2,47376
3037,76106;2,47586
3035,7099;2,47563
3033,65875;2,47026
3031,60759;2,46581
3029,55643;2,4694
3027,50528;2,47743
3025,45412;2,48113
3023,40297;2,48099
3021,35181;2,48044
3019,30066;2,47722
3017,2495;2,47449
3015,19835;2,47797
3013,14719;2,48299
3011,09604;2,48542
3009,04488;2,48764
3006,99373;2,4905
3004,94257;2,49507
3002,89142;2,50329
3000,84026;2,51615
2998,7891;2,53139
2996,73795;2,54388
2994,68679;2,5539
2992,63564;2,5655
2990,58448;2,57805
2988,53333;2,59079
2986,48217;2,60203
2984,43102;2,60582
2982,37986;2,60244
2980,32871;2,59957
2978,27755;2,60039
2976,2264;2,60073
2974,17524;2,60235
2972,12409;2,60801
2970,07293;2,60712
2968,02177;2,59876
2965,97062;2,59482
2963,91946;2,59574
2961,86831;2,59255
2959,81715;2,58417
2957,766;2,5792
2955,71484;2,57807
2953,66369;2,57423
2951,61253;2,57076
2949,56138;2,57167
2947,51022;2,57284
2945,45907;2,57242
2943,40791;2,5718
2941,35675;2,57073
2939,3056;2,56995
2937,25444;2,56788
2935,20329;2,56429
2933,15213;2,56271
2931,10098;2,56244
2929,04982;2,56267
2926,99867;2,56432
2924,94751;2,56706
2922,89636;2,56796
2920,8452;2,5637
2918,79405;2,55751
2916,74289;2,55404
2914,69174;2,55576
2912,64058;2,56184
2910,58942;2,56284
2908,53827;2,55754
2906,48711;2,55566
2904,43596;2,55837
2902,3848;2,5642
2900,33365;2,56872
2898,28249;2,56545
2896,23134;2,56049
2894,18018;2,55958
2892,12903;2,56044
2890,07787;2,56331
2888,02672;2,5705
2885,97556;2,58082
2883,92441;2,59087
2881,87325;2,59967
2879,82209;2,60881
2877,77094;2,6177
2875,71978;2,62281
2873,66863;2,62321
2871,61747;2,61985
2869,56632;2,61334
2867,51516;2,60728
2865,46401;2,60347
2863,41285;2,59723
2861,3617;2,58829
2859,31054;2,58121
2857,25939;2,57533
2855,20823;2,56866
2853,15708;2,56314
2851,10592;2,56112
2849,05476;2,55714
2847,00361;2,5438
2844,95245;2,52738
2842,9013;2,51609
2840,85014;2,50648
2838,79899;2,49447
2836,74783;2,48103
2834,69668;2,46634
2832,64552;2,4517
2830,59437;2,43782
2828,54321;2,42253
2826,49206;2,40809
2824,4409;2,39806
2822,38975;2,39137
2820,33859;2,38587
2818,28743;2,37839
2816,23628;2,36828
2814,18512;2,35977
2812,13397;2,35457
2810,08281;2,35029
2808,03166;2,34666
2805,9805;2,34516
2803,92935;2,34437
2801,87819;2,34199
2799,82704;2,33763
2797,77588;2,33161
2795,72473;2,32544
2793,67357;2,32012
2791,62242;2,31609
2789,57126;2,31325
2787,5201;2,30735
2785,46895;2,29784
2783,41779;2,29208
2781,36664;2,29124
2779,31548;2,28955
2777,26433;2,28601
2775,21317;2,28158
2773,16202;2,27834
2771,11086;2,27916
2769,05971;2,28116
2767,00855;2,28093
2764,9574;2,27923
2762,90624;2,27728
2760,85509;2,2747
2758,80393;2,27165
2756,75277;2,26975
2754,70162;2,26964
2752,65046;2,26926
2750,59931;2,26614
2748,54815;2,26105
2746,497;2,25733
2744,44584;2,25713
2742,39469;2,25782
2740,34353;2,25668
2738,29238;2,25543
2736,24122;2,2547
2734,19007;2,25288
2732,13891;2,25073
2730,08776;2,24943
2728,0366;2,24892
2725,98544;2,24919
2723,93429;2,24832
2721,88313;2,24482
2719,83198;2,2421
2717,78082;2,24264
2715,72967;2,24437
2713,67851;2,24598
2711,62736;2,24656
2709,5762;2,24539
2707,52505;2,24444
2705,47389;2,24334
2703,42274;2,23956
2701,37158;2,23669
2699,32043;2,23888
2697,26927;2,24268
2695,21811;2,24352
2693,16696;2,2412
2691,1158;2,2394
2689,06465;2,24021
2687,01349;2,24277
2684,96234;2,24516
2682,91118;2,24459
2680,86003;2,2422
2678,80887;2,24184
2676,75772;2,24363
2674,70656;2,24494
2672,65541;2,24604
2670,60425;2,24812
2668,55309;2,25083
2666,50194;2,25281
2664,45078;2,25311
2662,39963;2,25323
2660,34847;2,25243
2658,29732;2,24981
2656,24616;2,24932
2654,19501;2,25364
2652,14385;2,25905
2650,0927;2,26174
2648,04154;2,26419
2645,99039;2,26944
2643,93923;2,2751
2641,88808;2,28021
2639,83692;2,28919
2637,78576;2,30273
2635,73461;2,31647
2633,68345;2,329
2631,6323;2,34229
2629,58114;2,35609
2627,52999;2,36988
2625,47883;2,3836
2623,42768;2,39617
2621,37652;2,4065
2619,32537;2,41418
2617,27421;2,42211
2615,22306;2,43323
2613,1719;2,44921
2611,12075;2,46607
2609,06959;2,47734
2607,01843;2,4856
2604,96728;2,49193
2602,91612;2,49323
2600,86497;2,49149
2598,81381;2,49362
2596,76266;2,50231
2594,7115;2,50951
2592,66035;2,51049
2590,60919;2,50975
2588,55804;2,5111
2586,50688;2,51433
2584,45573;2,51624
2582,40457;2,51568
2580,35342;2,51504
2578,30226;2,5169
2576,2511;2,52316
2574,19995;2,53001
2572,14879;2,52949
2570,09764;2,52369
2568,04648;2,52053
2565,99533;2,52131
2563,94417;2,52331
2561,89302;2,52577
2559,84186;2,52899
2557,79071;2,53488
2555,73955;2,54492
2553,6884;2,5527
2551,63724;2,55352
2549,58609;2,55214
2547,53493;2,5533
2545,48377;2,56086
2543,43262;2,57413
2541,38146;2,58616
2539,33031;2,59634
2537,27915;2,6085
2535,228;2,62297
2533,17684;2,64264
2531,12569;2,6663
2529,07453;2,685
2527,02338;2,69668
2524,97222;2,70848
2522,92107;2,72154
2520,86991;2,72772
2518,81876;2,72953
2516,7676;2,73327
2514,71644;2,73475
2512,66529;2,73195
2510,61413;2,72776
2508,56298;2,72477
2506,51182;2,72081
2504,46067;2,70831
2502,40951;2,68651
2500,35836;2,66277
2498,3072;2,64251
2496,25605;2,62482
2494,20489;2,60578
2492,15374;2,58524
2490,10258;2,56611
2488,05143;2,54629
2486,00027;2,52282
2483,94911;2,49993
2481,89796;2,48226
2479,8468;2,4673
2477,79565;2,44854
2475,74449;2,42676
2473,69334;2,40917
2471,64218;2,39453
2469,59103;2,37722
2467,53987;2,3593
2465,48872;2,34434
2463,43756;2,33308
2461,38641;2,32501
2459,33525;2,31726
2457,2841;2,30824
2455,23294;2,29838
2453,18178;2,28854
2451,13063;2,28027
2449,07947;2,27389
2447,02832;2,2679
2444,97716;2,26147
2442,92601;2,25515
2440,87485;2,24956
2438,8237;2,24425
2436,77254;2,2378
2434,72139;2,23159
2432,67023;2,22759
2430,61908;2,22393
2428,56792;2,2201
2426,51677;2,21708
2424,46561;2,21374
2422,41445;2,21051
2420,3633;2,20803
2418,31214;2,20574
2416,26099;2,20406
2414,20983;2,2023
2412,15868;2,1992
2410,10752;2,19535
2408,05637;2,19229
2406,00521;2,19049
2403,95406;2,18964
2401,9029;2,18939
2399,85175;2,18976
2397,80059;2,19008
2395,74944;2,18868
2393,69828;2,18553
2391,64712;2,18285
2389,59597;2,18147
2387,54481;2,18013
2385,49366;2,17873
2383,4425;2,17891
2381,39135;2,17998
2379,34019;2,17962
2377,28904;2,17878
2375,23788;2,17949
2373,18673;2,18077
2371,13557;2,18146
2369,08442;2,18163
2367,03326;2,18108
2364,9821;2,17983
2362,93095;2,1797
2360,87979;2,18283
2358,82864;2,18661
2356,77748;2,18532
2354,72633;2,18124
2352,67517;2,18142
2350,62402;2,1848
2348,57286;2,18651
2346,52171;2,18624
2344,47055;2,18655
2342,4194;2,18728
2340,36824;2,18578
2338,31709;2,18325
2336,26593;2,18282
2334,21477;2,18413
2332,16362;2,18471
2330,11246;2,18355
2328,06131;2,18251
2326,01015;2,18401
2323,959;2,18727
2321,90784;2,18882
2319,85669;2,18786
2317,80553;2,187
2315,75438;2,18665
2313,70322;2,18515
2311,65207;2,18306
2309,60091;2,18264
2307,54976;2,18342
2305,4986;2,18278
2303,44744;2,18075
2301,39629;2,17957
2299,34513;2,17987
2297,29398;2,18079
2295,24282;2,18166
2293,19167;2,18183
2291,14051;2,18093
2289,08936;2,1797
2287,0382;2,17913
2284,98705;2,17914
2282,93589;2,17936
2280,88474;2,18011
2278,83358;2,18124
2276,78243;2,18179
2274,73127;2,18163
2272,68011;2,18144
2270,62896;2,18096
2268,5778;2,18057
2266,52665;2,18224
2264,47549;2,18556
2262,42434;2,18812
2260,37318;2,19038
2258,32203;2,19327
2256,27087;2,195
2254,21972;2,19509
2252,16856;2,19539
2250,11741;2,19771
2248,06625;2,20246
2246,0151;2,2076
2243,96394;2,21071
2241,91278;2,21079
2239,86163;2,21074
2237,81047;2,21322
2235,75932;2,21653
2233,70816;2,21893
2231,65701;2,22166
2229,60585;2,22559
2227,5547;2,2293
2225,50354;2,23207
2223,45239;2,23446
2221,40123;2,23696
2219,35008;2,23971
2217,29892;2,2414
2215,24777;2,24123
2213,19661;2,2406
2211,14545;2,2408
2209,0943;2,24203
2207,04314;2,24321
2204,99199;2,24368
2202,94083;2,24428
2200,88968;2,2456
2198,83852;2,24744
2196,78737;2,24867
2194,73621;2,24938
2192,68506;2,25144
2190,6339;2,25386
2188,58275;2,25406
2186,53159;2,25366
2184,48044;2,25579
2182,42928;2,25925
2180,37812;2,26144
2178,32697;2,26254
2176,27581;2,26354
2174,22466;2,26505
2172,1735;2,26728
2170,12235;2,27001
2168,07119;2,27372
2166,02004;2,2787
2163,96888;2,2851
2161,91773;2,29312
2159,86657;2,30309
2157,81542;2,31428
2155,76426;2,32455
2153,71311;2,33325
2151,66195;2,34113
2149,61079;2,34799
2147,55964;2,35326
2145,50848;2,35692
2143,45733;2,36011
2141,40617;2,36424
2139,35502;2,36704
2137,30386;2,36538
2135,25271;2,36116
2133,20155;2,35683
2131,1504;2,35116
2129,09924;2,3432
2127,04809;2,33418
2124,99693;2,32631
2122,94578;2,31902
2120,89462;2,31029
2118,84346;2,30116
2116,79231;2,29339
2114,74115;2,28689
2112,69;2,28088
2110,63884;2,2763
2108,58769;2,27432
2106,53653;2,27351
2104,48538;2,27213
2102,43422;2,27007
2100,38307;2,2681
2098,33191;2,26759
2096,28076;2,2674
2094,2296;2,26612
2092,17844;2,26545
2090,12729;2,26646
2088,07613;2,26744
2086,02498;2,26835
2083,97382;2,27051
2081,92267;2,27336
2079,87151;2,27534
2077,82036;2,27569
2075,7692;2,27548
2073,71805;2,27663
2071,66689;2,27899
2069,61574;2,28099
2067,56458;2,28353
2065,51343;2,28621
2063,46227;2,28616
2061,41111;2,28524
2059,35996;2,28558
2057,3088;2,28587
2055,25765;2,28715
2053,20649;2,2902
2051,15534;2,29329
2049,10418;2,29571
2047,05303;2,29734
2045,00187;2,29793
2042,95072;2,29834
2040,89956;2,29955
2038,84841;2,3015
2036,79725;2,30345
2034,7461;2,30487
2032,69494;2,30583
2030,64378;2,30657
2028,59263;2,30805
2026,54147;2,30973
2024,49032;2,31059
2022,43916;2,31288
2020,38801;2,31672
2018,33685;2,31946
2016,2857;2,32081
2014,23454;2,32175
2012,18339;2,32325
2010,13223;2,32532
2008,08108;2,32664
2006,02992;2,32682
2003,97877;2,32738
2001,92761;2,32873
1999,87645;2,33051
1997,8253;2,33286
1995,77414;2,33478
1993,72299;2,33577
1991,67183;2,33682
1989,62068;2,33806
1987,56952;2,33868
1985,51837;2,33936
1983,46721;2,34128
1981,41606;2,34331
1979,3649;2,34471
1977,31375;2,34674
1975,26259;2,34985
1973,21144;2,35326
1971,16028;2,35711
1969,10912;2,36211
1967,05797;2,36932
1965,00681;2,38131
1962,95566;2,39578
1960,9045;2,40305
1958,85335;2,39846
1956,80219;2,38856
1954,75104;2,3811
1952,69988;2,378
1950,64873;2,37744
1948,59757;2,37823
1946,54642;2,38056
1944,49526;2,38376
1942,44411;2,3859
1940,39295;2,38713
1938,34179;2,38934
1936,29064;2,39115
1934,23948;2,39154
1932,18833;2,39333
1930,13717;2,39707
1928,08602;2,40052
1926,03486;2,40367
1923,98371;2,40613
1921,93255;2,40662
1919,8814;2,40901
1917,83024;2,4151
1915,77909;2,42011
1913,72793;2,42239
1911,67678;2,42454
1909,62562;2,42761
1907,57446;2,42918
1905,52331;2,42874
1903,47215;2,43029
1901,421;2,43553
1899,36984;2,44008
1897,31869;2,4406
1895,26753;2,44009
1893,21638;2,44374
1891,16522;2,45206
1889,11407;2,45985
1887,06291;2,46383
1885,01176;2,46501
1882,9606;2,46543
1880,90945;2,46786
1878,85829;2,47306
1876,80713;2,47955
1874,75598;2,4861
1872,70482;2,49107
1870,65367;2,49343
1868,60251;2,49597
1866,55136;2,50294
1864,5002;2,5137
1862,44905;2,52357
1860,39789;2,53008
1858,34674;2,53483
1856,29558;2,53996
1854,24443;2,54526
1852,19327;2,55099
1850,14212;2,55949
1848,09096;2,56931
1846,0398;2,57867
1843,98865;2,58908
1841,93749;2,60021
1839,88634;2,61136
1837,83518;2,62089
1835,78403;2,62651
1833,73287;2,63082
1831,68172;2,64045
1829,63056;2,6569
1827,57941;2,67314
1825,52825;2,68486
1823,4771;2,69607
1821,42594;2,71196
1819,37478;2,73186
1817,32363;2,75112
1815,27247;2,76603
1813,22132;2,78171
1811,17016;2,80713
1809,11901;2,84179
1807,06785;2,88238
1805,0167;2,93111
1802,96554;2,98575
1800,91439;3,03239
1798,86323;3,05757
1796,81208;3,06448
1794,76092;3,06168
1792,70977;3,04607
1790,65861;3,01621
1788,60745;2,98294
1786,5563;2,95295
1784,50514;2,92917
1782,45399;2,91053
1780,40283;2,89
1778,35168;2,86848
1776,30052;2,85367
1774,24937;2,8468
1772,19821;2,8472
1770,14706;2,85621
1768,0959;2,86898
1766,04475;2,87498
1763,99359;2,87588
1761,94244;2,87837
1759,89128;2,88035
1757,84012;2,88222
1755,78897;2,88531
1753,73781;2,89153
1751,68666;2,90242
1749,6355;2,91023
1747,58435;2,9155
1745,53319;2,92623
1743,48204;2,93667
1741,43088;2,9414
1739,37973;2,94432
1737,32857;2,94919
1735,27742;2,9576
1733,22626;2,96315
1731,17511;2,95964
1729,12395;2,95367
1727,07279;2,95157
1725,02164;2,9549
1722,97048;2,96249
1720,91933;2,97041
1718,86817;2,97277
1716,81702;2,97029
1714,76586;2,97453
1712,71471;2,98652
1710,66355;2,99639
1708,6124;3,00049
1706,56124;2,99874
1704,51009;2,99085
1702,45893;2,98686
1700,40778;3,00134
1698,35662;3,03192
1696,30546;3,0512
1694,25431;3,04817
1692,20315;3,04898
1690,152;3,06577
1688,10084;3,08412
1686,04969;3,0922
1683,99853;3,09243
1681,94738;3,09002
1679,89622;3,08487
1677,84507;3,08029
1675,79391;3,0845
1673,74276;3,09657
1671,6916;3,11592
1669,64045;3,14719
1667,58929;3,17706
1665,53813;3,19399
1663,48698;3,20208
1661,43582;3,19955
1659,38467;3,19278
1657,33351;3,19052
1655,28236;3,1916
1653,2312;3,19325
1651,18005;3,19468
1649,12889;3,20324
1647,07774;3,22306
1645,02658;3,24518
1642,97543;3,2612
1640,92427;3,26898
1638,87312;3,26568
1636,82196;3,25432
1634,7708;3,24325
1632,71965;3,24018
1630,66849;3,24793
1628,61734;3,25999
1626,56618;3,27537
1624,51503;3,2974
1622,46387;3,30342
1620,41272;3,28543
1618,36156;3,27499
1616,31041;3,28202
1614,25925;3,28217
1612,2081;3,27033
1610,15694;3,26216
1608,10579;3,26039
1606,05463;3,25896
1604,00347;3,26204
1601,95232;3,27329
1599,90116;3,28406
1597,85001;3,27984
1595,79885;3,26138
1593,7477;3,24588
1591,69654;3,24327
1589,64539;3,24842
1587,59423;3,24456
1585,54308;3,22087
1583,49192;3,1936
1581,44077;3,17685
1579,38961;3,15785
1577,33846;3,11885
1575,2873;3,06625
1573,23614;3,02035
1571,18499;2,97251
1569,13383;2,91273
1567,08268;2,86083
1565,03152;2,82797
1562,98037;2,80482
1560,92921;2,77154
1558,87806;2,70808
1556,8269;2,63773
1554,77575;2,58773
1552,72459;2,54994
1550,67344;2,51704
1548,62228;2,48719
1546,57113;2,46181
1544,51997;2,44142
1542,46881;2,42349
1540,41766;2,40451
1538,3665;2,38604
1536,31535;2,37296
1534,26419;2,36122
1532,21304;2,3484
1530,16188;2,33984
1528,11073;2,33471
1526,05957;2,32661
1524,00842;2,31662
1521,95726;2,31055
1519,90611;2,30776
1517,85495;2,30573
1515,80379;2,30481
1513,75264;2,30517
1511,70148;2,30569
1509,65033;2,305
1507,59917;2,302
1505,54802;2,29733
1503,49686;2,29523
1501,44571;2,29544
1499,39455;2,29592
1497,3434;2,29542
1495,29224;2,29224
1493,24109;2,28842
1491,18993;2,28612
1489,13878;2,28346
1487,08762;2,28029
1485,03646;2,27894
1482,98531;2,27895
1480,93415;2,27721
1478,883;2,27291
1476,83184;2,26831
1474,78069;2,26383
1472,72953;2,25879
1470,67838;2,25474
1468,62722;2,25309
1466,57607;2,25176
1464,52491;2,24831
1462,47376;2,24389
1460,4226;2,23973
1458,37145;2,23441
1456,32029;2,22823
1454,26913;2,2238
1452,21798;2,22043
1450,16682;2,21703
1448,11567;2,21422
1446,06451;2,21192
1444,01336;2,20989
1441,9622;2,20709
1439,91105;2,20293
1437,85989;2,19768
1435,80874;2,18974
1433,75758;2,18023
1431,70643;2,17096
1429,65527;2,16054
1427,60412;2,1493
1425,55296;2,13792
1423,5018;2,12562
1421,45065;2,11235
1419,39949;2,09543
1417,34834;2,0743
1415,29718;2,05478
1413,24603;2,03747
1411,19487;2,02098
1409,14372;2,00907
1407,09256;2,00717
1405,04141;2,01618
1402,99025;2,0313
1400,9391;2,04763
1398,88794;2,06286
1396,83679;2,0769
1394,78563;2,09248
1392,73447;2,10988
1390,68332;2,1277
1388,63216;2,14719
1386,58101;2,16931
1384,52985;2,19164
1382,4787;2,21119
1380,42754;2,22784
1378,37639;2,24294
1376,32523;2,25695
1374,27408;2,27001
1372,22292;2,28197
1370,17177;2,2928
1368,12061;2,30171
1366,06946;2,30788
1364,0183;2,31391
1361,96714;2,32261
1359,91599;2,33223
1357,86483;2,3397
1355,81368;2,34556
1353,76252;2,35215
1351,71137;2,35911
1349,66021;2,36474
1347,60906;2,36987
1345,5579;2,37547
1343,50675;2,38002
1341,45559;2,3832
1339,40444;2,38553
1337,35328;2,38733
1335,30213;2,39127
1333,25097;2,39804
1331,19981;2,40388
1329,14866;2,40699
1327,0975;2,40967
1325,04635;2,41335
1322,99519;2,41666
1320,94404;2,41929
1318,89288;2,42389
1316,84173;2,43036
1314,79057;2,43521
1312,73942;2,43781
1310,68826;2,44033
1308,63711;2,44232
1306,58595;2,44199
1304,5348;2,44094
1302,48364;2,44265
1300,43248;2,44728
1298,38133;2,45046
1296,33017;2,44952
1294,27902;2,44696
1292,22786;2,446
1290,17671;2,44767
1288,12555;2,45082
1286,0744;2,45403
1284,02324;2,45752
1281,97209;2,45959
1279,92093;2,4592
1277,86978;2,45946
1275,81862;2,46275
1273,76747;2,46859
1271,71631;2,47243
1269,66515;2,47347
1267,614;2,47785
1265,56284;2,48384
1263,51169;2,48611
1261,46053;2,48743
1259,40938;2,48903
1257,35822;2,48899
1255,30707;2,48982
1253,25591;2,49293
1251,20476;2,49628
1249,1536;2,49969
1247,10245;2,50335
1245,05129;2,50418
1243,00013;2,50306
1240,94898;2,50551
1238,89782;2,51144
1236,84667;2,51467
1234,79551;2,51485
1232,74436;2,51928
1230,6932;2,52634
1228,64205;2,52752
1226,59089;2,52547
1224,53974;2,52616
1222,48858;2,52723
1220,43743;2,52666
1218,38627;2,52876
1216,33512;2,53656
1214,28396;2,54633
1212,2328;2,55276
1210,18165;2,55533
1208,13049;2,55678
1206,07934;2,5597
1204,02818;2,56477
1201,97703;2,56913
1199,92587;2,57006
1197,87472;2,56937
1195,82356;2,57327
1193,77241;2,58443
1191,72125;2,59365
1189,6701;2,59733
1187,61894;2,60122
1185,56779;2,6048
1183,51663;2,60904
1181,46547;2,61589
1179,41432;2,62019
1177,36316;2,61947
1175,31201;2,61664
1173,26085;2,61408
1171,2097;2,61403
1169,15854;2,61741
1167,10739;2,6215
1165,05623;2,62392
1163,00508;2,6259
1160,95392;2,62467
1158,90277;2,61936
1156,85161;2,61756
1154,80046;2,61963
1152,7493;2,62167
1150,69814;2,62003
1148,64699;2,61549
1146,59583;2,61401
1144,54468;2,61449
1142,49352;2,6133
1140,44237;2,61216
1138,39121;2,61307
1136,34006;2,6167
1134,2889;2,62076
1132,23775;2,62077
1130,18659;2,61926
1128,13544;2,61979
1126,08428;2,62241
1124,03313;2,62903
1121,98197;2,63756
1119,93081;2,64311
1117,87966;2,64383
1115,8285;2,63866
1113,77735;2,6274
1111,72619;2,61591
1109,67504;2,61484
1107,62388;2,62629
1105,57273;2,637
1103,52157;2,63858
1101,47042;2,63435
1099,41926;2,63095
1097,36811;2,63373
1095,31695;2,63755
1093,2658;2,63762
1091,21464;2,63709
1089,16348;2,64321
1087,11233;2,6585
1085,06117;2,67095
1083,01002;2,6677
1080,95886;2,65362
1078,90771;2,6444
1076,85655;2,64373
1074,8054;2,64722
1072,75424;2,65377
1070,70309;2,65641
1068,65193;2,65064
1066,60078;2,64543
1064,54962;2,64527
1062,49847;2,64493
1060,44731;2,64245
1058,39615;2,63832
1056,345;2,63922
1054,29384;2,6516
1052,24269;2,66256
1050,19153;2,66211
1048,14038;2,66121
1046,08922;2,66335
1044,03807;2,66498
1041,98691;2,6653
1039,93576;2,6621
1037,8846;2,66103
1035,83345;2,66701
1033,78229;2,67178
1031,73114;2,66968
1029,67998;2,66801
1027,62882;2,67208
1025,57767;2,67665
1023,52651;2,6745
1021,47536;2,67089
1019,4242;2,6733
1017,37305;2,67521
1015,32189;2,67185
1013,27074;2,6694
1011,21958;2,6693
1009,16843;2,66586
1007,11727;2,66239
1005,06612;2,66263
1003,01496;2,66095
1000,96381;2,65525
998,91265;2,64883
996,86149;2,64709
994,81034;2,64624
992,75918;2,63834
990,70803;2,63302
988,65687;2,63706
986,60572;2,6408
984,55456;2,63959
982,50341;2,6358
980,45225;2,63214
978,4011;2,62773
976,34994;2,61953
974,29879;2,61697
972,24763;2,62212
970,19647;2,62184
968,14532;2,61772
966,09416;2,61678
964,04301;2,61979
961,99185;2,62542
959,9407;2,62636
957,88954;2,62158
955,83839;2,61719
953,78723;2,61685
951,73608;2,62407
949,68492;2,63377
947,63377;2,63511
945,58261;2,63271
943,53146;2,63684
941,4803;2,64274
939,42914;2,6412
937,37799;2,63677
935,32683;2,63551
933,27568;2,63277
931,22452;2,6302
929,17337;2,62987
927,12221;2,62759
925,07106;2,62785
923,0199;2,63072
920,96875;2,63262
918,91759;2,6362
916,86644;2,63954
914,81528;2,64451
912,76413;2,64969
910,71297;2,64798
908,66181;2,64948
906,61066;2,6567
904,5595;2,65956
902,50835;2,66533
900,45719;2,67414
898,40604;2,67321
896,35488;2,66445
894,30373;2,65618
892,25257;2,64313
890,20142;2,61136
888,15026;2,5871
886,09911;2,61349
884,04795;2,67229
881,9968;2,68249
879,94564;2,60655
877,89448;2,49979
875,84333;2,40328
873,79217;2,32032
871,74102;2,27518
869,68986;2,29643
867,63871;2,36644
865,58755;2,43685
863,5364;2,48392
861,48524;2,50707
859,43409;2,51632
857,38293;2,52875
855,33178;2,54373
853,28062;2,55956
851,22947;2,5832
849,17831;2,60539
847,12715;2,60216
845,076;2,58113
843,02484;2,57842
840,97369;2,58974
838,92253;2,5849
836,87138;2,56905
834,82022;2,56045
832,76907;2,56128
830,71791;2,56579
828,66676;2,57563
826,6156;2,58825
824,56445;2,58968
822,51329;2,58807
820,46214;2,59825
818,41098;2,6101
816,35982;2,61676
814,30867;2,61874
812,25751;2,61344
810,20636;2,60751
808,1552;2,60577
806,10405;2,60823
804,05289;2,62297
802,00174;2,64744
799,95058;2,66224
797,89943;2,66311
795,84827;2,66291
793,79712;2,66683
791,74596;2,66716
789,69481;2,65814
787,64365;2,6587
785,59249;2,67642
783,54134;2,68893
781,49018;2,68527
779,43903;2,67935
777,38787;2,68149
775,33672;2,6794
773,28556;2,67315
771,23441;2,68228
769,18325;2,69484
767,1321;2,69081
765,08094;2,67591
763,02979;2,66231
760,97863;2,65852
758,92748;2,66339
756,87632;2,67217
754,82516;2,67661
752,77401;2,68015
750,72285;2,6912
748,6717;2,70278
746,62054;2,70488
744,56939;2,69661
742,51823;2,68601
740,46708;2,68491
738,41592;2,69785
736,36477;2,71448
734,31361;2,72896
732,26246;2,7436
730,2113;2,76591
728,16015;2,79678
726,10899;2,82544
724,05783;2,85556
722,00668;2,88411
719,95552;2,90655
717,90437;2,92235
715,85321;2,90951
713,80206;2,84518
711,7509;2,7638
709,69975;2,71597
707,64859;2,71612
705,59744;2,74155
703,54628;2,75329
701,49513;2,74087
699,44397;2,72359
697,39281;2,72273
695,34166;2,74243
693,2905;2,76405
691,23935;2,76515
689,18819;2,74216
687,13704;2,71699
685,08588;2,70721
683,03473;2,7066
680,98357;2,70835
678,93242;2,70945
676,88126;2,70956
674,83011;2,7232
672,77895;2,74738
670,7278;2,74845
668,67664;2,72655
666,62548;2,71459
664,57433;2,71722
662,52317;2,72606
660,47202;2,74149
658,42086;2,75863
656,36971;2,76629
654,31855;2,76248
652,2674;2,7539
650,21624;2,74524
648,16509;2,74112
646,11393;2,75582
644,06278;2,7873
642,01162;2,79961
639,96047;2,78119
637,90931;2,76739
635,85815;2,78632
633,807;2,82357
631,75584;2,83557
629,70469;2,81896
627,65353;2,81313
625,60238;2,82342
623,55122;2,82573
621,50007;2,82299
619,44891;2,82904
617,39776;2,83533
615,3466;2,8359
613,29545;2,84637
611,24429;2,86268
609,19314;2,85473
607,14198;2,82197
605,09082;2,80501
603,03967;2,82136
600,98851;2,83111
598,93736;2,83228
596,8862;2,86588
594,83505;2,90131
592,78389;2,902
590,73274;2,89363
588,68158;2,8692
586,63043;2,84217
584,57927;2,83177
582,52812;2,83686
580,47696;2,84647
578,42581;2,84015
576,37465;2,82299
574,32349;2,82817
572,27234;2,84871
570,22118;2,85714
568,17003;2,86042
566,11887;2,86937
564,06772;2,88535
562,01656;2,9058
559,96541;2,91004
557,91425;2,88963
555,8631;2,85594
553,81194;2,82796
551,76079;2,84449
549,70963;2,8972
547,65848;2,95739
545,60732;3,03198
543,55616;3,06055
541,50501;3,01406
539,45385;2,97063
537,4027;2,93331
535,35154;2,899
533,30039;2,89632
531,24923;2,90875
529,19808;2,88755
527,14692;2,84511
525,09577;2,8254
523,04461;2,82837
520,99346;2,82432
518,9423;2,82819
516,89115;2,87992
514,83999;2,92725
512,78883;2,92056
510,73768;2,91095
508,68652;2,90597
506,63537;2,87255
504,58421;2,86571
502,53306;2,91218
500,4819;2,94425
498,43075;2,93638
496,37959;2,94098
494,32844;2,97254
492,27728;2,99005
490,22613;2,98307
488,17497;2,98
486,12382;3,01534
484,07266;3,0645
482,0215;3,04656
479,97035;2,97796
477,91919;2,95907
475,86804;2,9861
473,81688;2,9755
471,76573;2,95935
469,71457;3,00038
467,66342;3,04964
465,61226;3,02497
463,56111;2,98897
461,50995;3,07036
459,4588;3,18491
457,40764;3,13922
455,35649;3,03905
453,30533;2,94769
451,25417;2,82459
449,20302;2,79595
447,15186;2,84769
445,10071;2,88487
443,04955;2,92064
440,9984;2,98821
438,94724;2,9661
436,89609;2,86577
434,84493;2,82105
432,79378;2,85844
430,74262;2,95935
428,69147;3,05092
426,64031;2,98924
424,58916;2,89947
422,538;2,92721
420,48684;3,06374
418,43569;3,11911
416,38453;3,04142
414,33338;2,94879
412,28222;2,8135
410,23107;2,70869
408,17991;2,72274
406,12876;2,77353
404,0776;2,7283
402,02645;2,63971
399,97529;2,61051
