Data from CoccinigliaWhite_Reflection__1__47.txt Node;
"Date: Fri Sep 12 11:37:40 CEST 2025 User: sycur Spectrometer: SR400348 Trigger mode: 0 Integration Time (sec): 2,000000E-2 Scans to average: 20 Electric dark correction enabled: true Nonlinearity correction enabled: false Boxcar width: 10 XAxis mode: Wavelengths Number of Pixels in Spectrum: 3648 >>>>>Begin Spectral Data<<<<<";
186,01;815,3
186,281;1197,06
186,552;12,32
186,822;-39,04
187,093;54,55
187,364;-80,55
187,635;7571,28
187,905;98,82
188,176;38,07
188,447;29,72
188,717;23,13
188,988;25,75
189,258;24,49
189,529;25,13
189,8;22,66
190,07;19,16
190,341;19,23
190,611;16,34
190,882;14,7
191,152;14,79
191,423;14,39
191,693;13,54
191,964;12,81
192,234;13,55
192,505;12,69
192,775;12,85
193,045;11,97
193,316;11,47
193,586;10,21
193,856;10,44
194,127;9,67
194,397;9,18
194,667;8,88
194,938;9,21
195,208;8,67
195,478;8,4
195,748;7,8
196,019;6,95
196,289;7,08
196,559;7,11
196,829;6,6
197,099;6,7
197,37;6,59
197,64;6,63
197,91;6,2
198,18;6,2
198,45;5,86
198,72;6,06
198,99;5,64
199,26;5,24
199,53;5,19
199,8;5,53
200,07;5,49
200,34;5,36
200,61;5,07
200,88;5,3
201,15;5,3
201,42;5,44
201,69;5,59
201,96;5,45
202,23;5,19
202,499;4,99
202,769;5,04
203,039;4,91
203,309;4,84
203,579;4,68
203,849;4,66
204,118;4,61
204,388;4,23
204,658;4,2
204,927;4,11
205,197;3,96
205,467;3,8
205,736;3,73
206,006;3,52
206,276;3,41
206,545;3,07
206,815;2,95
207,085;3,03
207,354;2,93
207,624;2,87
207,893;2,77
208,163;2,8
208,432;2,68
208,702;2,65
208,971;2,65
209,241;2,71
209,51;2,7
209,78;2,69
210,049;2,69
210,318;2,61
210,588;2,78
210,857;2,71
211,127;2,7
211,396;2,74
211,665;2,64
211,935;2,69
212,204;2,75
212,473;2,75
212,742;2,72
213,012;2,71
213,281;2,7
213,55;2,66
213,819;2,65
214,088;2,63
214,358;2,58
214,627;2,54
214,896;2,47
215,165;2,35
215,434;2,32
215,703;2,27
215,972;2,33
216,241;2,25
216,51;2,25
216,779;2,15
217,048;2,12
217,317;2,18
217,586;2,17
217,855;2,14
218,124;2,13
218,393;2,05
218,662;2,01
218,931;1,98
219,2;1,94
219,469;1,88
219,738;1,9
220,006;1,88
220,275;1,9
220,544;1,88
220,813;1,85
221,082;1,85
221,35;1,88
221,619;1,88
221,888;1,89
222,157;1,86
222,425;1,88
222,694;1,86
222,963;1,86
223,231;1,82
223,5;1,88
223,769;1,86
224,037;1,84
224,306;1,86
224,574;1,85
224,843;1,86
225,111;1,88
225,38;1,83
225,648;1,82
225,917;1,77
226,185;1,77
226,454;1,76
226,722;1,74
226,991;1,71
227,259;1,68
227,528;1,63
227,796;1,64
228,064;1,61
228,333;1,59
228,601;1,57
228,869;1,54
229,138;1,49
229,406;1,49
229,674;1,5
229,942;1,5
230,211;1,49
230,479;1,5
230,747;1,48
231,015;1,48
231,283;1,48
231,552;1,48
231,82;1,46
232,088;1,47
232,356;1,47
232,624;1,49
232,892;1,49
233,16;1,5
233,428;1,5
233,696;1,5
233,964;1,5
234,232;1,49
234,5;1,5
234,768;1,49
235,036;1,47
235,304;1,46
235,572;1,43
235,84;1,43
236,108;1,42
236,376;1,41
236,644;1,41
236,912;1,4
237,179;1,4
237,447;1,4
237,715;1,39
237,983;1,38
238,251;1,35
238,518;1,33
238,786;1,32
239,054;1,31
239,322;1,31
239,589;1,31
239,857;1,31
240,125;1,31
240,392;1,3
240,66;1,29
240,927;1,28
241,195;1,28
241,463;1,27
241,73;1,27
241,998;1,26
242,265;1,25
242,533;1,25
242,8;1,24
243,068;1,25
243,335;1,24
243,603;1,23
243,87;1,23
244,138;1,24
244,405;1,23
244,672;1,22
244,94;1,21
245,207;1,2
245,474;1,2
245,742;1,2
246,009;1,19
246,276;1,2
246,544;1,2
246,811;1,2
247,078;1,19
247,345;1,19
247,613;1,19
247,88;1,18
248,147;1,18
248,414;1,17
248,681;1,17
248,948;1,17
249,215;1,17
249,483;1,17
249,75;1,16
250,017;1,17
250,284;1,17
250,551;1,17
250,818;1,16
251,085;1,16
251,352;1,16
251,619;1,17
251,886;1,16
252,153;1,15
252,42;1,15
252,687;1,16
252,953;1,15
253,22;1,16
253,487;1,17
253,754;1,16
254,021;1,17
254,288;1,16
254,555;1,15
254,821;1,14
255,088;1,14
255,355;1,14
255,622;1,14
255,888;1,13
256,155;1,13
256,422;1,13
256,688;1,13
256,955;1,1
257,222;1,1
257,488;1,1
257,755;1,09
258,022;1,09
258,288;1,08
258,555;1,07
258,821;1,07
259,088;1,06
259,354;1,05
259,621;1,05
259,887;1,05
260,154;1,05
260,42;1,05
260,687;1,05
260,953;1,04
261,219;1,04
261,486;1,04
261,752;1,02
262,019;1,03
262,285;1,02
262,551;1,03
262,818;1,03
263,084;1,02
263,35;1,02
263,616;1
263,883;1
264,149;0,99
264,415;0,98
264,681;0,98
264,947;0,98
265,214;0,98
265,48;0,98
265,746;0,98
266,012;0,97
266,278;0,96
266,544;0,96
266,81;0,95
267,076;0,94
267,342;0,95
267,608;0,93
267,874;0,93
268,14;0,93
268,406;0,92
268,672;0,93
268,938;0,93
269,204;0,93
269,47;0,91
269,736;0,91
270,002;0,9
270,268;0,89
270,533;0,88
270,799;0,87
271,065;0,87
271,331;0,86
271,597;0,86
271,862;0,86
272,128;0,86
272,394;0,87
272,66;0,86
272,925;0,86
273,191;0,87
273,457;0,87
273,722;0,88
273,988;0,88
274,254;0,86
274,519;0,86
274,785;0,86
275,05;0,87
275,316;0,88
275,582;0,89
275,847;0,89
276,113;0,9
276,378;0,9
276,644;0,9
276,909;0,91
277,174;0,91
277,44;0,91
277,705;0,91
277,971;0,92
278,236;0,92
278,501;0,92
278,767;0,92
279,032;0,92
279,297;0,92
279,563;0,94
279,828;0,95
280,093;0,95
280,358;0,96
280,624;0,96
280,889;0,96
281,154;0,96
281,419;0,96
281,684;0,96
281,95;0,98
282,215;0,99
282,48;1
282,745;1,01
283,01;1,02
283,275;1,03
283,54;1,02
283,805;1,03
284,07;1,05
284,335;1,06
284,6;1,06
284,865;1,08
285,13;1,07
285,395;1,09
285,66;1,1
285,925;1,12
286,19;1,13
286,455;1,14
286,72;1,16
286,985;1,17
287,249;1,18
287,514;1,18
287,779;1,2
288,044;1,2
288,309;1,2
288,573;1,2
288,838;1,21
289,103;1,22
289,367;1,22
289,632;1,23
289,897;1,23
290,161;1,22
290,426;1,22
290,691;1,23
290,955;1,23
291,22;1,23
291,484;1,22
291,749;1,23
292,014;1,23
292,278;1,24
292,543;1,23
292,807;1,23
293,072;1,24
293,336;1,23
293,6;1,23
293,865;1,24
294,129;1,24
294,394;1,25
294,658;1,25
294,922;1,25
295,187;1,25
295,451;1,25
295,715;1,26
295,98;1,27
296,244;1,28
296,508;1,28
296,773;1,28
297,037;1,27
297,301;1,27
297,565;1,27
297,829;1,26
298,094;1,27
298,358;1,27
298,622;1,27
298,886;1,28
299,15;1,27
299,414;1,28
299,678;1,29
299,942;1,27
300,206;1,26
300,47;1,27
300,734;1,26
300,998;1,27
301,262;1,27
301,526;1,27
301,79;1,26
302,054;1,26
302,318;1,26
302,582;1,27
302,846;1,26
303,11;1,26
303,374;1,27
303,637;1,26
303,901;1,26
304,165;1,25
304,429;1,25
304,693;1,26
304,956;1,25
305,22;1,24
305,484;1,25
305,747;1,25
306,011;1,24
306,275;1,24
306,538;1,24
306,802;1,24
307,066;1,24
307,329;1,24
307,593;1,24
307,856;1,24
308,12;1,24
308,384;1,24
308,647;1,24
308,911;1,22
309,174;1,23
309,438;1,23
309,701;1,23
309,964;1,22
310,228;1,22
310,491;1,22
310,755;1,22
311,018;1,23
311,281;1,22
311,545;1,22
311,808;1,21
312,071;1,2
312,335;1,18
312,598;1,19
312,861;1,19
313,124;1,18
313,388;1,18
313,651;1,18
313,914;1,17
314,177;1,17
314,44;1,17
314,704;1,17
314,967;1,16
315,23;1,15
315,493;1,17
315,756;1,15
316,019;1,14
316,282;1,15
316,545;1,14
316,808;1,15
317,071;1,15
317,334;1,15
317,597;1,16
317,86;1,16
318,123;1,15
318,386;1,15
318,649;1,14
318,912;1,14
319,175;1,13
319,437;1,13
319,7;1,14
319,963;1,13
320,226;1,13
320,489;1,14
320,751;1,13
321,014;1,13
321,277;1,14
321,54;1,14
321,802;1,14
322,065;1,14
322,328;1,13
322,59;1,12
322,853;1,12
323,116;1,12
323,378;1,13
323,641;1,14
323,903;1,14
324,166;1,14
324,428;1,14
324,691;1,12
324,953;1,11
325,216;1,1
325,478;1,1
325,741;1,09
326,003;1,08
326,266;1,09
326,528;1,08
326,791;1,09
327,053;1,08
327,315;1,07
327,578;1,07
327,84;1,07
328,102;1,07
328,365;1,08
328,627;1,07
328,889;1,06
329,151;1,05
329,414;1,05
329,676;1,05
329,938;1,06
330,2;1,07
330,462;1,08
330,725;1,08
330,987;1,08
331,249;1,08
331,511;1,09
331,773;1,08
332,035;1,09
332,297;1,08
332,559;1,08
332,821;1,08
333,083;1,09
333,345;1,09
333,607;1,09
333,869;1,08
334,131;1,08
334,393;1,08
334,655;1,08
334,917;1,07
335,179;1,07
335,44;1,06
335,702;1,06
335,964;1,06
336,226;1,07
336,488;1,06
336,749;1,07
337,011;1,07
337,273;1,08
337,535;1,07
337,796;1,06
338,058;1,06
338,32;1,07
338,581;1,06
338,843;1,06
339,105;1,07
339,366;1,08
339,628;1,09
339,889;1,09
340,151;1,09
340,412;1,1
340,674;1,1
340,935;1,1
341,197;1,11
341,458;1,11
341,72;1,1
341,981;1,11
342,243;1,11
342,504;1,11
342,766;1,11
343,027;1,11
343,288;1,11
343,55;1,11
343,811;1,11
344,072;1,12
344,334;1,11
344,595;1,1
344,856;1,09
345,117;1,08
345,379;1,1
345,64;1,1
345,901;1,11
346,162;1,11
346,423;1,1
346,684;1,1
346,946;1,11
347,207;1,11
347,468;1,1
347,729;1,1
347,99;1,1
348,251;1,1
348,512;1,12
348,773;1,13
349,034;1,13
349,295;1,13
349,556;1,12
349,817;1,13
350,078;1,14
350,339;1,16
350,6;1,18
350,86;1,16
351,121;1,16
351,382;1,14
351,643;1,14
351,904;1,14
352,165;1,16
352,425;1,15
352,686;1,16
352,947;1,15
353,208;1,15
353,468;1,16
353,729;1,15
353,99;1,15
354,25;1,15
354,511;1,13
354,772;1,13
355,032;1,16
355,293;1,14
355,553;1,13
355,814;1,12
356,074;1,11
356,335;1,11
356,596;1,11
356,856;1,13
357,116;1,15
357,377;1,15
357,637;1,13
357,898;1,15
358,158;1,13
358,419;1,14
358,679;1,14
358,939;1,14
359,2;1,15
359,46;1,17
359,72;1,16
359,981;1,18
360,241;1,17
360,501;1,15
360,761;1,16
361,022;1,17
361,282;1,17
361,542;1,18
361,802;1,18
362,062;1,17
362,323;1,17
362,583;1,17
362,843;1,17
363,103;1,18
363,363;1,19
363,623;1,2
363,883;1,21
364,143;1,21
364,403;1,2
364,663;1,2
364,923;1,19
365,183;1,18
365,443;1,2
365,703;1,22
365,963;1,23
366,223;1,24
366,483;1,24
366,743;1,24
367,002;1,24
367,262;1,24
367,522;1,26
367,782;1,26
368,042;1,26
368,301;1,26
368,561;1,25
368,821;1,25
369,081;1,25
369,34;1,25
369,6;1,25
369,86;1,26
370,119;1,27
370,379;1,28
370,638;1,29
370,898;1,26
371,158;1,27
371,417;1,27
371,677;1,29
371,936;1,29
372,196;1,32
372,455;1,33
372,715;1,34
372,974;1,34
373,234;1,36
373,493;1,39
373,753;1,39
374,012;1,41
374,271;1,4
374,531;1,42
374,79;1,42
375,049;1,42
375,309;1,43
375,568;1,45
375,827;1,45
376,086;1,46
376,346;1,48
376,605;1,49
376,864;1,51
377,123;1,51
377,383;1,51
377,642;1,5
377,901;1,5
378,16;1,5
378,419;1,51
378,678;1,5
378,937;1,49
379,196;1,47
379,455;1,48
379,714;1,49
379,973;1,49
380,232;1,5
380,491;1,51
380,75;1,52
381,009;1,52
381,268;1,52
381,527;1,53
381,786;1,54
382,045;1,52
382,304;1,52
382,563;1,53
382,821;1,52
383,08;1,54
383,339;1,55
383,598;1,54
383,857;1,55
384,115;1,57
384,374;1,57
384,633;1,6
384,891;1,59
385,15;1,6
385,409;1,62
385,667;1,62
385,926;1,62
386,185;1,63
386,443;1,62
386,702;1,64
386,96;1,64
387,219;1,64
387,477;1,66
387,736;1,67
387,994;1,68
388,253;1,69
388,511;1,7
388,77;1,69
389,028;1,71
389,287;1,73
389,545;1,72
389,803;1,72
390,062;1,73
390,32;1,74
390,578;1,73
390,837;1,74
391,095;1,73
391,353;1,74
391,612;1,74
391,87;1,74
392,128;1,74
392,386;1,76
392,644;1,75
392,903;1,74
393,161;1,74
393,419;1,73
393,677;1,72
393,935;1,72
394,193;1,73
394,451;1,73
394,709;1,71
394,967;1,72
395,225;1,72
395,483;1,71
395,741;1,71
395,999;1,73
396,257;1,72
396,515;1,72
396,773;1,72
397,031;1,71
397,289;1,73
397,547;1,72
397,805;1,71
398,062;1,72
398,32;1,73
398,578;1,73
398,836;1,73
399,094;1,75
399,351;1,73
399,609;1,72
399,867;1,72
400,124;1,73
400,382;1,73
400,64;1,74
400,897;1,76
401,155;1,75
401,413;1,77
401,67;1,77
401,928;1,78
402,185;1,79
402,443;1,81
402,701;1,81
402,958;1,8
403,216;1,81
403,473;1,81
403,73;1,81
403,988;1,84
404,245;1,84
404,503;1,86
404,76;1,88
405,018;1,89
405,275;1,91
405,532;1,91
405,79;1,9
406,047;1,9
406,304;1,89
406,561;1,91
406,819;1,88
407,076;1,89
407,333;1,9
407,59;1,89
407,848;1,89
408,105;1,89
408,362;1,89
408,619;1,89
408,876;1,89
409,133;1,87
409,39;1,86
409,647;1,84
409,904;1,84
410,161;1,85
410,418;1,85
410,675;1,84
410,932;1,85
411,189;1,83
411,446;1,83
411,703;1,83
411,96;1,82
412,217;1,84
412,474;1,84
412,731;1,83
412,988;1,83
413,245;1,82
413,501;1,81
413,758;1,81
414,015;1,79
414,272;1,78
414,529;1,78
414,785;1,78
415,042;1,79
415,299;1,78
415,555;1,76
415,812;1,74
416,069;1,73
416,325;1,73
416,582;1,74
416,838;1,74
417,095;1,72
417,352;1,7
417,608;1,68
417,865;1,67
418,121;1,67
418,378;1,65
418,634;1,67
418,891;1,69
419,147;1,7
419,403;1,7
419,66;1,7
419,916;1,7
420,173;1,7
420,429;1,67
420,685;1,66
420,942;1,67
421,198;1,67
421,454;1,68
421,711;1,68
421,967;1,67
422,223;1,65
422,479;1,66
422,735;1,67
422,992;1,66
423,248;1,66
423,504;1,64
423,76;1,64
424,016;1,64
424,272;1,63
424,528;1,63
424,784;1,64
425,041;1,63
425,297;1,63
425,553;1,63
425,809;1,64
426,065;1,64
426,32;1,63
426,576;1,62
426,832;1,61
427,088;1,59
427,344;1,57
427,6;1,58
427,856;1,58
428,112;1,58
428,368;1,58
428,623;1,56
428,879;1,58
429,135;1,58
429,391;1,58
429,646;1,56
429,902;1,53
430,158;1,54
430,414;1,53
430,669;1,53
430,925;1,52
431,181;1,54
431,436;1,54
431,692;1,54
431,947;1,53
432,203;1,52
432,458;1,52
432,714;1,52
432,97;1,5
433,225;1,5
433,481;1,49
433,736;1,49
433,991;1,51
434,247;1,49
434,502;1,49
434,758;1,48
435,013;1,51
435,268;1,52
435,524;1,5
435,779;1,5
436,034;1,49
436,29;1,5
436,545;1,46
436,8;1,47
437,056;1,45
437,311;1,46
437,566;1,46
437,821;1,46
438,076;1,45
438,331;1,45
438,587;1,44
438,842;1,45
439,097;1,43
439,352;1,42
439,607;1,42
439,862;1,43
440,117;1,42
440,372;1,39
440,627;1,37
440,882;1,37
441,137;1,37
441,392;1,35
441,647;1,36
441,902;1,36
442,157;1,36
442,412;1,36
442,667;1,35
442,921;1,36
443,176;1,37
443,431;1,38
443,686;1,37
443,941;1,35
444,195;1,34
444,45;1,36
444,705;1,36
444,96;1,35
445,214;1,33
445,469;1,34
445,724;1,33
445,978;1,34
446,233;1,34
446,487;1,34
446,742;1,34
446,997;1,32
447,251;1,31
447,506;1,31
447,76;1,31
448,015;1,32
448,269;1,3
448,524;1,29
448,778;1,27
449,033;1,28
449,287;1,29
449,541;1,28
449,796;1,26
450,05;1,24
450,305;1,24
450,559;1,24
450,813;1,22
451,067;1,22
451,322;1,22
451,576;1,2
451,83;1,19
452,084;1,18
452,339;1,18
452,593;1,17
452,847;1,15
453,101;1,15
453,355;1,13
453,609;1,13
453,864;1,12
454,118;1,12
454,372;1,1
454,626;1,12
454,88;1,12
455,134;1,12
455,388;1,13
455,642;1,13
455,896;1,13
456,15;1,13
456,404;1,13
456,658;1,12
456,912;1,12
457,165;1,12
457,419;1,13
457,673;1,15
457,927;1,16
458,181;1,17
458,435;1,18
458,688;1,18
458,942;1,18
459,196;1,16
459,45;1,16
459,703;1,16
459,957;1,14
460,211;1,14
460,464;1,16
460,718;1,13
460,972;1,12
461,225;1,1
461,479;1,1
461,732;1,1
461,986;1,1
462,239;1,1
462,493;1,09
462,746;1,09
463;1,06
463,253;1,05
463,507;1,04
463,76;1,02
464,014;1,02
464,267;1,02
464,52;1,02
464,774;1,03
465,027;1,02
465,28;1,03
465,534;1,03
465,787;1,02
466,04;1,02
466,294;1
466,547;1,02
466,8;1,03
467,053;1,01
467,306;1,01
467,56;1,01
467,813;1,01
468,066;1
468,319;1,02
468,572;1,02
468,825;1,03
469,078;1,03
469,331;1,01
469,584;1,02
469,837;1,02
470,09;1,02
470,343;1,01
470,596;0,99
470,849;0,99
471,102;0,98
471,355;0,98
471,608;0,98
471,861;0,96
472,114;0,94
472,367;0,94
472,619;0,93
472,872;0,92
473,125;0,91
473,378;0,9
473,631;0,89
473,883;0,88
474,136;0,88
474,389;0,87
474,641;0,86
474,894;0,86
475,147;0,85
475,399;0,84
475,652;0,85
475,905;0,85
476,157;0,82
476,41;0,82
476,662;0,83
476,915;0,83
477,167;0,83
477,42;0,84
477,672;0,84
477,925;0,84
478,177;0,85
478,43;0,84
478,682;0,85
478,934;0,85
479,187;0,85
479,439;0,85
479,691;0,86
479,944;0,87
480,196;0,86
480,448;0,88
480,701;0,87
480,953;0,87
481,205;0,88
481,457;0,88
481,709;0,88
481,962;0,88
482,214;0,88
482,466;0,89
482,718;0,87
482,97;0,88
483,222;0,88
483,474;0,88
483,726;0,88
483,978;0,88
484,23;0,87
484,482;0,87
484,734;0,87
484,986;0,86
485,238;0,86
485,49;0,86
485,742;0,86
485,994;0,86
486,246;0,85
486,498;0,85
486,75;0,85
487,001;0,85
487,253;0,84
487,505;0,84
487,757;0,84
488,009;0,85
488,26;0,85
488,512;0,85
488,764;0,84
489,015;0,83
489,267;0,83
489,519;0,82
489,77;0,81
490,022;0,81
490,274;0,81
490,525;0,81
490,777;0,8
491,028;0,79
491,28;0,79
491,531;0,78
491,783;0,79
492,034;0,79
492,286;0,79
492,537;0,81
492,789;0,81
493,04;0,81
493,291;0,8
493,543;0,79
493,794;0,79
494,045;0,79
494,297;0,79
494,548;0,8
494,799;0,8
495,051;0,81
495,302;0,81
495,553;0,81
495,804;0,81
496,056;0,82
496,307;0,82
496,558;0,82
496,809;0,84
497,06;0,84
497,311;0,83
497,562;0,83
497,813;0,83
498,064;0,83
498,316;0,82
498,567;0,82
498,818;0,82
499,069;0,82
499,319;0,82
499,57;0,82
499,821;0,81
500,072;0,81
500,323;0,81
500,574;0,82
500,825;0,81
501,076;0,8
501,327;0,8
501,577;0,8
501,828;0,8
502,079;0,78
502,33;0,79
502,58;0,79
502,831;0,79
503,082;0,79
503,333;0,79
503,583;0,79
503,834;0,79
504,084;0,8
504,335;0,81
504,586;0,82
504,836;0,81
505,087;0,81
505,337;0,81
505,588;0,8
505,838;0,81
506,089;0,81
506,339;0,81
506,59;0,82
506,84;0,82
507,091;0,82
507,341;0,82
507,591;0,82
507,842;0,82
508,092;0,81
508,343;0,81
508,593;0,82
508,843;0,82
509,093;0,82
509,344;0,81
509,594;0,81
509,844;0,8
510,094;0,81
510,345;0,81
510,595;0,82
510,845;0,82
511,095;0,82
511,345;0,82
511,595;0,82
511,845;0,82
512,095;0,81
512,345;0,82
512,595;0,81
512,845;0,82
513,095;0,83
513,345;0,83
513,595;0,83
513,845;0,84
514,095;0,84
514,345;0,83
514,595;0,85
514,845;0,84
515,095;0,84
515,345;0,84
515,594;0,85
515,844;0,85
516,094;0,85
516,344;0,84
516,593;0,84
516,843;0,84
517,093;0,84
517,343;0,85
517,592;0,85
517,842;0,86
518,092;0,86
518,341;0,85
518,591;0,86
518,84;0,86
519,09;0,85
519,34;0,85
519,589;0,86
519,839;0,86
520,088;0,87
520,338;0,87
520,587;0,88
520,836;0,88
521,086;0,88
521,335;0,89
521,585;0,89
521,834;0,91
522,083;0,92
522,333;0,92
522,582;0,92
522,831;0,92
523,081;0,91
523,33;0,92
523,579;0,93
523,828;0,94
524,078;0,94
524,327;0,94
524,576;0,95
524,825;0,94
525,074;0,94
525,323;0,94
525,573;0,95
525,822;0,94
526,071;0,95
526,32;0,95
526,569;0,96
526,818;0,96
527,067;0,96
527,316;0,96
527,565;0,97
527,814;0,97
528,063;0,97
528,312;0,98
528,56;0,98
528,809;0,98
529,058;0,97
529,307;0,97
529,556;0,98
529,805;0,97
530,053;0,98
530,302;0,99
530,551;1
530,8;0,99
531,048;1,01
531,297;1,01
531,546;1
531,794;1,01
532,043;1,01
532,292;1,01
532,54;1,02
532,789;1,01
533,037;1,02
533,286;1,03
533,535;1,03
533,783;1,03
534,032;1,03
534,28;1,04
534,528;1,04
534,777;1,04
535,025;1,04
535,274;1,03
535,522;1,03
535,771;1,04
536,019;1,03
536,267;1,02
536,516;1,03
536,764;1,03
537,012;1,03
537,26;1,03
537,509;1,03
537,757;1,02
538,005;1,02
538,253;1,02
538,501;1,03
538,75;1,02
538,998;1,03
539,246;1,03
539,494;1,02
539,742;1,03
539,99;1,03
540,238;1,02
540,486;1,03
540,734;1,02
540,982;1,01
541,23;1,01
541,478;1,01
541,726;1,01
541,974;1,01
542,222;1
542,47;1
542,718;1,01
542,966;1,01
543,213;1,01
543,461;1
543,709;0,99
543,957;0,99
544,205;0,99
544,452;0,99
544,7;0,99
544,948;0,99
545,196;0,98
545,443;0,98
545,691;0,98
545,939;0,98
546,186;0,98
546,434;0,99
546,681;0,99
546,929;1
547,176;1,01
547,424;1,01
547,671;1,01
547,919;1,01
548,166;1,01
548,414;1,01
548,661;1,01
548,909;1,01
549,156;1
549,404;1
549,651;1,01
549,898;1,01
550,146;1,01
550,393;1,02
550,64;1,02
550,888;1,02
551,135;1,02
551,382;1,03
551,629;1,02
551,876;1,03
552,124;1,02
552,371;1,01
552,618;1,01
552,865;1,01
553,112;1,01
553,359;1,01
553,606;1,01
553,854;1,02
554,101;1,02
554,348;1,01
554,595;1,01
554,842;1
555,089;1
555,336;0,99
555,582;0,99
555,829;0,99
556,076;0,98
556,323;0,99
556,57;0,99
556,817;0,99
557,064;0,99
557,311;0,99
557,557;0,99
557,804;0,99
558,051;0,99
558,298;1
558,544;1
558,791;0,99
559,038;0,99
559,284;0,99
559,531;1
559,778;1,01
560,024;1,02
560,271;1,02
560,517;1,03
560,764;1,03
561,011;1,04
561,257;1,05
561,504;1,06
561,75;1,06
561,997;1,07
562,243;1,08
562,489;1,08
562,736;1,09
562,982;1,1
563,229;1,1
563,475;1,11
563,721;1,11
563,968;1,12
564,214;1,12
564,46;1,13
564,707;1,14
564,953;1,14
565,199;1,14
565,445;1,15
565,691;1,16
565,938;1,16
566,184;1,17
566,43;1,17
566,676;1,18
566,922;1,18
567,168;1,18
567,414;1,18
567,66;1,19
567,906;1,2
568,152;1,21
568,398;1,22
568,644;1,23
568,89;1,24
569,136;1,25
569,382;1,27
569,628;1,27
569,874;1,27
570,12;1,28
570,366;1,29
570,612;1,29
570,857;1,3
571,103;1,31
571,349;1,31
571,595;1,33
571,84;1,33
572,086;1,35
572,332;1,36
572,578;1,37
572,823;1,37
573,069;1,38
573,315;1,39
573,56;1,41
573,806;1,42
574,051;1,43
574,297;1,44
574,542;1,45
574,788;1,47
575,034;1,49
575,279;1,5
575,524;1,51
575,77;1,52
576,015;1,53
576,261;1,55
576,506;1,56
576,752;1,57
576,997;1,58
577,242;1,59
577,488;1,61
577,733;1,61
577,978;1,63
578,223;1,64
578,469;1,66
578,714;1,67
578,959;1,69
579,204;1,7
579,45;1,72
579,695;1,74
579,94;1,75
580,185;1,77
580,43;1,78
580,675;1,8
580,92;1,82
581,165;1,84
581,41;1,85
581,655;1,87
581,9;1,89
582,145;1,9
582,39;1,92
582,635;1,94
582,88;1,97
583,125;1,98
583,37;2,01
583,615;2,02
583,86;2,04
584,105;2,06
584,349;2,09
584,594;2,1
584,839;2,13
585,084;2,15
585,328;2,18
585,573;2,2
585,818;2,23
586,063;2,25
586,307;2,27
586,552;2,3
586,797;2,32
587,041;2,34
587,286;2,37
587,53;2,4
587,775;2,42
588,019;2,45
588,264;2,47
588,508;2,5
588,753;2,52
588,997;2,55
589,242;2,59
589,486;2,62
589,731;2,65
589,975;2,69
590,22;2,73
590,464;2,76
590,708;2,8
590,953;2,84
591,197;2,89
591,441;2,93
591,685;2,97
591,93;3,01
592,174;3,06
592,418;3,1
592,662;3,14
592,907;3,19
593,151;3,24
593,395;3,28
593,639;3,33
593,883;3,38
594,127;3,43
594,371;3,47
594,615;3,52
594,859;3,57
595,103;3,62
595,347;3,67
595,591;3,72
595,835;3,77
596,079;3,83
596,323;3,89
596,567;3,95
596,811;4,01
597,055;4,08
597,299;4,14
597,542;4,22
597,786;4,28
598,03;4,34
598,274;4,4
598,518;4,49
598,761;4,55
599,005;4,63
599,249;4,7
599,492;4,77
599,736;4,84
599,98;4,92
600,223;5
600,467;5,09
600,711;5,17
600,954;5,25
601,198;5,33
601,441;5,41
601,685;5,48
601,928;5,58
602,172;5,66
602,415;5,75
602,659;5,83
602,902;5,93
603,145;6,02
603,389;6,12
603,632;6,2
603,876;6,3
604,119;6,39
604,362;6,5
604,606;6,6
604,849;6,7
605,092;6,79
605,335;6,89
605,579;6,98
605,822;7,09
606,065;7,19
606,308;7,3
606,551;7,41
606,794;7,52
607,037;7,61
607,281;7,73
607,524;7,84
607,767;7,95
608,01;8,06
608,253;8,18
608,496;8,3
608,739;8,42
608,982;8,53
609,225;8,65
609,468;8,77
609,711;8,89
609,953;9,01
610,196;9,15
610,439;9,27
610,682;9,41
610,925;9,53
611,168;9,67
611,41;9,8
611,653;9,95
611,896;10,09
612,139;10,24
612,381;10,37
612,624;10,51
612,867;10,66
613,109;10,81
613,352;10,94
613,595;11,09
613,837;11,23
614,08;11,38
614,322;11,53
614,565;11,69
614,807;11,84
615,05;11,99
615,292;12,14
615,535;12,3
615,777;12,44
616,02;12,61
616,262;12,76
616,505;12,92
616,747;13,07
616,989;13,23
617,232;13,38
617,474;13,55
617,716;13,72
617,959;13,89
618,201;14,04
618,443;14,22
618,685;14,38
618,927;14,58
619,17;14,75
619,412;14,92
619,654;15,1
619,896;15,27
620,138;15,45
620,38;15,65
620,622;15,83
620,864;16,02
621,107;16,19
621,349;16,38
621,591;16,56
621,833;16,75
622,075;16,94
622,316;17,14
622,558;17,33
622,8;17,51
623,042;17,68
623,284;17,87
623,526;18,04
623,768;18,23
624,01;18,39
624,251;18,57
624,493;18,74
624,735;18,92
624,977;19,1
625,218;19,28
625,46;19,44
625,702;19,64
625,943;19,81
626,185;20,01
626,427;20,19
626,668;20,38
626,91;20,57
627,152;20,76
627,393;20,93
627,635;21,11
627,876;21,3
628,118;21,5
628,359;21,68
628,601;21,88
628,842;22,07
629,084;22,26
629,325;22,44
629,566;22,64
629,808;22,83
630,049;23,01
630,29;23,2
630,532;23,4
630,773;23,56
631,014;23,77
631,256;23,93
631,497;24,12
631,738;24,3
631,979;24,49
632,22;24,67
632,462;24,86
632,703;25,04
632,944;25,23
633,185;25,41
633,426;25,6
633,667;25,8
633,908;25,98
634,149;26,17
634,39;26,36
634,631;26,54
634,872;26,74
635,113;26,93
635,354;27,12
635,595;27,3
635,836;27,5
636,077;27,67
636,318;27,88
636,559;28,05
636,8;28,24
637,04;28,42
637,281;28,61
637,522;28,8
637,763;28,99
638,003;29,18
638,244;29,38
638,485;29,57
638,726;29,75
638,966;29,93
639,207;30,12
639,448;30,3
639,688;30,5
639,929;30,68
640,169;30,87
640,41;31,04
640,65;31,23
640,891;31,4
641,131;31,59
641,372;31,77
641,612;31,97
641,853;32,13
642,093;32,31
642,334;32,5
642,574;32,68
642,814;32,85
643,055;33,02
643,295;33,18
643,535;33,36
643,776;33,52
644,016;33,71
644,256;33,88
644,496;34,08
644,737;34,24
644,977;34,43
645,217;34,61
645,457;34,8
645,697;34,96
645,938;35,15
646,178;35,32
646,418;35,5
646,658;35,67
646,898;35,85
647,138;36,03
647,378;36,21
647,618;36,37
647,858;36,56
648,098;36,72
648,338;36,89
648,578;37,05
648,818;37,23
649,057;37,4
649,297;37,57
649,537;37,71
649,777;37,87
650,017;38,01
650,257;38,17
650,496;38,33
650,736;38,49
650,976;38,63
651,216;38,78
651,455;38,93
651,695;39,1
651,935;39,3
652,174;39,62
652,414;40,02
652,653;40,51
652,893;41,74
653,133;43,85
653,372;46,14
653,612;47,91
653,851;49,06
654,091;49,59
654,33;49,62
654,57;49,28
654,809;48,96
655,048;48,72
655,288;48,52
655,527;48,38
655,767;48,29
656,006;48,24
656,245;48,21
656,485;48,2
656,724;48,22
656,963;48,24
657,202;48,27
657,442;48,39
657,681;48,61
657,92;48,44
658,159;47,55
658,398;46,17
658,637;44,8
658,877;43,62
659,116;42,82
659,355;42,45
659,594;42,55
659,833;42,77
660,072;43,01
660,311;43,25
660,55;43,53
660,789;43,8
661,028;44,05
661,267;44,28
661,506;44,51
661,744;44,7
661,983;44,86
662,222;45,03
662,461;45,16
662,7;45,32
662,939;45,46
663,177;45,58
663,416;45,73
663,655;45,87
663,894;46
664,132;46,12
664,371;46,24
664,61;46,37
664,848;46,51
665,087;46,64
665,326;46,77
665,564;46,89
665,803;47
666,041;47,12
666,28;47,26
666,518;47,38
666,757;47,5
666,995;47,64
667,234;47,77
667,472;47,9
667,711;48,03
667,949;48,13
668,187;48,26
668,426;48,37
668,664;48,48
668,902;48,59
669,141;48,71
669,379;48,83
669,617;48,96
669,856;49,1
670,094;49,21
670,332;49,33
670,57;49,45
670,808;49,58
671,046;49,7
671,285;49,82
671,523;49,91
671,761;50,04
671,999;50,14
672,237;50,26
672,475;50,38
672,713;50,47
672,951;50,58
673,189;50,68
673,427;50,79
673,665;50,9
673,903;51,02
674,141;51,13
674,379;51,25
674,617;51,34
674,854;51,44
675,092;51,55
675,33;51,67
675,568;51,79
675,806;51,89
676,043;52,01
676,281;52,12
676,519;52,24
676,756;52,34
676,994;52,45
677,232;52,54
677,469;52,63
677,707;52,76
677,945;52,88
678,182;52,99
678,42;53,1
678,657;53,2
678,895;53,29
679,132;53,4
679,37;53,49
679,607;53,59
679,845;53,67
680,082;53,78
680,32;53,88
680,557;53,98
680,794;54,08
681,032;54,18
681,269;54,27
681,507;54,39
681,744;54,5
681,981;54,59
682,218;54,7
682,456;54,83
682,693;54,91
682,93;54,99
683,167;55,07
683,404;55,17
683,642;55,27
683,879;55,38
684,116;55,48
684,353;55,59
684,59;55,69
684,827;55,77
685,064;55,87
685,301;55,97
685,538;56,05
685,775;56,13
686,012;56,21
686,249;56,31
686,486;56,38
686,723;56,46
686,96;56,57
687,197;56,65
687,433;56,74
687,67;56,82
687,907;56,93
688,144;57,06
688,381;57,16
688,617;57,24
688,854;57,33
689,091;57,41
689,327;57,5
689,564;57,58
689,801;57,68
690,037;57,77
690,274;57,86
690,511;57,97
690,747;58,05
690,984;58,16
691,22;58,24
691,457;58,36
691,693;58,44
691,93;58,54
692,166;58,64
692,403;58,73
692,639;58,83
692,876;58,9
693,112;59
693,348;59,07
693,585;59,16
693,821;59,27
694,057;59,39
694,294;59,5
694,53;59,6
694,766;59,71
695,002;59,8
695,239;59,87
695,475;59,98
695,711;60,07
695,947;60,15
696,183;60,24
696,419;60,32
696,656;60,41
696,892;60,48
697,128;60,56
697,364;60,63
697,6;60,71
697,836;60,81
698,072;60,9
698,308;61,01
698,544;61,13
698,78;61,22
699,016;61,29
699,251;61,35
699,487;61,45
699,723;61,53
699,959;61,63
700,195;61,73
700,431;61,8
700,666;61,89
700,902;61,98
701,138;62,07
701,374;62,14
701,609;62,25
701,845;62,35
702,081;62,44
702,316;62,53
702,552;62,64
702,788;62,74
703,023;62,81
703,259;62,87
703,494;62,93
703,73;63
703,965;63,08
704,201;63,19
704,436;63,26
704,672;63,34
704,907;63,41
705,143;63,49
705,378;63,57
705,613;63,66
705,849;63,74
706,084;63,82
706,319;63,92
706,555;63,97
706,79;64,03
707,025;64,13
707,26;64,2
707,496;64,26
707,731;64,32
707,966;64,4
708,201;64,49
708,436;64,56
708,671;64,63
708,907;64,7
709,142;64,75
709,377;64,85
709,612;64,93
709,847;64,99
710,082;65,07
710,317;65,17
710,552;65,23
710,787;65,31
711,022;65,38
711,257;65,46
711,492;65,53
711,726;65,62
711,961;65,67
712,196;65,76
712,431;65,85
712,666;65,92
712,901;65,98
713,135;66,02
713,37;66,09
713,605;66,18
713,839;66,26
714,074;66,34
714,309;66,41
714,543;66,49
714,778;66,58
715,013;66,65
715,247;66,7
715,482;66,8
715,716;66,87
715,951;66,95
716,185;67,03
716,42;67,13
716,654;67,19
716,889;67,26
717,123;67,33
717,358;67,4
717,592;67,48
717,827;67,56
718,061;67,66
718,295;67,73
718,53;67,81
718,764;67,9
718,998;67,97
719,232;68,04
719,467;68,09
719,701;68,15
719,935;68,23
720,169;68,3
720,403;68,35
720,638;68,44
720,872;68,48
721,106;68,55
721,34;68,61
721,574;68,68
721,808;68,75
722,042;68,81
722,276;68,88
722,51;68,94
722,744;69,01
722,978;69,1
723,212;69,16
723,446;69,17
723,68;69,21
723,914;69,28
724,147;69,32
724,381;69,4
724,615;69,47
724,849;69,52
725,083;69,6
725,316;69,67
725,55;69,71
725,784;69,78
726,018;69,88
726,251;69,95
726,485;70,04
726,719;70,09
726,952;70,15
727,186;70,23
727,419;70,29
727,653;70,37
727,887;70,38
728,12;70,45
728,354;70,52
728,587;70,61
728,821;70,68
729,054;70,72
729,287;70,75
729,521;70,8
729,754;70,86
729,988;70,91
730,221;70,93
730,454;71
730,688;71,03
730,921;71,03
731,154;71,07
731,387;71,1
731,621;71,17
731,854;71,2
732,087;71,23
732,32;71,27
732,553;71,31
732,787;71,38
733,02;71,43
733,253;71,52
733,486;71,55
733,719;71,59
733,952;71,66
734,185;71,74
734,418;71,8
734,651;71,86
734,884;71,9
735,117;71,97
735,35;72,01
735,583;72,07
735,816;72,12
736,049;72,19
736,281;72,23
736,514;72,3
736,747;72,37
736,98;72,43
737,213;72,49
737,445;72,54
737,678;72,58
737,911;72,63
738,144;72,63
738,376;72,69
738,609;72,73
738,842;72,78
739,074;72,8
739,307;72,84
739,539;72,86
739,772;72,92
740,004;72,99
740,237;73,03
740,469;73,09
740,702;73,16
740,934;73,19
741,167;73,22
741,399;73,25
741,632;73,34
741,864;73,37
742,096;73,43
742,329;73,48
742,561;73,56
742,793;73,6
743,026;73,68
743,258;73,73
743,49;73,8
743,723;73,85
743,955;73,94
744,187;73,98
744,419;74,05
744,651;74,09
744,883;74,13
745,115;74,2
745,348;74,2
745,58;74,26
745,812;74,3
746,044;74,37
746,276;74,42
746,508;74,45
746,74;74,51
746,972;74,55
747,204;74,58
747,436;74,6
747,667;74,64
747,899;74,65
748,131;74,71
748,363;74,76
748,595;74,79
748,827;74,82
749,058;74,88
749,29;74,93
749,522;74,95
749,754;74,95
749,985;74,99
750,217;75,04
750,449;75,09
750,68;75,12
750,912;75,16
751,144;75,2
751,375;75,23
751,607;75,25
751,838;75,31
752,07;75,33
752,301;75,39
752,533;75,44
752,764;75,47
752,996;75,5
753,227;75,51
753,459;75,56
753,69;75,61
753,921;75,63
754,153;75,66
754,384;75,71
754,615;75,76
754,847;75,8
755,078;75,86
755,309;75,85
755,54;75,87
755,772;75,86
756,003;75,89
756,234;75,91
756,465;75,94
756,696;75,96
756,927;76,02
757,159;76,03
757,39;76,06
757,621;76,12
757,852;76,12
758,083;76,17
758,314;76,2
758,545;76,22
758,776;76,27
759,007;76,3
759,238;76,34
759,469;76,39
759,699;76,46
759,93;76,47
760,161;76,53
760,392;76,59
760,623;76,66
760,854;76,71
761,084;76,76
761,315;76,83
761,546;76,88
761,776;76,9
762,007;76,97
762,238;76,99
762,468;77,03
762,699;77,08
762,93;77,13
763,16;77,17
763,391;77,2
763,621;77,24
763,852;77,27
764,083;77,31
764,313;77,32
764,543;77,34
764,774;77,44
765,004;77,46
765,235;77,51
765,465;77,55
765,696;77,61
765,926;77,65
766,156;77,67
766,387;77,73
766,617;77,79
766,847;77,83
767,077;77,89
767,308;77,93
767,538;78
767,768;78,02
767,998;78,1
768,228;78,15
768,459;78,21
768,689;78,26
768,919;78,32
769,149;78,39
769,379;78,42
769,609;78,42
769,839;78,46
770,069;78,52
770,299;78,56
770,529;78,58
770,759;78,63
770,989;78,67
771,219;78,68
771,449;78,7
771,678;78,72
771,908;78,75
772,138;78,8
772,368;78,84
772,598;78,88
772,827;78,91
773,057;78,96
773,287;79
773,517;79,02
773,746;79,05
773,976;79,09
774,206;79,12
774,435;79,19
774,665;79,25
774,894;79,3
775,124;79,37
775,354;79,42
775,583;79,47
775,813;79,54
776,042;79,61
776,272;79,66
776,501;79,72
776,73;79,79
776,96;79,79
777,189;79,81
777,419;79,85
777,648;79,88
777,877;79,89
778,107;79,92
778,336;80
778,565;80,04
778,794;80,04
779,024;80,09
779,253;80,1
779,482;80,09
779,711;80,1
779,94;80,09
780,17;80,07
780,399;80,11
780,628;80,1
780,857;80,13
781,086;80,11
781,315;80,11
781,544;80,11
781,773;80,14
782,002;80,17
782,231;80,22
782,46;80,22
782,689;80,26
782,918;80,29
783,147;80,29
783,375;80,33
783,604;80,38
783,833;80,43
784,062;80,48
784,291;80,54
784,519;80,56
784,748;80,61
784,977;80,7
785,206;80,72
785,434;80,76
785,663;80,8
785,892;80,87
786,12;80,93
786,349;80,97
786,577;81,03
786,806;81,09
787,034;81,1
787,263;81,14
787,492;81,17
787,72;81,18
787,948;81,19
788,177;81,23
788,405;81,26
788,634;81,28
788,862;81,3
789,09;81,32
789,319;81,36
789,547;81,37
789,775;81,37
790,004;81,38
790,232;81,4
790,46;81,4
790,688;81,44
790,917;81,48
791,145;81,53
791,373;81,54
791,601;81,54
791,829;81,56
792,057;81,58
792,286;81,65
792,514;81,68
792,742;81,69
792,97;81,66
793,198;81,68
793,426;81,68
793,654;81,72
793,882;81,72
794,109;81,76
794,337;81,83
794,565;81,88
794,793;81,93
795,021;81,97
795,249;82,02
795,477;82,05
795,704;82,08
795,932;82,1
796,16;82,15
796,388;82,19
796,615;82,22
796,843;82,27
797,071;82,26
797,298;82,3
797,526;82,37
797,754;82,43
797,981;82,48
798,209;82,51
798,436;82,51
798,664;82,59
798,891;82,63
799,119;82,66
799,346;82,67
799,574;82,7
799,801;82,72
800,029;82,72
800,256;82,75
800,483;82,76
800,711;82,76
800,938;82,76
801,165;82,8
801,393;82,83
801,62;82,83
801,847;82,87
802,074;82,86
802,302;82,9
802,529;82,99
802,756;83,03
802,983;83,1
803,21;83,11
803,437;83,12
803,665;83,17
803,892;83,15
804,119;83,19
804,346;83,22
804,573;83,24
804,8;83,29
805,027;83,28
805,254;83,33
805,481;83,37
805,708;83,4
805,934;83,42
806,161;83,47
806,388;83,5
806,615;83,53
806,842;83,58
807,069;83,57
807,295;83,6
807,522;83,58
807,749;83,58
807,976;83,63
808,202;83,64
808,429;83,65
808,656;83,68
808,882;83,68
809,109;83,72
809,335;83,75
809,562;83,74
809,789;83,8
810,015;83,83
810,242;83,87
810,468;83,87
810,695;83,9
810,921;83,92
811,147;83,96
811,374;84,02
811,6;84,06
811,827;84,06
812,053;84,06
812,279;84,09
812,506;84,09
812,732;84,14
812,958;84,15
813,185;84,17
813,411;84,17
813,637;84,19
813,863;84,18
814,089;84,2
814,315;84,28
814,542;84,31
814,768;84,31
814,994;84,33
815,22;84,34
815,446;84,36
815,672;84,36
815,898;84,37
816,124;84,32
816,35;84,33
816,576;84,39
816,802;84,4
817,028;84,47
817,254;84,53
817,48;84,5
817,705;84,54
817,931;84,57
818,157;84,63
818,383;84,64
818,609;84,67
818,834;84,67
819,06;84,65
819,286;84,61
819,512;84,65
819,737;84,68
819,963;84,69
820,189;84,68
820,414;84,69
820,64;84,71
820,865;84,72
821,091;84,73
821,316;84,74
821,542;84,75
821,767;84,7
821,993;84,7
822,218;84,71
822,444;84,73
822,669;84,75
822,895;84,75
823,12;84,79
823,345;84,78
823,571;84,83
823,796;84,89
824,021;84,97
824,247;84,98
824,472;84,97
824,697;85,04
824,922;85,08
825,147;85,08
825,373;85,12
825,598;85,16
825,823;85,15
826,048;85,15
826,273;85,19
826,498;85,24
826,723;85,21
826,948;85,21
827,173;85,18
827,398;85,16
827,623;85,19
827,848;85,17
828,073;85,18
828,298;85,19
828,523;85,17
828,748;85,12
828,973;85,11
829,197;85,16
829,422;85,17
829,647;85,19
829,872;85,26
830,097;85,3
830,321;85,36
830,546;85,43
830,771;85,48
830,995;85,5
831,22;85,55
831,445;85,6
831,669;85,61
831,894;85,67
832,118;85,69
832,343;85,69
832,567;85,74
832,792;85,75
833,016;85,78
833,241;85,8
833,465;85,82
833,69;85,88
833,914;85,84
834,139;85,86
834,363;85,85
834,587;85,86
834,812;85,87
835,036;85,82
835,26;85,81
835,485;85,78
835,709;85,78
835,933;85,8
836,157;85,83
836,381;85,9
836,606;85,93
836,83;85,96
837,054;85,95
837,278;86
837,502;86,02
837,726;86
837,95;85,96
838,174;85,97
838,398;85,95
838,622;85,95
838,846;85,95
839,07;85,95
839,294;85,96
839,518;85,94
839,742;85,97
839,966;85,98
840,189;86
840,413;86,04
840,637;86,03
840,861;86,06
841,085;86,04
841,308;86,07
841,532;86,06
841,756;86,11
841,979;86,06
842,203;86,16
842,427;86,2
842,65;86,27
842,874;86,37
843,098;86,4
843,321;86,45
843,545;86,5
843,768;86,56
843,992;86,59
844,215;86,63
844,439;86,65
844,662;86,67
844,886;86,7
845,109;86,72
845,332;86,71
845,556;86,69
845,779;86,73
846,002;86,69
846,226;86,67
846,449;86,64
846,672;86,68
846,895;86,63
847,119;86,63
847,342;86,62
847,565;86,6
847,788;86,58
848,011;86,64
848,234;86,6
848,457;86,61
848,681;86,61
848,904;86,62
849,127;86,63
849,35;86,69
849,573;86,71
849,796;86,72
850,019;86,74
850,241;86,73
850,464;86,75
850,687;86,8
850,91;86,84
851,133;86,88
851,356;86,93
851,579;86,99
851,801;86,97
852,024;86,98
852,247;87,01
852,47;87,09
852,692;87,06
852,915;87,11
853,138;87,05
853,36;87,04
853,583;87,02
853,806;87,03
854,028;86,96
854,251;86,93
854,473;86,91
854,696;86,92
854,918;86,94
855,141;86,89
855,363;86,9
855,586;86,93
855,808;86,92
856,031;86,9
856,253;86,83
856,475;86,86
856,698;86,84
856,92;86,76
857,142;86,69
857,365;86,73
857,587;86,67
857,809;86,73
858,031;86,7
858,253;86,75
858,476;86,71
858,698;86,75
858,92;86,79
859,142;86,8
859,364;86,76
859,586;86,8
859,808;86,87
860,03;86,86
860,252;86,89
860,474;86,98
860,696;86,97
860,918;86,99
861,14;87,04
861,362;87,08
861,584;87,11
861,806;87,14
862,028;87,09
862,25;87,18
862,471;87,22
862,693;87,28
862,915;87,28
863,137;87,35
863,358;87,37
863,58;87,32
863,802;87,34
864,024;87,37
864,245;87,32
864,467;87,29
864,688;87,35
864,91;87,33
865,132;87,26
865,353;87,3
865,575;87,34
865,796;87,29
866,018;87,25
866,239;87,29
866,461;87,28
866,682;87,28
866,903;87,27
867,125;87,25
867,346;87,22
867,567;87,22
867,789;87,23
868,01;87,21
868,231;87,26
868,453;87,28
868,674;87,4
868,895;87,39
869,116;87,37
869,337;87,35
869,559;87,34
869,78;87,33
870,001;87,29
870,222;87,27
870,443;87,26
870,664;87,33
870,885;87,33
871,106;87,37
871,327;87,44
871,548;87,4
871,769;87,45
871,99;87,52
872,211;87,52
872,432;87,43
872,653;87,41
872,874;87,48
873,094;87,53
873,315;87,52
873,536;87,53
873,757;87,56
873,978;87,56
874,198;87,52
874,419;87,51
874,64;87,55
874,86;87,6
875,081;87,66
875,302;87,65
875,522;87,63
875,743;87,63
875,963;87,64
876,184;87,63
876,404;87,59
876,625;87,52
876,845;87,51
877,066;87,61
877,286;87,67
877,507;87,66
877,727;87,59
877,947;87,5
878,168;87,58
878,388;87,63
878,609;87,57
878,829;87,58
879,049;87,63
879,269;87,65
879,49;87,59
879,71;87,58
879,93;87,47
880,15;87,49
880,37;87,5
880,59;87,45
880,811;87,53
881,031;87,52
881,251;87,55
881,471;87,49
881,691;87,53
881,911;87,5
882,131;87,49
882,351;87,41
882,571;87,41
882,791;87,38
883,011;87,28
883,23;87,38
883,45;87,43
883,67;87,43
883,89;87,38
884,11;87,45
884,33;87,45
884,549;87,54
884,769;87,61
884,989;87,65
885,209;87,62
885,428;87,62
885,648;87,6
885,868;87,6
886,087;87,68
886,307;87,62
886,526;87,64
886,746;87,58
886,965;87,65
887,185;87,69
887,404;87,67
887,624;87,72
887,843;87,68
888,063;87,68
888,282;87,74
888,502;87,77
888,721;87,67
888,94;87,77
889,16;87,76
889,379;87,71
889,598;87,62
889,818;87,58
890,037;87,51
890,256;87,56
890,475;87,53
890,694;87,55
890,914;87,54
891,133;87,55
891,352;87,6
891,571;87,6
891,79;87,62
892,009;87,68
892,228;87,65
892,447;87,67
892,666;87,65
892,885;87,6
893,104;87,59
893,323;87,64
893,542;87,53
893,761;87,51
893,98;87,46
894,199;87,5
894,417;87,57
894,636;87,59
894,855;87,61
895,074;87,62
895,293;87,59
895,511;87,66
895,73;87,68
895,949;87,58
896,167;87,62
896,386;87,58
896,605;87,58
896,823;87,7
897,042;87,74
897,26;87,66
897,479;87,68
897,697;87,68
897,916;87,72
898,134;87,71
898,353;87,72
898,571;87,83
898,79;87,81
899,008;87,81
899,227;87,81
899,445;87,77
899,663;87,79
899,882;87,78
900,1;87,79
900,318;87,79
900,536;87,97
900,755;87,98
900,973;87,98
901,191;88
901,409;88,02
901,627;87,95
901,846;88,04
902,064;88,02
902,282;88,06
902,5;88,04
902,718;88,09
902,936;88,15
903,154;88,22
903,372;88,3
903,59;88,4
903,808;88,45
904,026;88,57
904,244;88,62
904,462;88,66
904,679;88,62
904,897;88,62
905,115;88,59
905,333;88,6
905,551;88,67
905,768;88,64
905,986;88,6
906,204;88,65
906,422;88,73
906,639;88,8
906,857;88,84
907,074;88,93
907,292;88,91
907,51;88,91
907,727;88,84
907,945;88,8
908,162;88,85
908,38;88,92
908,597;88,8
908,815;88,8
909,032;88,87
909,25;88,94
909,467;88,97
909,684;88,97
909,902;88,97
910,119;88,98
910,337;88,97
910,554;89,01
910,771;88,92
910,988;88,96
911,206;88,95
911,423;88,95
911,64;88,93
911,857;89,04
912,074;89,02
912,291;89
912,509;89,04
912,726;88,88
912,943;88,8
913,16;88,81
913,377;88,89
913,594;88,78
913,811;88,81
914,028;88,81
914,245;88,86
914,462;88,83
914,679;88,89
914,896;88,93
915,112;88,9
915,329;88,99
915,546;88,94
915,763;88,94
915,98;88,92
916,196;88,93
916,413;88,84
916,63;88,84
916,847;88,88
917,063;88,89
917,28;88,87
917,497;88,96
917,713;89,07
917,93;89,03
918,146;89,02
918,363;89
918,579;89
918,796;88,95
919,012;88,95
919,229;88,84
919,445;88,77
919,662;88,74
919,878;88,78
920,095;88,8
920,311;88,74
920,527;88,8
920,744;88,85
920,96;89,04
921,176;89,1
921,392;89,03
921,609;88,99
921,825;89,07
922,041;89,07
922,257;89,12
922,473;89,12
922,69;89,2
922,906;89,18
923,122;89,11
923,338;89,09
923,554;89,15
923,77;89,15
923,986;89,2
924,202;89,26
924,418;89,24
924,634;89,37
924,85;89,4
925,066;89,46
925,282;89,26
925,497;89,3
925,713;89,3
925,929;89,39
926,145;89,45
926,361;89,51
926,576;89,54
926,792;89,42
927,008;89,36
927,224;89,33
927,439;89,36
927,655;89,38
927,871;89,41
928,086;89,41
928,302;89,51
928,517;89,54
928,733;89,56
928,948;89,6
929,164;89,49
929,379;89,57
929,595;89,55
929,81;89,62
930,026;89,48
930,241;89,51
930,456;89,5
930,672;89,46
930,887;89,47
931,102;89,41
931,318;89,4
931,533;89,44
931,748;89,5
931,964;89,45
932,179;89,45
932,394;89,45
932,609;89,39
932,824;89,22
933,039;89,22
933,255;89,14
933,47;89,09
933,685;89,05
933,9;89,05
934,115;89,03
934,33;89,05
934,545;89,01
934,76;88,92
934,975;88,77
935,19;88,82
935,404;88,78
935,619;88,75
935,834;88,8
936,049;88,84
936,264;88,79
936,479;88,75
936,693;88,74
936,908;88,8
937,123;89,04
937,338;89,11
937,552;88,98
937,767;88,99
937,982;89,15
938,196;89,33
938,411;89,3
938,625;89,28
938,84;89,21
939,055;89,28
939,269;89,46
939,484;89,76
939,698;89,74
939,912;89,68
940,127;89,81
940,341;89,9
940,556;89,97
940,77;89,78
940,984;89,94
941,199;89,92
941,413;90,04
941,627;89,89
941,842;89,77
942,056;90,05
942,27;90,18
942,484;89,86
942,699;89,77
942,913;89,69
943,127;89,65
943,341;90,04
943,555;90,13
943,769;89,94
943,983;89,97
944,197;89,79
944,411;89,81
944,625;89,82
944,839;89,97
945,053;89,95
945,267;90,45
945,481;90,49
945,695;90,67
945,909;90,44
946,123;90,44
946,336;90,81
946,55;90,64
946,764;91,15
946,978;91
947,192;90,93
947,405;90,86
947,619;91,09
947,833;91,09
948,046;91,07
948,26;90,91
948,474;90,87
948,687;91
948,901;90,99
949,114;90,92
949,328;90,73
949,541;90,68
949,755;90,63
949,968;90,5
950,182;90,64
950,395;90,61
950,609;90,63
950,822;90,78
951,035;90,94
951,249;90,71
951,462;90,74
951,675;90,87
951,889;90,97
952,102;90,57
952,315;90,39
952,528;90,51
952,741;90,56
952,955;90,43
953,168;90,52
953,381;90,78
953,594;90,84
953,807;90,75
954,02;90,73
954,233;90,73
954,446;91,09
954,659;91,04
954,872;91,4
955,085;91,61
955,298;91,39
955,511;91,47
955,724;91,05
955,937;91,14
956,15;91,07
956,362;91,03
956,575;91,27
956,788;91,39
957,001;91,25
957,214;91,42
957,426;91,67
957,639;91,66
957,852;91,58
958,064;91,47
958,277;91,67
958,49;91,75
958,702;91,57
958,915;91,31
959,127;91,54
959,34;91,06
959,552;90,94
959,765;91,09
959,977;91,24
960,19;91,24
960,402;91,17
960,615;91,11
960,827;91,17
961,039;91,06
961,252;90,77
961,464;90,43
961,676;90,33
961,889;90,42
962,101;90,38
962,313;90,16
962,525;90,17
962,738;90,1
962,95;90,18
963,162;90,44
963,374;90,33
963,586;90,04
963,798;90,17
964,01;90,11
964,222;90,23
964,434;89,73
964,646;90,06
964,858;90,12
965,07;90,24
965,282;90,42
965,494;90,19
965,706;90,64
965,918;91
966,13;91,02
966,342;90,81
966,553;90,95
966,765;90,99
966,977;91,08
967,189;90,89
967,401;90,8
967,612;90,65
967,824;90,73
968,036;91,08
968,247;91,1
968,459;91,05
968,67;90,85
968,882;90,94
969,094;90,94
969,305;90,99
969,517;90,99
969,728;90,83
969,94;91,09
970,151;91,02
970,362;91,11
970,574;91,28
970,785;91,18
970,997;91,13
971,208;91,44
971,419;91,43
971,631;91,7
971,842;91,75
972,053;91,94
972,264;92,18
972,476;91,86
972,687;92,05
972,898;91,77
973,109;92,15
973,32;92,45
973,531;92,56
973,742;92,51
973,954;92,23
974,165;92,28
974,376;92,33
974,587;92,14
974,798;91,99
975,009;92,04
975,22;92,21
975,43;92,4
975,641;92,38
975,852;92,59
976,063;92,58
976,274;92,68
976,485;92,35
976,695;92,21
976,906;92,5
977,117;92,11
977,328;92,66
977,538;92,42
977,749;92,52
977,96;92,5
978,17;92,91
978,381;93,08
978,592;93,11
978,802;92,94
979,013;93,02
979,223;92,99
979,434;93
979,644;92,93
979,855;92,81
980,065;92,76
980,276;92,61
980,486;92,67
980,696;92,8
980,907;93,05
981,117;93,09
981,327;93,11
981,538;93,44
981,748;93,43
981,958;93,47
982,169;93,68
982,379;93,94
982,589;93,51
982,799;93,62
983,009;93,59
983,219;94,15
983,43;94,15
983,64;94,22
983,85;94,17
984,06;94,29
984,27;94,53
984,48;94,58
984,69;94,77
984,9;94,73
985,11;94,45
985,32;94,68
985,529;94,71
985,739;94,48
985,949;94,37
986,159;94,07
986,369;94,02
986,579;93,6
986,788;93,31
986,998;93,52
987,208;93,29
987,417;93,49
987,627;93,07
987,837;93,31
988,046;93,5
988,256;93,58
988,466;93,41
988,675;93
988,885;93,01
989,094;92,88
989,304;92,9
989,513;93,18
989,723;93,04
989,932;93,18
990,142;93,21
990,351;93,22
990,56;93,22
990,77;92,84
990,979;92,98
991,188;92,66
991,398;92,65
991,607;92,95
991,816;92,75
992,025;92,74
992,235;92,62
992,444;92,39
992,653;92,19
992,862;92,5
993,071;92,81
993,28;92,74
993,489;92,91
993,698;93,04
993,908;92,96
994,117;93,06
994,326;92,66
994,534;92,63
994,743;92,79
994,952;93,15
995,161;93,49
995,37;93,74
995,579;94,14
995,788;94,4
995,997;94,29
996,205;94,03
996,414;94,08
996,623;93,79
996,832;94,09
997,04;94,09
997,249;93,64
997,458;93,45
997,666;93,54
997,875;93,38
998,084;93,11
998,292;92,97
998,501;92,7
998,709;92,61
998,918;92,65
999,126;92,64
999,335;92,35
999,543;92,35
999,752;91,64
999,96;91,76
1000,169;92,02
1000,377;92,07
1000,585;92,62
1000,794;92,74
1001,002;92,81
1001,21;92,59
1001,418;92,9
1001,627;92,82
1001,835;93,18
1002,043;93,28
1002,251;93,19
1002,459;93,72
1002,668;93,6
1002,876;93,37
1003,084;93,58
1003,292;93,45
1003,5;93,72
1003,708;93,85
1003,916;93,89
1004,124;94,43
1004,332;94,2
1004,54;93,84
1004,748;93,51
1004,956;93,13
1005,163;92,92
1005,371;93,28
1005,579;92,86
1005,787;92,67
1005,995;93,13
1006,202;92,68
1006,41;92,55
1006,618;92,17
1006,826;91,82
1007,033;92,13
1007,241;92,61
1007,449;92,6
1007,656;92,61
1007,864;92,22
1008,071;92,31
1008,279;92,25
1008,486;92,39
1008,694;91,82
1008,901;91,69
1009,109;91,97
1009,316;92,35
1009,524;92,97
1009,731;92,77
1009,938;93,35
1010,146;93,14
1010,353;93,2
1010,56;93,3
1010,768;93,61
1010,975;94,54
1011,182;94,7
1011,389;94,54
1011,597;93,94
1011,804;94,39
1012,011;95
1012,218;94,94
1012,425;94,73
1012,632;95,5
1012,839;95,06
1013,046;95,25
1013,253;95,44
1013,46;95,41
1013,667;95,51
1013,874;94,72
1014,081;95,56
1014,288;95,01
1014,495;95,34
1014,702;95,52
1014,909;95,61
1015,116;94,94
1015,323;94,6
1015,529;94,64
1015,736;94,28
1015,943;94,81
1016,15;94,39
1016,356;94,18
1016,563;94,55
1016,77;94,58
1016,976;94,31
1017,183;95,07
1017,389;94,53
1017,596;93,79
1017,803;93,64
1018,009;92,68
1018,216;93,1
1018,422;92,68
1018,629;93,22
1018,835;91,96
1019,041;91,76
1019,248;92,12
1019,454;92,95
1019,661;93,47
1019,867;93,36
1020,073;93,32
1020,279;93,54
1020,486;93,96
1020,692;93,86
1020,898;93,44
1021,104;93,47
1021,311;92,29
1021,517;91,48
1021,723;93,25
1021,929;94,18
1022,135;94,72
1022,341;95,14
1022,547;95,16
1022,753;95,35
1022,959;95,61
1023,165;96,97
1023,371;96,45
1023,577;95,34
1023,783;94,78
1023,989;94,46
1024,195;94,03
1024,401;95,25
1024,607;95,62
1024,812;95,97
1025,018;94,66
1025,224;95,41
1025,43;95,11
1025,635;96,96
1025,841;97,96
1026,047;97,59
1026,252;96,43
1026,458;96,63
1026,664;96,66
1026,869;96,58
1027,075;96,18
1027,28;97,03
1027,486;96,29
1027,691;97,58
1027,897;98,56
1028,102;99,04
1028,308;98,56
1028,513;99,17
1028,719;99,17
1028,924;98,11
1029,129;97,66
1029,335;98,9
1029,54;99,41
1029,745;100,07
1029,95;98,96
1030,156;97,88
1030,361;97,31
1030,566;99,06
1030,771;98,25
1030,976;99,02
1031,182;98,71
1031,387;99,33
1031,592;99,19
1031,797;100,62
1032,002;99,68
1032,207;99,15
1032,412;98,03
1032,617;98,43
1032,822;97,92
1033,027;97,83
1033,232;98,12
1033,437;97,34
1033,642;98,07
1033,846;96,91
1034,051;97,28
1034,256;97,32
1034,461;97,55
1034,666;97,48
1034,87;96,86
1035,075;97,93
1035,28;96,87
1035,484;96,94
1035,689;96,94
1035,894;96,97
1036,098;96,46
1036,303;97,29
1036,507;98,69
1036,712;99,71
1036,917;99,81
1037,121;100,42
1037,325;99,01
1037,53;100,29
1037,734;101,88
1037,939;102,5
1038,143;102,63
1038,348;102,9
1038,552;102,71
1038,756;102,85
1038,961;103,21
1039,165;103,02
1039,369;102,77
1039,573;102,69
1039,778;102,84
1039,982;101,46
1040,186;101,79
1040,39;101,42
1040,594;99,63
1040,798;98,57
1041,002;96,39
1041,206;95,93
1041,41;96,54
1041,614;97,43
1041,818;96,1
1042,022;96,29
1042,226;95,4
1042,43;95,57
1042,634;94,54
1042,838;94,93
1043,042;95,45
1043,246;95,04
1043,45;93,95
1043,653;91,79
1043,857;92,46
1044,061;93,17
1044,265;93,96
1044,468;93,62
1044,672;94,35
1044,876;94,46
1045,079;95,41
1045,283;98,12
1045,487;96,31
1045,69;96,75
1045,894;96,3
1046,097;96,98
1046,301;95,24
1046,504;95,34
1046,708;94,98
1046,911;96,59
1047,115;96,31
1047,318;97,31
1047,522;98,56
1047,725;98,97
1047,928;100,45
1048,132;100,98
1048,335;101,74
1048,538;102,1
1048,741;100,17
1048,945;100,07
1049,148;102,44
1049,351;101,4
1049,554;101,33
1049,757;101,58
1049,96;101,28
1050,163;102,36
1050,367;99,8
1050,57;99,81
1050,773;99,03
1050,976;98,67
1051,179;97,75
1051,382;99,65
1051,585;100,34
1051,787;98,83
1051,99;100,29
1052,193;102,07
1052,396;103,33
1052,599;101,38
1052,802;100,64
1053,005;100,26
1053,207;101,05
1053,41;98,22
1053,613;97,66
1053,815;96,49
1054,018;98,11
1054,221;97,79
1054,423;97,21
1054,626;99,79
1054,829;101,02
1055,031;101,3
1055,234;102,59
1055,436;102,12
1055,639;99,29
1055,841;95,72
1056,044;96,85
1056,246;96,21
