Data from CoccinigliaWhite_Reflection__0__46.txt Node;
"Date: Fri Sep 12 11:36:39 CEST 2025 User: sycur Spectrometer: SR400348 Trigger mode: 0 Integration Time (sec): 2,000000E-2 Scans to average: 20 Electric dark correction enabled: true Nonlinearity correction enabled: false Boxcar width: 10 XAxis mode: Wavelengths Number of Pixels in Spectrum: 3648 >>>>>Begin Spectral Data<<<<<";
186,01;382,99
186,281;60,29
186,552;91,06
186,822;90,18
187,093;18,18
187,364;-23,25
187,635;8253,19
187,905;96,67
188,176;53,97
188,447;46,52
188,717;36,17
188,988;37,84
189,258;37,21
189,529;38,79
189,8;35,91
190,07;33,65
190,341;30,15
190,611;27,78
190,882;26
191,152;26,18
191,423;26
191,693;25,31
191,964;24,59
192,234;25,66
192,505;24,75
192,775;24,54
193,045;24,07
193,316;23,02
193,586;22,14
193,856;21,3
194,127;21,12
194,397;21,5
194,667;21,43
194,938;21,35
195,208;20,48
195,478;20,58
195,748;19,67
196,019;19,58
196,289;19,43
196,559;19,52
196,829;19,18
197,099;19,02
197,37;18,93
197,64;18,97
197,91;18,81
198,18;18,52
198,45;17,99
198,72;17,97
198,99;17,75
199,26;17,49
199,53;17,44
199,8;17,49
200,07;17,03
200,34;16,68
200,61;16,51
200,88;16,4
201,15;16,02
201,42;16,06
201,69;16,05
201,96;16,02
202,23;15,53
202,499;15,1
202,769;15,16
203,039;15,06
203,309;14,83
203,579;14,53
203,849;14,54
204,118;14,35
204,388;14,08
204,658;13,99
204,927;13,92
205,197;13,7
205,467;13,29
205,736;13,12
206,006;12,87
206,276;12,67
206,545;12,43
206,815;12,34
207,085;12,27
207,354;11,98
207,624;11,84
207,893;11,79
208,163;11,75
208,432;11,59
208,702;11,49
208,971;11,43
209,241;11,31
209,51;11,2
209,78;11,21
210,049;11,08
210,318;10,91
210,588;10,84
210,857;10,8
211,127;10,76
211,396;10,7
211,665;10,61
211,935;10,63
212,204;10,54
212,473;10,43
212,742;10,37
213,012;10,37
213,281;10,32
213,55;10,2
213,819;10,12
214,088;9,93
214,358;9,88
214,627;9,81
214,896;9,69
215,165;9,57
215,434;9,43
215,703;9,29
215,972;9,3
216,241;9,19
216,51;9,1
216,779;8,95
217,048;8,89
217,317;8,87
217,586;8,81
217,855;8,82
218,124;8,71
218,393;8,62
218,662;8,5
218,931;8,42
219,2;8,36
219,469;8,28
219,738;8,25
220,006;8,18
220,275;8,16
220,544;8,17
220,813;8,13
221,082;8,12
221,35;8,13
221,619;8,06
221,888;8,03
222,157;8
222,425;8,03
222,694;8,01
222,963;7,99
223,231;7,93
223,5;7,92
223,769;7,93
224,037;7,93
224,306;7,93
224,574;7,91
224,843;7,91
225,111;7,93
225,38;7,91
225,648;7,88
225,917;7,82
226,185;7,8
226,454;7,78
226,722;7,74
226,991;7,73
227,259;7,72
227,528;7,7
227,796;7,71
228,064;7,68
228,333;7,65
228,601;7,64
228,869;7,61
229,138;7,58
229,406;7,59
229,674;7,6
229,942;7,59
230,211;7,57
230,479;7,57
230,747;7,54
231,015;7,55
231,283;7,56
231,552;7,57
231,82;7,56
232,088;7,57
232,356;7,58
232,624;7,57
232,892;7,57
233,16;7,56
233,428;7,56
233,696;7,56
233,964;7,56
234,232;7,57
234,5;7,58
234,768;7,58
235,036;7,56
235,304;7,55
235,572;7,53
235,84;7,55
236,108;7,54
236,376;7,54
236,644;7,53
236,912;7,52
237,179;7,53
237,447;7,52
237,715;7,52
237,983;7,51
238,251;7,5
238,518;7,49
238,786;7,49
239,054;7,46
239,322;7,46
239,589;7,46
239,857;7,46
240,125;7,47
240,392;7,47
240,66;7,47
240,927;7,45
241,195;7,45
241,463;7,44
241,73;7,45
241,998;7,44
242,265;7,43
242,533;7,43
242,8;7,42
243,068;7,43
243,335;7,42
243,603;7,42
243,87;7,43
244,138;7,42
244,405;7,42
244,672;7,42
244,94;7,42
245,207;7,39
245,474;7,4
245,742;7,39
246,009;7,39
246,276;7,38
246,544;7,38
246,811;7,38
247,078;7,37
247,345;7,37
247,613;7,35
247,88;7,34
248,147;7,34
248,414;7,32
248,681;7,31
248,948;7,3
249,215;7,3
249,483;7,28
249,75;7,27
250,017;7,27
250,284;7,28
250,551;7,27
250,818;7,27
251,085;7,25
251,352;7,24
251,619;7,23
251,886;7,22
252,153;7,21
252,42;7,21
252,687;7,21
252,953;7,2
253,22;7,19
253,487;7,2
253,754;7,18
254,021;7,17
254,288;7,16
254,555;7,16
254,821;7,15
255,088;7,16
255,355;7,15
255,622;7,14
255,888;7,12
256,155;7,12
256,422;7,11
256,688;7,11
256,955;7,09
257,222;7,09
257,488;7,09
257,755;7,08
258,022;7,08
258,288;7,06
258,555;7,05
258,821;7,05
259,088;7,05
259,354;7,04
259,621;7,03
259,887;7,03
260,154;7,01
260,42;7
260,687;7
260,953;6,99
261,219;6,98
261,486;6,97
261,752;6,95
262,019;6,94
262,285;6,93
262,551;6,92
262,818;6,91
263,084;6,89
263,35;6,88
263,616;6,86
263,883;6,86
264,149;6,85
264,415;6,83
264,681;6,84
264,947;6,83
265,214;6,83
265,48;6,83
265,746;6,82
266,012;6,81
266,278;6,8
266,544;6,8
266,81;6,8
267,076;6,8
267,342;6,79
267,608;6,79
267,874;6,8
268,14;6,8
268,406;6,79
268,672;6,8
268,938;6,8
269,204;6,8
269,47;6,79
269,736;6,8
270,002;6,79
270,268;6,77
270,533;6,77
270,799;6,77
271,065;6,76
271,331;6,76
271,597;6,74
271,862;6,74
272,128;6,73
272,394;6,73
272,66;6,72
272,925;6,73
273,191;6,73
273,457;6,73
273,722;6,73
273,988;6,72
274,254;6,71
274,519;6,69
274,785;6,68
275,05;6,68
275,316;6,66
275,582;6,66
275,847;6,66
276,113;6,65
276,378;6,64
276,644;6,64
276,909;6,63
277,174;6,64
277,44;6,64
277,705;6,64
277,971;6,64
278,236;6,63
278,501;6,61
278,767;6,6
279,032;6,58
279,297;6,57
279,563;6,58
279,828;6,57
280,093;6,57
280,358;6,57
280,624;6,58
280,889;6,57
281,154;6,57
281,419;6,56
281,684;6,56
281,95;6,56
282,215;6,55
282,48;6,55
282,745;6,56
283,01;6,54
283,275;6,53
283,54;6,52
283,805;6,51
284,07;6,52
284,335;6,52
284,6;6,51
284,865;6,5
285,13;6,49
285,395;6,48
285,66;6,48
285,925;6,47
286,19;6,47
286,455;6,47
286,72;6,47
286,985;6,46
287,249;6,46
287,514;6,45
287,779;6,46
288,044;6,45
288,309;6,44
288,573;6,44
288,838;6,44
289,103;6,43
289,367;6,43
289,632;6,42
289,897;6,42
290,161;6,41
290,426;6,41
290,691;6,42
290,955;6,42
291,22;6,42
291,484;6,41
291,749;6,41
292,014;6,39
292,278;6,39
292,543;6,39
292,807;6,38
293,072;6,39
293,336;6,38
293,6;6,37
293,865;6,37
294,129;6,37
294,394;6,37
294,658;6,37
294,922;6,37
295,187;6,36
295,451;6,36
295,715;6,37
295,98;6,36
296,244;6,36
296,508;6,35
296,773;6,34
297,037;6,33
297,301;6,33
297,565;6,33
297,829;6,32
298,094;6,31
298,358;6,3
298,622;6,29
298,886;6,29
299,15;6,29
299,414;6,28
299,678;6,28
299,942;6,26
300,206;6,25
300,47;6,25
300,734;6,24
300,998;6,24
301,262;6,23
301,526;6,22
301,79;6,21
302,054;6,2
302,318;6,2
302,582;6,19
302,846;6,18
303,11;6,17
303,374;6,17
303,637;6,15
303,901;6,16
304,165;6,14
304,429;6,13
304,693;6,13
304,956;6,13
305,22;6,1
305,484;6,1
305,747;6,09
306,011;6,08
306,275;6,07
306,538;6,07
306,802;6,06
307,066;6,04
307,329;6,03
307,593;6,03
307,856;6,03
308,12;6,03
308,384;6,03
308,647;6,01
308,911;5,99
309,174;6
309,438;5,98
309,701;5,98
309,964;5,96
310,228;5,95
310,491;5,92
310,755;5,93
311,018;5,94
311,281;5,94
311,545;5,93
311,808;5,93
312,071;5,91
312,335;5,9
312,598;5,89
312,861;5,88
313,124;5,87
313,388;5,87
313,651;5,87
313,914;5,86
314,177;5,85
314,44;5,85
314,704;5,84
314,967;5,84
315,23;5,83
315,493;5,83
315,756;5,83
316,019;5,84
316,282;5,82
316,545;5,8
316,808;5,79
317,071;5,79
317,334;5,78
317,597;5,79
317,86;5,77
318,123;5,76
318,386;5,75
318,649;5,74
318,912;5,72
319,175;5,7
319,437;5,7
319,7;5,71
319,963;5,7
320,226;5,68
320,489;5,67
320,751;5,66
321,014;5,64
321,277;5,63
321,54;5,63
321,802;5,63
322,065;5,62
322,328;5,62
322,59;5,6
322,853;5,6
323,116;5,6
323,378;5,6
323,641;5,6
323,903;5,61
324,166;5,61
324,428;5,61
324,691;5,6
324,953;5,57
325,216;5,56
325,478;5,56
325,741;5,55
326,003;5,55
326,266;5,54
326,528;5,54
326,791;5,53
327,053;5,52
327,315;5,5
327,578;5,48
327,84;5,48
328,102;5,48
328,365;5,47
328,627;5,46
328,889;5,45
329,151;5,44
329,414;5,42
329,676;5,4
329,938;5,39
330,2;5,39
330,462;5,39
330,725;5,39
330,987;5,38
331,249;5,37
331,511;5,37
331,773;5,37
332,035;5,36
332,297;5,35
332,559;5,34
332,821;5,33
333,083;5,33
333,345;5,32
333,607;5,31
333,869;5,3
334,131;5,27
334,393;5,28
334,655;5,26
334,917;5,27
335,179;5,27
335,44;5,27
335,702;5,26
335,964;5,26
336,226;5,23
336,488;5,23
336,749;5,23
337,011;5,22
337,273;5,21
337,535;5,21
337,796;5,19
338,058;5,19
338,32;5,2
338,581;5,2
338,843;5,19
339,105;5,2
339,366;5,2
339,628;5,22
339,889;5,21
340,151;5,21
340,412;5,21
340,674;5,22
340,935;5,21
341,197;5,22
341,458;5,2
341,72;5,22
341,981;5,21
342,243;5,2
342,504;5,2
342,766;5,2
343,027;5,2
343,288;5,2
343,55;5,2
343,811;5,18
344,072;5,19
344,334;5,18
344,595;5,17
344,856;5,16
345,117;5,14
345,379;5,14
345,64;5,13
345,901;5,13
346,162;5,1
346,423;5,09
346,684;5,06
346,946;5,05
347,207;5,04
347,468;5,04
347,729;5,02
347,99;5,01
348,251;5
348,512;5
348,773;5
349,034;4,99
349,295;4,98
349,556;4,95
349,817;4,96
350,078;4,96
350,339;4,97
350,6;4,96
350,86;4,96
351,121;4,96
351,382;4,94
351,643;4,94
351,904;4,94
352,165;4,98
352,425;4,98
352,686;4,97
352,947;4,98
353,208;4,99
353,468;5
353,729;5
353,99;4,99
354,25;5
354,511;4,99
354,772;5,01
355,032;5,02
355,293;5,01
355,553;5
355,814;4,99
356,074;4,98
356,335;4,96
356,596;4,96
356,856;4,97
357,116;4,98
357,377;4,98
357,637;4,96
357,898;4,97
358,158;4,96
358,419;4,95
358,679;4,95
358,939;4,96
359,2;4,96
359,46;4,97
359,72;4,95
359,981;4,96
360,241;4,93
360,501;4,92
360,761;4,92
361,022;4,92
361,282;4,92
361,542;4,92
361,802;4,92
362,062;4,9
362,323;4,91
362,583;4,92
362,843;4,91
363,103;4,91
363,363;4,9
363,623;4,89
363,883;4,88
364,143;4,88
364,403;4,86
364,663;4,86
364,923;4,85
365,183;4,85
365,443;4,84
365,703;4,86
365,963;4,86
366,223;4,85
366,483;4,84
366,743;4,84
367,002;4,84
367,262;4,86
367,522;4,87
367,782;4,85
368,042;4,82
368,301;4,83
368,561;4,84
368,821;4,85
369,081;4,85
369,34;4,83
369,6;4,83
369,86;4,84
370,119;4,82
370,379;4,82
370,638;4,83
370,898;4,81
371,158;4,8
371,417;4,8
371,677;4,81
371,936;4,81
372,196;4,82
372,455;4,82
372,715;4,82
372,974;4,82
373,234;4,83
373,493;4,86
373,753;4,86
374,012;4,86
374,271;4,84
374,531;4,85
374,79;4,87
375,049;4,86
375,309;4,84
375,568;4,84
375,827;4,85
376,086;4,84
376,346;4,86
376,605;4,89
376,864;4,9
377,123;4,9
377,383;4,91
377,642;4,89
377,901;4,88
378,16;4,86
378,419;4,86
378,678;4,86
378,937;4,83
379,196;4,81
379,455;4,79
379,714;4,78
379,973;4,77
380,232;4,77
380,491;4,78
380,75;4,79
381,009;4,81
381,268;4,8
381,527;4,8
381,786;4,79
382,045;4,77
382,304;4,77
382,563;4,76
382,821;4,76
383,08;4,77
383,339;4,78
383,598;4,78
383,857;4,78
384,115;4,78
384,374;4,78
384,633;4,8
384,891;4,8
385,15;4,81
385,409;4,82
385,667;4,82
385,926;4,81
386,185;4,82
386,443;4,8
386,702;4,81
386,96;4,81
387,219;4,81
387,477;4,83
387,736;4,82
387,994;4,83
388,253;4,83
388,511;4,82
388,77;4,82
389,028;4,83
389,287;4,84
389,545;4,82
389,803;4,83
390,062;4,83
390,32;4,84
390,578;4,83
390,837;4,84
391,095;4,84
391,353;4,84
391,612;4,84
391,87;4,84
392,128;4,84
392,386;4,83
392,644;4,83
392,903;4,82
393,161;4,8
393,419;4,79
393,677;4,79
393,935;4,78
394,193;4,79
394,451;4,79
394,709;4,78
394,967;4,8
395,225;4,79
395,483;4,79
395,741;4,79
395,999;4,8
396,257;4,79
396,515;4,8
396,773;4,8
397,031;4,79
397,289;4,81
397,547;4,8
397,805;4,8
398,062;4,8
398,32;4,81
398,578;4,81
398,836;4,82
399,094;4,82
399,351;4,82
399,609;4,8
399,867;4,79
400,124;4,79
400,382;4,79
400,64;4,81
400,897;4,81
401,155;4,79
401,413;4,81
401,67;4,79
401,928;4,8
402,185;4,8
402,443;4,8
402,701;4,8
402,958;4,8
403,216;4,81
403,473;4,81
403,73;4,8
403,988;4,81
404,245;4,82
404,503;4,83
404,76;4,83
405,018;4,84
405,275;4,86
405,532;4,86
405,79;4,86
406,047;4,85
406,304;4,84
406,561;4,85
406,819;4,84
407,076;4,85
407,333;4,83
407,59;4,82
407,848;4,83
408,105;4,82
408,362;4,83
408,619;4,83
408,876;4,82
409,133;4,81
409,39;4,83
409,647;4,81
409,904;4,79
410,161;4,8
410,418;4,82
410,675;4,82
410,932;4,81
411,189;4,79
411,446;4,8
411,703;4,8
411,96;4,8
412,217;4,81
412,474;4,82
412,731;4,83
412,988;4,83
413,245;4,83
413,501;4,82
413,758;4,82
414,015;4,81
414,272;4,82
414,529;4,82
414,785;4,83
415,042;4,84
415,299;4,83
415,555;4,83
415,812;4,81
416,069;4,79
416,325;4,8
416,582;4,83
416,838;4,82
417,095;4,8
417,352;4,79
417,608;4,78
417,865;4,77
418,121;4,78
418,378;4,75
418,634;4,76
418,891;4,77
419,147;4,78
419,403;4,77
419,66;4,77
419,916;4,78
420,173;4,77
420,429;4,76
420,685;4,78
420,942;4,78
421,198;4,78
421,454;4,78
421,711;4,79
421,967;4,77
422,223;4,75
422,479;4,76
422,735;4,77
422,992;4,76
423,248;4,76
423,504;4,75
423,76;4,77
424,016;4,75
424,272;4,75
424,528;4,76
424,784;4,75
425,041;4,74
425,297;4,72
425,553;4,72
425,809;4,72
426,065;4,7
426,32;4,71
426,576;4,71
426,832;4,72
427,088;4,69
427,344;4,7
427,6;4,73
427,856;4,73
428,112;4,75
428,368;4,76
428,623;4,74
428,879;4,75
429,135;4,74
429,391;4,74
429,646;4,74
429,902;4,72
430,158;4,73
430,414;4,73
430,669;4,74
430,925;4,74
431,181;4,73
431,436;4,74
431,692;4,74
431,947;4,73
432,203;4,74
432,458;4,75
432,714;4,73
432,97;4,73
433,225;4,72
433,481;4,71
433,736;4,7
433,991;4,71
434,247;4,7
434,502;4,69
434,758;4,69
435,013;4,7
435,268;4,7
435,524;4,7
435,779;4,71
436,034;4,69
436,29;4,7
436,545;4,69
436,8;4,68
437,056;4,67
437,311;4,68
437,566;4,67
437,821;4,68
438,076;4,68
438,331;4,68
438,587;4,67
438,842;4,67
439,097;4,66
439,352;4,68
439,607;4,69
439,862;4,71
440,117;4,71
440,372;4,69
440,627;4,7
440,882;4,71
441,137;4,7
441,392;4,7
441,647;4,7
441,902;4,72
442,157;4,71
442,412;4,72
442,667;4,71
442,921;4,72
443,176;4,73
443,431;4,74
443,686;4,73
443,941;4,74
444,195;4,73
444,45;4,73
444,705;4,74
444,96;4,74
445,214;4,74
445,469;4,75
445,724;4,74
445,978;4,74
446,233;4,73
446,487;4,73
446,742;4,73
446,997;4,72
447,251;4,73
447,506;4,75
447,76;4,76
448,015;4,75
448,269;4,74
448,524;4,73
448,778;4,72
449,033;4,74
449,287;4,74
449,541;4,75
449,796;4,74
450,05;4,73
450,305;4,72
450,559;4,71
450,813;4,7
451,067;4,69
451,322;4,69
451,576;4,7
451,83;4,7
452,084;4,71
452,339;4,71
452,593;4,69
452,847;4,67
453,101;4,68
453,355;4,67
453,609;4,67
453,864;4,67
454,118;4,66
454,372;4,63
454,626;4,64
454,88;4,63
455,134;4,64
455,388;4,65
455,642;4,65
455,896;4,64
456,15;4,65
456,404;4,67
456,658;4,67
456,912;4,67
457,165;4,67
457,419;4,66
457,673;4,68
457,927;4,69
458,181;4,69
458,435;4,69
458,688;4,72
458,942;4,71
459,196;4,71
459,45;4,72
459,703;4,73
459,957;4,72
460,211;4,72
460,464;4,74
460,718;4,71
460,972;4,73
461,225;4,73
461,479;4,73
461,732;4,73
461,986;4,73
462,239;4,73
462,493;4,74
462,746;4,75
463;4,73
463,253;4,74
463,507;4,75
463,76;4,73
464,014;4,72
464,267;4,73
464,52;4,74
464,774;4,73
465,027;4,73
465,28;4,75
465,534;4,76
465,787;4,76
466,04;4,77
466,294;4,78
466,547;4,79
466,8;4,81
467,053;4,8
467,306;4,81
467,56;4,79
467,813;4,79
468,066;4,79
468,319;4,82
468,572;4,82
468,825;4,82
469,078;4,83
469,331;4,82
469,584;4,82
469,837;4,82
470,09;4,83
470,343;4,83
470,596;4,82
470,849;4,82
471,102;4,83
471,355;4,83
471,608;4,84
471,861;4,83
472,114;4,81
472,367;4,81
472,619;4,82
472,872;4,84
473,125;4,84
473,378;4,84
473,631;4,84
473,883;4,86
474,136;4,86
474,389;4,86
474,641;4,86
474,894;4,88
475,147;4,88
475,399;4,89
475,652;4,92
475,905;4,92
476,157;4,91
476,41;4,9
476,662;4,9
476,915;4,89
477,167;4,91
477,42;4,93
477,672;4,95
477,925;4,95
478,177;4,95
478,43;4,96
478,682;4,97
478,934;4,97
479,187;4,97
479,439;4,98
479,691;4,98
479,944;5,01
480,196;5
480,448;5,02
480,701;5,03
480,953;5,03
481,205;5,04
481,457;5,05
481,709;5,08
481,962;5,11
482,214;5,13
482,466;5,17
482,718;5,19
482,97;5,25
483,222;5,31
483,474;5,36
483,726;5,4
483,978;5,44
484,23;5,46
484,482;5,48
484,734;5,49
484,986;5,5
485,238;5,5
485,49;5,51
485,742;5,52
485,994;5,53
486,246;5,53
486,498;5,54
486,75;5,55
487,001;5,54
487,253;5,53
487,505;5,53
487,757;5,51
488,009;5,51
488,26;5,49
488,512;5,46
488,764;5,42
489,015;5,38
489,267;5,35
489,519;5,33
489,77;5,31
490,022;5,29
490,274;5,29
490,525;5,29
490,777;5,28
491,028;5,28
491,28;5,28
491,531;5,28
491,783;5,27
492,034;5,28
492,286;5,29
492,537;5,29
492,789;5,29
493,04;5,3
493,291;5,29
493,543;5,28
493,794;5,27
494,045;5,28
494,297;5,28
494,548;5,29
494,799;5,29
495,051;5,3
495,302;5,29
495,553;5,3
495,804;5,3
496,056;5,31
496,307;5,3
496,558;5,3
496,809;5,31
497,06;5,33
497,311;5,33
497,562;5,34
497,813;5,34
498,064;5,34
498,316;5,34
498,567;5,34
498,818;5,34
499,069;5,35
499,319;5,35
499,57;5,35
499,821;5,34
500,072;5,36
500,323;5,36
500,574;5,38
500,825;5,38
501,076;5,38
501,327;5,37
501,577;5,39
501,828;5,39
502,079;5,39
502,33;5,38
502,58;5,39
502,831;5,4
503,082;5,4
503,333;5,4
503,583;5,4
503,834;5,4
504,084;5,4
504,335;5,41
504,586;5,42
504,836;5,42
505,087;5,43
505,337;5,41
505,588;5,42
505,838;5,41
506,089;5,41
506,339;5,4
506,59;5,42
506,84;5,41
507,091;5,41
507,341;5,41
507,591;5,42
507,842;5,41
508,092;5,41
508,343;5,41
508,593;5,41
508,843;5,42
509,093;5,43
509,344;5,43
509,594;5,43
509,844;5,42
510,094;5,43
510,345;5,44
510,595;5,45
510,845;5,45
511,095;5,45
511,345;5,45
511,595;5,46
511,845;5,46
512,095;5,47
512,345;5,46
512,595;5,47
512,845;5,46
513,095;5,47
513,345;5,47
513,595;5,47
513,845;5,46
514,095;5,46
514,345;5,46
514,595;5,47
514,845;5,47
515,095;5,48
515,345;5,48
515,594;5,49
515,844;5,49
516,094;5,5
516,344;5,5
516,593;5,5
516,843;5,5
517,093;5,5
517,343;5,51
517,592;5,52
517,842;5,53
518,092;5,54
518,341;5,54
518,591;5,55
518,84;5,56
519,09;5,57
519,34;5,58
519,589;5,58
519,839;5,58
520,088;5,59
520,338;5,59
520,587;5,6
520,836;5,59
521,086;5,6
521,335;5,59
521,585;5,59
521,834;5,6
522,083;5,61
522,333;5,62
522,582;5,63
522,831;5,64
523,081;5,62
523,33;5,63
523,579;5,63
523,828;5,64
524,078;5,64
524,327;5,63
524,576;5,64
524,825;5,64
525,074;5,64
525,323;5,64
525,573;5,64
525,822;5,64
526,071;5,65
526,32;5,65
526,569;5,66
526,818;5,67
527,067;5,67
527,316;5,66
527,565;5,67
527,814;5,66
528,063;5,66
528,312;5,68
528,56;5,69
528,809;5,68
529,058;5,69
529,307;5,69
529,556;5,7
529,805;5,71
530,053;5,72
530,302;5,72
530,551;5,74
530,8;5,74
531,048;5,76
531,297;5,76
531,546;5,76
531,794;5,77
532,043;5,77
532,292;5,78
532,54;5,8
532,789;5,8
533,037;5,82
533,286;5,82
533,535;5,84
533,783;5,83
534,032;5,84
534,28;5,84
534,528;5,85
534,777;5,85
535,025;5,85
535,274;5,85
535,522;5,85
535,771;5,84
536,019;5,85
536,267;5,84
536,516;5,85
536,764;5,86
537,012;5,86
537,26;5,87
537,509;5,87
537,757;5,86
538,005;5,87
538,253;5,88
538,501;5,88
538,75;5,88
538,998;5,89
539,246;5,89
539,494;5,89
539,742;5,9
539,99;5,91
540,238;5,9
540,486;5,9
540,734;5,91
540,982;5,91
541,23;5,91
541,478;5,93
541,726;5,92
541,974;5,93
542,222;5,93
542,47;5,92
542,718;5,93
542,966;5,93
543,213;5,93
543,461;5,92
543,709;5,92
543,957;5,92
544,205;5,93
544,452;5,93
544,7;5,93
544,948;5,93
545,196;5,92
545,443;5,93
545,691;5,93
545,939;5,94
546,186;5,93
546,434;5,95
546,681;5,94
546,929;5,94
547,176;5,95
547,424;5,96
547,671;5,96
547,919;5,97
548,166;5,97
548,414;5,98
548,661;5,99
548,909;6
549,156;6
549,404;6
549,651;6,01
549,898;6,02
550,146;6,02
550,393;6,04
550,64;6,04
550,888;6,06
551,135;6,07
551,382;6,08
551,629;6,08
551,876;6,11
552,124;6,11
552,371;6,1
552,618;6,11
552,865;6,12
553,112;6,11
553,359;6,13
553,606;6,13
553,854;6,12
554,101;6,13
554,348;6,13
554,595;6,12
554,842;6,12
555,089;6,12
555,336;6,12
555,582;6,11
555,829;6,12
556,076;6,11
556,323;6,11
556,57;6,12
556,817;6,12
557,064;6,1
557,311;6,11
557,557;6,11
557,804;6,11
558,051;6,11
558,298;6,12
558,544;6,11
558,791;6,11
559,038;6,12
559,284;6,12
559,531;6,12
559,778;6,13
560,024;6,14
560,271;6,14
560,517;6,15
560,764;6,16
561,011;6,16
561,257;6,18
561,504;6,17
561,75;6,18
561,997;6,19
562,243;6,2
562,489;6,21
562,736;6,22
562,982;6,23
563,229;6,23
563,475;6,23
563,721;6,25
563,968;6,26
564,214;6,27
564,46;6,28
564,707;6,29
564,953;6,29
565,199;6,3
565,445;6,31
565,691;6,33
565,938;6,34
566,184;6,36
566,43;6,37
566,676;6,4
566,922;6,41
567,168;6,43
567,414;6,45
567,66;6,48
567,906;6,5
568,152;6,53
568,398;6,56
568,644;6,59
568,89;6,62
569,136;6,64
569,382;6,66
569,628;6,69
569,874;6,71
570,12;6,74
570,366;6,76
570,612;6,79
570,857;6,81
571,103;6,83
571,349;6,85
571,595;6,88
571,84;6,9
572,086;6,93
572,332;6,94
572,578;6,96
572,823;6,96
573,069;6,98
573,315;6,99
573,56;7,01
573,806;7,03
574,051;7,05
574,297;7,07
574,542;7,09
574,788;7,11
575,034;7,14
575,279;7,14
575,524;7,17
575,77;7,18
576,015;7,2
576,261;7,22
576,506;7,24
576,752;7,24
576,997;7,26
577,242;7,26
577,488;7,27
577,733;7,28
577,978;7,3
578,223;7,32
578,469;7,35
578,714;7,37
578,959;7,39
579,204;7,4
579,45;7,43
579,695;7,44
579,94;7,46
580,185;7,47
580,43;7,49
580,675;7,49
580,92;7,51
581,165;7,52
581,41;7,53
581,655;7,54
581,9;7,55
582,145;7,56
582,39;7,58
582,635;7,59
582,88;7,61
583,125;7,61
583,37;7,62
583,615;7,62
583,86;7,63
584,105;7,63
584,349;7,65
584,594;7,65
584,839;7,67
585,084;7,67
585,328;7,68
585,573;7,69
585,818;7,7
586,063;7,71
586,307;7,72
586,552;7,73
586,797;7,75
587,041;7,77
587,286;7,78
587,53;7,79
587,775;7,81
588,019;7,82
588,264;7,85
588,508;7,86
588,753;7,87
588,997;7,89
589,242;7,92
589,486;7,94
589,731;7,96
589,975;7,98
590,22;8,01
590,464;8,04
590,708;8,08
590,953;8,12
591,197;8,16
591,441;8,21
591,685;8,26
591,93;8,29
592,174;8,35
592,418;8,39
592,662;8,44
592,907;8,49
593,151;8,55
593,395;8,58
593,639;8,64
593,883;8,7
594,127;8,75
594,371;8,8
594,615;8,85
594,859;8,9
595,103;8,97
595,347;9,02
595,591;9,1
595,835;9,16
596,079;9,23
596,323;9,3
596,567;9,37
596,811;9,44
597,055;9,52
597,299;9,59
597,542;9,69
597,786;9,76
598,03;9,86
598,274;9,94
598,518;10,04
598,761;10,12
599,005;10,22
599,249;10,31
599,492;10,41
599,736;10,51
599,98;10,62
600,223;10,73
600,467;10,84
600,711;10,93
600,954;11,05
601,198;11,17
601,441;11,28
601,685;11,39
601,928;11,52
602,172;11,63
602,415;11,75
602,659;11,86
602,902;11,99
603,145;12,11
603,389;12,24
603,632;12,36
603,876;12,5
604,119;12,63
604,362;12,76
604,606;12,89
604,849;13,03
605,092;13,14
605,335;13,27
605,579;13,39
605,822;13,53
606,065;13,65
606,308;13,78
606,551;13,91
606,794;14,05
607,037;14,18
607,281;14,33
607,524;14,48
607,767;14,63
608,01;14,77
608,253;14,92
608,496;15,06
608,739;15,22
608,982;15,37
609,225;15,53
609,468;15,67
609,711;15,82
609,953;15,97
610,196;16,14
610,439;16,3
610,682;16,48
610,925;16,63
611,168;16,8
611,41;16,96
611,653;17,14
611,896;17,31
612,139;17,48
612,381;17,64
612,624;17,8
612,867;17,96
613,109;18,14
613,352;18,3
613,595;18,47
613,837;18,62
614,08;18,8
614,322;18,95
614,565;19,14
614,807;19,29
615,05;19,47
615,292;19,62
615,535;19,8
615,777;19,96
616,02;20,13
616,262;20,31
616,505;20,49
616,747;20,65
616,989;20,84
617,232;21
617,474;21,18
617,716;21,36
617,959;21,56
618,201;21,73
618,443;21,92
618,685;22,1
618,927;22,3
619,17;22,48
619,412;22,68
619,654;22,86
619,896;23,07
620,138;23,26
620,38;23,46
620,622;23,65
620,864;23,85
621,107;24,03
621,349;24,21
621,591;24,4
621,833;24,59
622,075;24,77
622,316;24,97
622,558;25,15
622,8;25,34
623,042;25,52
623,284;25,7
623,526;25,87
623,768;26,05
624,01;26,23
624,251;26,42
624,493;26,59
624,735;26,76
624,977;26,93
625,218;27,12
625,46;27,3
625,702;27,48
625,943;27,65
626,185;27,85
626,427;28,03
626,668;28,22
626,91;28,4
627,152;28,59
627,393;28,77
627,635;28,96
627,876;29,14
628,118;29,34
628,359;29,53
628,601;29,71
628,842;29,9
629,084;30,08
629,325;30,25
629,566;30,45
629,808;30,65
630,049;30,84
630,29;31,02
630,532;31,2
630,773;31,37
631,014;31,57
631,256;31,74
631,497;31,93
631,738;32,11
631,979;32,3
632,22;32,48
632,462;32,68
632,703;32,86
632,944;33,04
633,185;33,21
633,426;33,39
633,667;33,59
633,908;33,76
634,149;33,95
634,39;34,14
634,631;34,32
634,872;34,5
635,113;34,69
635,354;34,87
635,595;35,04
635,836;35,25
636,077;35,43
636,318;35,62
636,559;35,8
636,8;35,98
637,04;36,16
637,281;36,34
637,522;36,52
637,763;36,7
638,003;36,88
638,244;37,07
638,485;37,25
638,726;37,43
638,966;37,6
639,207;37,78
639,448;37,95
639,688;38,14
639,929;38,3
640,169;38,48
640,41;38,65
640,65;38,83
640,891;39
641,131;39,16
641,372;39,32
641,612;39,49
641,853;39,63
642,093;39,81
642,334;39,98
642,574;40,17
642,814;40,33
643,055;40,49
643,295;40,65
643,535;40,82
643,776;40,97
644,016;41,13
644,256;41,28
644,496;41,47
644,737;41,62
644,977;41,8
645,217;41,97
645,457;42,12
645,697;42,29
645,938;42,46
646,178;42,63
646,418;42,81
646,658;42,99
646,898;43,17
647,138;43,33
647,378;43,48
647,618;43,62
647,858;43,79
648,098;43,95
648,338;44,12
648,578;44,27
648,818;44,44
649,057;44,61
649,297;44,79
649,537;44,93
649,777;45,1
650,017;45,23
650,257;45,38
650,496;45,54
650,736;45,69
650,976;45,82
651,216;45,97
651,455;46,11
651,695;46,26
651,935;46,47
652,174;46,78
652,414;47,22
652,653;47,73
652,893;49,07
653,133;51,46
653,372;54,04
653,612;56,06
653,851;57,37
654,091;57,94
654,33;57,93
654,57;57,51
654,809;57,12
655,048;56,81
655,288;56,55
655,527;56,36
655,767;56,24
656,006;56,15
656,245;56,1
656,485;56,09
656,724;56,09
656,963;56,11
657,202;56,15
657,442;56,26
657,681;56,49
657,92;56,29
658,159;55,24
658,398;53,64
658,637;52,03
658,877;50,64
659,116;49,69
659,355;49,25
659,594;49,36
659,833;49,58
660,072;49,85
660,311;50,12
660,55;50,46
660,789;50,76
661,028;51,06
661,267;51,35
661,506;51,58
661,744;51,79
661,983;51,98
662,222;52,16
662,461;52,31
662,7;52,47
662,939;52,61
663,177;52,75
663,416;52,88
663,655;53
663,894;53,15
664,132;53,28
664,371;53,41
664,61;53,54
664,848;53,67
665,087;53,79
665,326;53,93
665,564;54,04
665,803;54,16
666,041;54,27
666,28;54,38
666,518;54,49
666,757;54,61
666,995;54,74
667,234;54,84
667,472;54,97
667,711;55,09
667,949;55,2
668,187;55,33
668,426;55,47
668,664;55,61
668,902;55,71
669,141;55,83
669,379;55,93
669,617;56,06
669,856;56,16
670,094;56,28
670,332;56,39
670,57;56,5
670,808;56,61
671,046;56,74
671,285;56,86
671,523;56,95
671,761;57,08
671,999;57,18
672,237;57,29
672,475;57,41
672,713;57,51
672,951;57,62
673,189;57,71
673,427;57,8
673,665;57,89
673,903;58,01
674,141;58,12
674,379;58,23
674,617;58,33
674,854;58,45
675,092;58,55
675,33;58,67
675,568;58,79
675,806;58,9
676,043;59,01
676,281;59,14
676,519;59,26
676,756;59,34
676,994;59,46
677,232;59,56
677,469;59,65
677,707;59,75
677,945;59,86
678,182;59,95
678,42;60,05
678,657;60,14
678,895;60,25
679,132;60,37
679,37;60,46
679,607;60,56
679,845;60,65
680,082;60,76
680,32;60,85
680,557;60,96
680,794;61,05
681,032;61,15
681,269;61,23
681,507;61,35
681,744;61,45
681,981;61,52
682,218;61,6
682,456;61,7
682,693;61,79
682,93;61,87
683,167;61,98
683,404;62,08
683,642;62,16
683,879;62,24
684,116;62,32
684,353;62,42
684,59;62,48
684,827;62,56
685,064;62,65
685,301;62,73
685,538;62,81
685,775;62,88
686,012;62,97
686,249;63,04
686,486;63,11
686,723;63,19
686,96;63,3
687,197;63,4
687,433;63,49
687,67;63,55
687,907;63,63
688,144;63,74
688,381;63,84
688,617;63,93
688,854;64
689,091;64,08
689,327;64,16
689,564;64,26
689,801;64,36
690,037;64,44
690,274;64,54
690,511;64,62
690,747;64,71
690,984;64,78
691,22;64,86
691,457;64,95
691,693;65,03
691,93;65,11
692,166;65,2
692,403;65,29
692,639;65,38
692,876;65,48
693,112;65,53
693,348;65,6
693,585;65,68
693,821;65,79
694,057;65,89
694,294;65,99
694,53;66,07
694,766;66,14
695,002;66,22
695,239;66,26
695,475;66,35
695,711;66,42
695,947;66,47
696,183;66,57
696,419;66,63
696,656;66,72
696,892;66,77
697,128;66,84
697,364;66,91
697,6;66,99
697,836;67,05
698,072;67,14
698,308;67,24
698,544;67,34
698,78;67,41
699,016;67,48
699,251;67,54
699,487;67,63
699,723;67,72
699,959;67,81
700,195;67,92
700,431;67,99
700,666;68,07
700,902;68,18
701,138;68,26
701,374;68,31
701,609;68,38
701,845;68,48
702,081;68,54
702,316;68,61
702,552;68,68
702,788;68,77
703,023;68,84
703,259;68,88
703,494;68,95
703,73;69,02
703,965;69,1
704,201;69,17
704,436;69,24
704,672;69,31
704,907;69,38
705,143;69,45
705,378;69,52
705,613;69,59
705,849;69,61
706,084;69,66
706,319;69,74
706,555;69,82
706,79;69,85
707,025;69,94
707,26;70,02
707,496;70,1
707,731;70,16
707,966;70,23
708,201;70,33
708,436;70,38
708,671;70,44
708,907;70,48
709,142;70,54
709,377;70,62
709,612;70,7
709,847;70,74
710,082;70,81
710,317;70,87
710,552;70,95
710,787;71,04
711,022;71,13
711,257;71,2
711,492;71,22
711,726;71,31
711,961;71,37
712,196;71,41
712,431;71,5
712,666;71,55
712,901;71,61
713,135;71,64
713,37;71,71
713,605;71,77
713,839;71,85
714,074;71,89
714,309;71,96
714,543;72,02
714,778;72,11
715,013;72,15
715,247;72,21
715,482;72,27
715,716;72,32
715,951;72,38
716,185;72,44
716,42;72,53
716,654;72,59
716,889;72,64
717,123;72,72
717,358;72,75
717,592;72,8
717,827;72,87
718,061;72,93
718,295;72,97
718,53;73,04
718,764;73,11
718,998;73,18
719,232;73,22
719,467;73,27
719,701;73,3
719,935;73,37
720,169;73,42
720,403;73,47
720,638;73,54
720,872;73,61
721,106;73,67
721,34;73,74
721,574;73,81
721,808;73,87
722,042;73,9
722,276;73,98
722,51;74,05
722,744;74,1
722,978;74,17
723,212;74,24
723,446;74,3
723,68;74,36
723,914;74,39
724,147;74,43
724,381;74,51
724,615;74,57
724,849;74,62
725,083;74,7
725,316;74,76
725,55;74,81
725,784;74,85
726,018;74,94
726,251;74,99
726,485;75,04
726,719;75,08
726,952;75,16
727,186;75,19
727,419;75,25
727,653;75,33
727,887;75,39
728,12;75,43
728,354;75,49
728,587;75,53
728,821;75,6
729,054;75,65
729,287;75,69
729,521;75,74
729,754;75,79
729,988;75,83
730,221;75,89
730,454;75,93
730,688;75,97
730,921;75,99
731,154;76,04
731,387;76,1
731,621;76,15
731,854;76,19
732,087;76,26
732,32;76,28
732,553;76,3
732,787;76,36
733,02;76,4
733,253;76,46
733,486;76,5
733,719;76,56
733,952;76,62
734,185;76,69
734,418;76,77
734,651;76,81
734,884;76,83
735,117;76,9
735,35;76,95
735,583;77
735,816;77,05
736,049;77,12
736,281;77,15
736,514;77,22
736,747;77,26
736,98;77,31
737,213;77,35
737,445;77,42
737,678;77,44
737,911;77,47
738,144;77,47
738,376;77,54
738,609;77,57
738,842;77,61
739,074;77,62
739,307;77,66
739,539;77,69
739,772;77,75
740,004;77,78
740,237;77,83
740,469;77,88
740,702;77,92
740,934;77,96
741,167;78,01
741,399;78,05
741,632;78,15
741,864;78,19
742,096;78,28
742,329;78,32
742,561;78,42
742,793;78,49
743,026;78,57
743,258;78,6
743,49;78,68
743,723;78,75
743,955;78,84
744,187;78,88
744,419;78,95
744,651;79,02
744,883;79,09
745,115;79,14
745,348;79,18
745,58;79,2
745,812;79,23
746,044;79,3
746,276;79,36
746,508;79,38
746,74;79,43
746,972;79,47
747,204;79,52
747,436;79,53
747,667;79,59
747,899;79,62
748,131;79,66
748,363;79,7
748,595;79,7
748,827;79,73
749,058;79,75
749,29;79,81
749,522;79,82
749,754;79,83
749,985;79,86
750,217;79,89
750,449;79,98
750,68;80,02
750,912;80,05
751,144;80,07
751,375;80,11
751,607;80,16
751,838;80,2
752,07;80,23
752,301;80,29
752,533;80,35
752,764;80,38
752,996;80,45
753,227;80,47
753,459;80,53
753,69;80,56
753,921;80,62
754,153;80,65
754,384;80,71
754,615;80,76
754,847;80,8
755,078;80,85
755,309;80,85
755,54;80,86
755,772;80,87
756,003;80,92
756,234;80,94
756,465;80,95
756,696;80,97
756,927;81,01
757,159;81,03
757,39;81,06
757,621;81,14
757,852;81,14
758,083;81,18
758,314;81,21
758,545;81,23
758,776;81,26
759,007;81,31
759,238;81,33
759,469;81,36
759,699;81,44
759,93;81,49
760,161;81,56
760,392;81,61
760,623;81,67
760,854;81,74
761,084;81,79
761,315;81,85
761,546;81,88
761,776;81,9
762,007;81,98
762,238;82
762,468;81,98
762,699;82,04
762,93;82,13
763,16;82,19
763,391;82,23
763,621;82,28
763,852;82,31
764,083;82,37
764,313;82,45
764,543;82,46
764,774;82,52
765,004;82,54
765,235;82,59
765,465;82,65
765,696;82,68
765,926;82,72
766,156;82,75
766,387;82,84
766,617;82,89
766,847;82,92
767,077;82,99
767,308;83,07
767,538;83,11
767,768;83,13
767,998;83,2
768,228;83,26
768,459;83,32
768,689;83,37
768,919;83,4
769,149;83,44
769,379;83,49
769,609;83,5
769,839;83,57
770,069;83,63
770,299;83,67
770,529;83,72
770,759;83,76
770,989;83,81
771,219;83,84
771,449;83,87
771,678;83,89
771,908;83,94
772,138;83,98
772,368;84,04
772,598;84,1
772,827;84,14
773,057;84,2
773,287;84,23
773,517;84,27
773,746;84,33
773,976;84,36
774,206;84,4
774,435;84,48
774,665;84,52
774,894;84,55
775,124;84,61
775,354;84,64
775,583;84,72
775,813;84,77
776,042;84,82
776,272;84,9
776,501;84,99
776,73;85,03
776,96;85,06
777,189;85,08
777,419;85,11
777,648;85,13
777,877;85,15
778,107;85,2
778,336;85,26
778,565;85,3
778,794;85,34
779,024;85,38
779,253;85,4
779,482;85,42
779,711;85,48
779,94;85,49
780,17;85,48
780,399;85,51
780,628;85,54
780,857;85,57
781,086;85,58
781,315;85,56
781,544;85,6
781,773;85,66
782,002;85,7
782,231;85,74
782,46;85,76
782,689;85,81
782,918;85,84
783,147;85,88
783,375;85,91
783,604;85,95
783,833;85,98
784,062;86,02
784,291;86,05
784,519;86,04
784,748;86,1
784,977;86,18
785,206;86,21
785,434;86,26
785,663;86,29
785,892;86,36
786,12;86,42
786,349;86,43
786,577;86,46
786,806;86,54
787,034;86,58
787,263;86,64
787,492;86,68
787,72;86,71
787,948;86,74
788,177;86,76
788,405;86,78
788,634;86,83
788,862;86,87
789,09;86,92
789,319;87,01
789,547;87,09
789,775;87,09
790,004;87,09
790,232;87,12
790,46;87,15
790,688;87,18
790,917;87,24
791,145;87,31
791,373;87,33
791,601;87,31
791,829;87,34
792,057;87,37
792,286;87,36
792,514;87,37
792,742;87,37
792,97;87,41
793,198;87,46
793,426;87,45
793,654;87,49
793,882;87,5
794,109;87,5
794,337;87,49
794,565;87,55
794,793;87,62
795,021;87,66
795,249;87,73
795,477;87,72
795,704;87,76
795,932;87,76
796,16;87,82
796,388;87,84
796,615;87,86
796,843;87,91
797,071;87,98
797,298;88,04
797,526;88,11
797,754;88,17
797,981;88,24
798,209;88,31
798,436;88,29
798,664;88,35
798,891;88,4
799,119;88,47
799,346;88,51
799,574;88,5
799,801;88,55
800,029;88,52
800,256;88,57
800,483;88,54
800,711;88,6
800,938;88,65
801,165;88,73
801,393;88,75
801,62;88,76
801,847;88,77
802,074;88,78
802,302;88,83
802,529;88,86
802,756;88,9
802,983;88,99
803,21;89,02
803,437;89,08
803,665;89,08
803,892;89,09
804,119;89,1
804,346;89,16
804,573;89,17
804,8;89,21
805,027;89,25
805,254;89,31
805,481;89,32
805,708;89,32
805,934;89,28
806,161;89,36
806,388;89,4
806,615;89,43
806,842;89,46
807,069;89,47
807,295;89,49
807,522;89,46
807,749;89,41
807,976;89,46
808,202;89,46
808,429;89,5
808,656;89,53
808,882;89,55
809,109;89,61
809,335;89,67
809,562;89,73
809,789;89,77
810,015;89,84
810,242;89,92
810,468;89,94
810,695;90,02
810,921;90,03
811,147;90,07
811,374;90,16
811,6;90,21
811,827;90,19
812,053;90,23
812,279;90,26
812,506;90,3
812,732;90,33
812,958;90,36
813,185;90,4
813,411;90,41
813,637;90,45
813,863;90,41
814,089;90,39
814,315;90,42
814,542;90,46
814,768;90,45
814,994;90,44
815,22;90,47
815,446;90,48
815,672;90,52
815,898;90,52
816,124;90,5
816,35;90,51
816,576;90,59
816,802;90,66
817,028;90,69
817,254;90,76
817,48;90,8
817,705;90,89
817,931;90,89
818,157;90,94
818,383;90,98
818,609;91,02
818,834;91,06
819,06;91,07
819,286;91,04
819,512;91,06
819,737;91,04
819,963;91,08
820,189;91,1
820,414;91,08
820,64;91,11
820,865;91,15
821,091;91,2
821,316;91,16
821,542;91,12
821,767;91,14
821,993;91,17
822,218;91,11
822,444;91,12
822,669;91,15
822,895;91,17
823,12;91,15
823,345;91,17
823,571;91,18
823,796;91,27
824,021;91,35
824,247;91,39
824,472;91,46
824,697;91,47
824,922;91,49
825,147;91,52
825,373;91,57
825,598;91,59
825,823;91,53
826,048;91,61
826,273;91,64
826,498;91,66
826,723;91,61
826,948;91,68
827,173;91,62
827,398;91,61
827,623;91,62
827,848;91,65
828,073;91,66
828,298;91,72
828,523;91,7
828,748;91,67
828,973;91,7
829,197;91,75
829,422;91,77
829,647;91,82
829,872;91,84
830,097;91,87
830,321;91,91
830,546;91,96
830,771;91,99
830,995;92,02
831,22;92,09
831,445;92,13
831,669;92,17
831,894;92,22
832,118;92,3
832,343;92,33
832,567;92,38
832,792;92,39
833,016;92,41
833,241;92,46
833,465;92,47
833,69;92,5
833,914;92,47
834,139;92,52
834,363;92,53
834,587;92,57
834,812;92,6
835,036;92,61
835,26;92,65
835,485;92,64
835,709;92,66
835,933;92,64
836,157;92,69
836,381;92,7
836,606;92,74
836,83;92,73
837,054;92,71
837,278;92,8
837,502;92,8
837,726;92,81
837,95;92,73
838,174;92,78
838,398;92,78
838,622;92,86
838,846;92,88
839,07;92,87
839,294;92,91
839,518;92,9
839,742;92,91
839,966;92,9
840,189;92,92
840,413;92,94
840,637;92,96
840,861;92,95
841,085;92,97
841,308;92,98
841,532;92,97
841,756;93,06
841,979;92,99
842,203;93,13
842,427;93,13
842,65;93,24
842,874;93,27
843,098;93,29
843,321;93,26
843,545;93,31
843,768;93,38
843,992;93,38
844,215;93,45
844,439;93,48
844,662;93,54
844,886;93,59
845,109;93,58
845,332;93,6
845,556;93,64
845,779;93,66
846,002;93,62
846,226;93,62
846,449;93,59
846,672;93,67
846,895;93,62
847,119;93,66
847,342;93,6
847,565;93,67
847,788;93,65
848,011;93,69
848,234;93,66
848,457;93,65
848,681;93,67
848,904;93,68
849,127;93,69
849,35;93,74
849,573;93,78
849,796;93,84
850,019;93,89
850,241;93,9
850,464;93,95
850,687;94,01
850,91;94,08
851,133;94,08
851,356;94,07
851,579;94,17
851,801;94,12
852,024;94,18
852,247;94,12
852,47;94,17
852,692;94,12
852,915;94,12
853,138;94,07
853,36;94,11
853,583;94,04
853,806;94,03
854,028;94
854,251;93,99
854,473;93,96
854,696;93,99
854,918;94
855,141;93,96
855,363;94,07
855,586;94,1
855,808;94,12
856,031;94,09
856,253;94,02
856,475;94,1
856,698;94,07
856,92;94,06
857,142;94,08
857,365;94,2
857,587;94,17
857,809;94,22
858,031;94,23
858,253;94,32
858,476;94,3
858,698;94,35
858,92;94,4
859,142;94,42
859,364;94,4
859,586;94,42
859,808;94,53
860,03;94,48
860,252;94,5
860,474;94,61
860,696;94,64
860,918;94,64
861,14;94,67
861,362;94,76
861,584;94,78
861,806;94,84
862,028;94,8
862,25;94,91
862,471;95,02
862,693;95
862,915;95,03
863,137;95,1
863,358;95,08
863,58;95,02
863,802;95,06
864,024;95,06
864,245;95,02
864,467;95,01
864,688;95,03
864,91;95,04
865,132;94,94
865,353;94,98
865,575;95,03
865,796;95,04
866,018;94,99
866,239;95,02
866,461;94,96
866,682;94,96
866,903;94,95
867,125;94,89
867,346;94,94
867,567;94,91
867,789;94,94
868,01;94,97
868,231;95,08
868,453;95,09
868,674;95,18
868,895;95,21
869,116;95,16
869,337;95,16
869,559;95,16
869,78;95,2
870,001;95,2
870,222;95,22
870,443;95,2
870,664;95,25
870,885;95,29
871,106;95,4
871,327;95,45
871,548;95,43
871,769;95,48
871,99;95,47
872,211;95,51
872,432;95,48
872,653;95,41
872,874;95,45
873,094;95,51
873,315;95,45
873,536;95,43
873,757;95,5
873,978;95,54
874,198;95,56
874,419;95,56
874,64;95,58
874,86;95,56
875,081;95,61
875,302;95,67
875,522;95,62
875,743;95,6
875,963;95,64
876,184;95,6
876,404;95,58
876,625;95,48
876,845;95,52
877,066;95,61
877,286;95,7
877,507;95,69
877,727;95,69
877,947;95,69
878,168;95,75
878,388;95,75
878,609;95,69
878,829;95,68
879,049;95,69
879,269;95,69
879,49;95,65
879,71;95,69
879,93;95,63
880,15;95,67
880,37;95,65
880,59;95,64
880,811;95,72
881,031;95,76
881,251;95,88
881,471;95,87
881,691;95,87
881,911;95,88
882,131;95,86
882,351;95,85
882,571;95,88
882,791;95,89
883,011;95,86
883,23;95,95
883,45;95,97
883,67;96
883,89;96,04
884,11;96,16
884,33;96,12
884,549;96,18
884,769;96,28
884,989;96,26
885,209;96,21
885,428;96,25
885,648;96,23
885,868;96,23
886,087;96,23
886,307;96,19
886,526;96,18
886,746;96,18
886,965;96,17
887,185;96,19
887,404;96,17
887,624;96,25
887,843;96,29
888,063;96,35
888,282;96,43
888,502;96,32
888,721;96,31
888,94;96,36
889,16;96,33
889,379;96,24
889,598;96,34
889,818;96,34
890,037;96,26
890,256;96,28
890,475;96,32
890,694;96,37
890,914;96,44
891,133;96,54
891,352;96,59
891,571;96,66
891,79;96,69
892,009;96,73
892,228;96,66
892,447;96,66
892,666;96,6
892,885;96,58
893,104;96,72
893,323;96,75
893,542;96,75
893,761;96,75
893,98;96,79
894,199;96,72
894,417;96,77
894,636;96,76
894,855;96,79
895,074;96,79
895,293;96,75
895,511;96,74
895,73;96,66
895,949;96,64
896,167;96,6
896,386;96,56
896,605;96,56
896,823;96,7
897,042;96,76
897,26;96,8
897,479;96,84
897,697;96,8
897,916;96,77
898,134;96,75
898,353;96,86
898,571;96,9
898,79;96,99
899,008;97,1
899,227;97,16
899,445;97,15
899,663;97,12
899,882;97,12
900,1;97,19
900,318;97,32
900,536;97,44
900,755;97,52
900,973;97,52
901,191;97,56
901,409;97,56
901,627;97,46
901,846;97,5
902,064;97,43
902,282;97,47
902,5;97,55
902,718;97,69
902,936;97,71
903,154;97,7
903,372;97,81
903,59;97,86
903,808;97,89
904,026;97,93
904,244;98,01
904,462;98,07
904,679;98,07
904,897;98,07
905,115;98,02
905,333;98,04
905,551;98,13
905,768;98,15
905,986;98,17
906,204;98,23
906,422;98,28
906,639;98,41
906,857;98,4
907,074;98,44
907,292;98,33
907,51;98,32
907,727;98,37
907,945;98,31
908,162;98,32
908,38;98,36
908,597;98,4
908,815;98,43
909,032;98,55
909,25;98,53
909,467;98,57
909,684;98,59
909,902;98,56
910,119;98,61
910,337;98,66
910,554;98,69
910,771;98,67
910,988;98,66
911,206;98,65
911,423;98,79
911,64;98,76
911,857;98,77
912,074;98,79
912,291;98,79
912,509;98,8
912,726;98,81
912,943;98,87
913,16;98,85
913,377;98,87
913,594;98,71
913,811;98,61
914,028;98,55
914,245;98,53
914,462;98,55
914,679;98,59
914,896;98,58
915,112;98,51
915,329;98,58
915,546;98,66
915,763;98,69
915,98;98,69
916,196;98,7
916,413;98,83
916,63;98,8
916,847;98,79
917,063;98,8
917,28;98,7
917,497;98,69
917,713;98,72
917,93;98,69
918,146;98,63
918,363;98,79
918,579;98,83
918,796;98,92
919,012;98,93
919,229;98,91
919,445;98,96
919,662;98,96
919,878;99
920,095;98,94
920,311;98,89
920,527;98,91
920,744;99
920,96;98,98
921,176;99,04
921,392;99,04
921,609;99,12
921,825;99,12
922,041;99,08
922,257;99,11
922,473;99,16
922,69;99,37
922,906;99,38
923,122;99,4
923,338;99,32
923,554;99,37
923,77;99,45
923,986;99,49
924,202;99,54
924,418;99,51
924,634;99,58
924,85;99,58
925,066;99,64
925,282;99,47
925,497;99,55
925,713;99,59
925,929;99,68
926,145;99,67
926,361;99,76
926,576;99,94
926,792;99,93
927,008;99,93
927,224;99,91
927,439;99,85
927,655;99,82
927,871;99,81
928,086;99,73
928,302;99,78
928,517;99,81
928,733;99,86
928,948;99,87
929,164;99,87
929,379;99,97
929,595;100
929,81;100,09
930,026;100
930,241;100,07
930,456;100,1
930,672;100,01
930,887;99,97
931,102;99,87
931,318;99,85
931,533;99,83
931,748;99,82
931,964;99,86
932,179;99,92
932,394;100,05
932,609;100,11
932,824;99,99
933,039;99,94
933,255;99,88
933,47;99,95
933,685;99,98
933,9;99,9
934,115;99,78
934,33;99,75
934,545;99,69
934,76;99,59
934,975;99,48
935,19;99,51
935,404;99,56
935,619;99,58
935,834;99,67
936,049;99,73
936,264;99,77
936,479;99,84
936,693;99,8
936,908;99,66
937,123;99,89
937,338;100,05
937,552;100,04
937,767;100,12
937,982;100,01
938,196;100,07
938,411;100,23
938,625;100,19
938,84;100,4
939,055;100,73
939,269;100,77
939,484;100,79
939,698;100,93
939,912;101
940,127;100,8
940,341;100,96
940,556;101,15
940,77;101,05
940,984;100,85
941,199;100,92
941,413;101,21
941,627;101,11
941,842;100,79
942,056;101,17
942,27;101,12
942,484;101,29
942,699;101,03
942,913;101,02
943,127;101,21
943,341;101,43
943,555;101,39
943,769;101,48
943,983;101,67
944,197;101,7
944,411;101,32
944,625;101,8
944,839;101,4
945,053;101,34
945,267;101,41
945,481;101,76
945,695;102,06
945,909;102,16
946,123;102,08
946,336;101,96
946,55;101,69
946,764;101,97
946,978;101,66
947,192;101,75
947,405;101,74
947,619;101,96
947,833;101,64
948,046;101,51
948,26;101,38
948,474;101,28
948,687;101,56
948,901;101,75
949,114;101,31
949,328;101,59
949,541;101,69
949,755;101,67
949,968;101,37
950,182;101,22
950,395;101,12
950,609;100,88
950,822;101,54
951,035;101,35
951,249;101,29
951,462;101,2
951,675;101,24
951,889;101,31
952,102;101,34
952,315;101,57
952,528;101,72
952,741;101,68
952,955;101,96
953,168;101,93
953,381;102,16
953,594;102,45
953,807;102,23
954,02;102,29
954,233;102,41
954,446;102,67
954,659;102,67
954,872;102,82
955,085;103,17
955,298;102,92
955,511;103,05
955,724;102,93
955,937;103,19
956,15;103,19
956,362;102,91
956,575;102,87
956,788;103
957,001;102,88
957,214;102,98
957,426;103,01
957,639;102,99
957,852;102,95
958,064;102,98
958,277;103,39
958,49;103,26
958,702;103,37
958,915;103,31
959,127;103,35
959,34;103,11
959,552;103,13
959,765;103,17
959,977;103,56
960,19;103,6
960,402;103,51
960,615;103,59
960,827;103,69
961,039;103,63
961,252;103,38
961,464;103,23
961,676;103,13
961,889;103,13
962,101;103,08
962,313;103,13
962,525;102,98
962,738;102,71
962,95;102,96
963,162;103,16
963,374;103,04
963,586;103,03
963,798;103,1
964,01;102,79
964,222;102,68
964,434;102,29
964,646;102,52
964,858;102,41
965,07;102,39
965,282;102,61
965,494;102,45
965,706;102,56
965,918;102,58
966,13;102,71
966,342;102,69
966,553;102,63
966,765;102,64
966,977;102,7
967,189;102,79
967,401;102,88
967,612;102,62
967,824;102,8
968,036;103,07
968,247;102,96
968,459;103,01
968,67;103,13
968,882;102,99
969,094;102,9
969,305;103,17
969,517;103,12
969,728;102,99
969,94;102,85
970,151;102,79
970,362;103,05
970,574;103,41
970,785;103,57
970,997;103,62
971,208;103,83
971,419;103,97
971,631;104,07
971,842;103,78
972,053;103,86
972,264;103,78
972,476;103,64
972,687;103,76
972,898;103,88
973,109;104,15
973,32;104,62
973,531;104,4
973,742;104,31
973,954;104,26
974,165;104,42
974,376;104,82
974,587;104,7
974,798;104,73
975,009;104,53
975,22;104,21
975,43;104,66
975,641;104,66
975,852;104,9
976,063;105,19
976,274;105,26
976,485;105,12
976,695;105,24
976,906;105,09
977,117;105,15
977,328;105,41
977,538;104,95
977,749;104,88
977,96;105,24
978,17;105,61
978,381;105,6
978,592;105,63
978,802;105,57
979,013;105,71
979,223;105,55
979,434;105,56
979,644;105,81
979,855;105,31
980,065;105,1
980,276;104,82
980,486;104,66
980,696;104,7
980,907;104,77
981,117;104,78
981,327;104,93
981,538;104,89
981,748;105
981,958;105,32
982,169;105,25
982,379;105,07
982,589;104,95
982,799;105,24
983,009;105,09
983,219;105,49
983,43;105,7
983,64;105,96
983,85;106,21
984,06;106,21
984,27;106,47
984,48;106,7
984,69;106,78
984,9;106,6
985,11;106,65
985,32;106,82
985,529;106,51
985,739;106,18
985,949;106,29
986,159;105,85
986,369;105,76
986,579;105,51
986,788;105,82
986,998;105,77
987,208;105,37
987,417;105,71
987,627;105,14
987,837;104,91
988,046;104,77
988,256;104,34
988,466;103,86
988,675;103,56
988,885;103,21
989,094;103,31
989,304;103,32
989,513;103,61
989,723;103,5
989,932;103,79
990,142;104,09
990,351;104,16
990,56;104,5
990,77;104,3
990,979;104,11
991,188;103,58
991,398;103,65
991,607;104,11
991,816;103,94
992,025;103,97
992,235;103,79
992,444;103,77
992,653;103,85
992,862;104,29
993,071;104,63
993,28;104,71
993,489;104,88
993,698;104,76
993,908;104,64
994,117;104,89
994,326;105,17
994,534;105,03
994,743;104,78
994,952;104,77
995,161;104,82
995,37;105,89
995,579;106,22
995,788;106,26
995,997;106,13
996,205;105,67
996,414;105,63
996,623;105,94
996,832;106,38
997,04;106,47
997,249;106
997,458;105,74
997,666;106,17
997,875;105,71
998,084;105,81
998,292;105,88
998,501;105,51
998,709;105,18
998,918;105,37
999,126;105,34
999,335;105,48
999,543;105,66
999,752;105,09
999,96;105,14
1000,169;105,43
1000,377;105,33
1000,585;106,27
1000,794;106,59
1001,002;107,09
1001,21;106,97
1001,418;107,08
1001,627;107,4
1001,835;108,26
1002,043;107,8
1002,251;108,14
1002,459;108,65
1002,668;108,23
1002,876;108,06
1003,084;108,34
1003,292;107,87
1003,5;108,23
1003,708;108,04
1003,916;107,89
1004,124;108,02
1004,332;108,25
1004,54;107,69
1004,748;107,68
1004,956;106,86
1005,163;106,79
1005,371;106,48
1005,579;105,77
1005,787;105,21
1005,995;105,45
1006,202;104,72
1006,41;104,82
1006,618;104,55
1006,826;104,28
1007,033;104,63
1007,241;105,27
1007,449;105,08
1007,656;105,39
1007,864;105,31
1008,071;105,07
1008,279;105,6
1008,486;106,16
1008,694;105,35
1008,901;105,45
1009,109;105,46
1009,316;106,36
1009,524;106,55
1009,731;106,15
1009,938;106,36
1010,146;107,16
1010,353;107,64
1010,56;107,34
1010,768;107,25
1010,975;107,97
1011,182;108,06
1011,389;107,85
1011,597;107,12
1011,804;107,14
1012,011;107,41
1012,218;107,64
1012,425;107,67
1012,632;107,94
1012,839;106,87
1013,046;106,88
1013,253;107,51
1013,46;107,51
1013,667;106,88
1013,874;106,39
1014,081;106,93
1014,288;107,09
1014,495;106,62
1014,702;105,64
1014,909;106,06
1015,116;106,41
1015,323;105,86
1015,529;105,85
1015,736;105,78
1015,943;106,98
1016,15;107,38
1016,356;107,26
1016,563;107,15
1016,77;107,14
1016,976;106,81
1017,183;107,62
1017,389;107,76
1017,596;107,05
1017,803;107,01
1018,009;106,9
1018,216;107,28
1018,422;107,22
1018,629;107,83
1018,835;108,29
1019,041;109,01
1019,248;109,5
1019,454;109,32
1019,661;110,13
1019,867;110,12
1020,073;110,42
1020,279;110,75
1020,486;110,17
1020,692;110,25
1020,898;110,43
1021,104;110,77
1021,311;109,9
1021,517;109,42
1021,723;110,78
1021,929;111,45
1022,135;112,35
1022,341;112,75
1022,547;113,34
1022,753;113,43
1022,959;113,14
1023,165;112,49
1023,371;112,28
1023,577;111,65
1023,783;111,52
1023,989;111,06
1024,195;110,78
1024,401;110,61
1024,607;110,67
1024,812;111,47
1025,018;111,01
1025,224;111,03
1025,43;110,59
1025,635;112,62
1025,841;114,35
1026,047;113,22
1026,252;112,6
1026,458;112,88
1026,664;113,31
1026,869;113,07
1027,075;113,28
1027,28;113,65
1027,486;113,99
1027,691;114,77
1027,897;114,78
1028,102;115,1
1028,308;114,27
1028,513;114,74
1028,719;114,85
1028,924;113,34
1029,129;113,22
1029,335;113,95
1029,54;114,44
1029,745;114,52
1029,95;114,41
1030,156;111,69
1030,361;111,87
1030,566;112,33
1030,771;111,74
1030,976;111,63
1031,182;111,03
1031,387;110,54
1031,592;110,36
1031,797;111,01
1032,002;110,23
1032,207;111,6
1032,412;111,15
1032,617;111,87
1032,822;111,78
1033,027;111,96
1033,232;112,87
1033,437;112,77
1033,642;113,46
1033,846;112,8
1034,051;114,14
1034,256;113,21
1034,461;114,07
1034,666;115,62
1034,87;116,82
1035,075;117,08
1035,28;115,88
1035,484;115,81
1035,689;116,62
1035,894;115,97
1036,098;114,8
1036,303;114,93
1036,507;114,25
1036,712;114,76
1036,917;115,76
1037,121;116,94
1037,325;116,7
1037,53;116,82
1037,734;116,67
1037,939;117,14
1038,143;117,3
1038,348;116,52
1038,552;116
1038,756;117,46
1038,961;115,77
1039,165;115,19
1039,369;115,57
1039,573;115,68
1039,778;116,65
1039,982;116,12
1040,186;117,54
1040,39;119,66
1040,594;120,32
1040,798;121,38
1041,002;121,01
1041,206;121,15
1041,41;120,66
1041,614;122,27
1041,818;121,91
1042,022;122,24
1042,226;121,28
1042,43;121,23
1042,634;123,28
1042,838;124,87
1043,042;125,56
1043,246;126,17
1043,45;124,72
1043,653;123,53
1043,857;125,13
1044,061;123,81
1044,265;123,74
1044,468;124,07
1044,672;123,68
1044,876;123,62
1045,079;122,63
1045,283;124,9
1045,487;122,68
1045,69;123,3
1045,894;120,58
1046,097;120,79
1046,301;118,86
1046,504;119,09
1046,708;120
1046,911;118,78
1047,115;117,89
1047,318;116,04
1047,522;117,6
1047,725;118,61
1047,928;117,81
1048,132;119,49
1048,335;123,13
1048,538;124,71
1048,741;124,75
1048,945;124,67
1049,148;125,59
1049,351;125,95
1049,554;123,24
1049,757;124,27
1049,96;124,12
1050,163;126,2
1050,367;124,56
1050,57;126,17
1050,773;125,26
1050,976;124,94
1051,179;126,16
1051,382;126,88
1051,585;129,62
1051,787;130,07
1051,99;131,33
1052,193;132,14
1052,396;132,39
1052,599;129,96
1052,802;127,6
1053,005;124,73
1053,207;125,2
1053,41;123,07
1053,613;124,59
1053,815;125,71
1054,018;122,62
1054,221;119,52
1054,423;119,86
1054,626;122,14
1054,829;123,12
1055,031;123,84
1055,234;123,84
1055,436;120,9
1055,639;118,74
1055,841;116,03
1056,044;113,64
1056,246;110,81
