Data from CoccinigliaWhite_Reflection__2__48.txt Node;
"Date: Fri Sep 12 11:38:17 CEST 2025 User: sycur Spectrometer: SR400348 Trigger mode: 0 Integration Time (sec): 2,000000E-2 Scans to average: 20 Electric dark correction enabled: true Nonlinearity correction enabled: false Boxcar width: 10 XAxis mode: Wavelengths Number of Pixels in Spectrum: 3648 >>>>>Begin Spectral Data<<<<<";
186,01;28,89
186,281;-2295,59
186,552;117,05
186,822;192,39
187,093;-72,73
187,364;-34,92
187,635;11667,02
187,905;106,35
188,176;37,51
188,447;30,12
188,717;26,3
188,988;23,18
189,258;24,72
189,529;22,79
189,8;22,48
190,07;21,1
190,341;20,5
190,611;17,93
190,882;17,64
191,152;18,02
191,423;18,06
191,693;15,92
191,964;16,07
192,234;15,91
192,505;15,23
192,775;14,45
193,045;14,25
193,316;13
193,586;12,5
193,856;12,55
194,127;12,59
194,397;11,9
194,667;12,43
194,938;12,29
195,208;12,23
195,478;12,46
195,748;12,35
196,019;11,47
196,289;11,41
196,559;10,95
196,829;10,6
197,099;10,91
197,37;11,3
197,64;11,49
197,91;11,51
198,18;11,58
198,45;11,12
198,72;10,96
198,99;10,68
199,26;10,1
199,53;10,35
199,8;10,25
200,07;10,09
200,34;9,77
200,61;9,59
200,88;9,8
201,15;9,32
201,42;9,15
201,69;9,14
201,96;9,19
202,23;9,22
202,499;8,87
202,769;8,44
203,039;8,16
203,309;7,84
203,579;7,84
203,849;7,95
204,118;7,86
204,388;7,7
204,658;7,64
204,927;7,69
205,197;7,42
205,467;7,36
205,736;7,52
206,006;7,42
206,276;7,36
206,545;6,98
206,815;6,98
207,085;6,98
207,354;6,8
207,624;6,8
207,893;6,67
208,163;6,76
208,432;6,81
208,702;6,81
208,971;6,81
209,241;6,72
209,51;6,53
209,78;6,51
210,049;6,52
210,318;6,56
210,588;6,53
210,857;6,49
211,127;6,42
211,396;6,3
211,665;6,14
211,935;6,17
212,204;6,21
212,473;6,19
212,742;6,2
213,012;6,27
213,281;6,17
213,55;6,14
213,819;6,07
214,088;6,04
214,358;5,93
214,627;5,85
214,896;5,77
215,165;5,73
215,434;5,71
215,703;5,55
215,972;5,56
216,241;5,55
216,51;5,5
216,779;5,38
217,048;5,35
217,317;5,34
217,586;5,31
217,855;5,3
218,124;5,24
218,393;5,19
218,662;5,17
218,931;5,13
219,2;5,06
219,469;5,05
219,738;5,02
220,006;5,05
220,275;5,12
220,544;5,11
220,813;5,08
221,082;5,04
221,35;5,07
221,619;4,99
221,888;4,99
222,157;4,97
222,425;5,01
222,694;5,01
222,963;5,04
223,231;5
223,5;5,01
223,769;4,99
224,037;4,97
224,306;4,96
224,574;4,98
224,843;4,98
225,111;4,98
225,38;4,93
225,648;4,92
225,917;4,87
226,185;4,86
226,454;4,85
226,722;4,84
226,991;4,82
227,259;4,82
227,528;4,78
227,796;4,8
228,064;4,76
228,333;4,74
228,601;4,71
228,869;4,71
229,138;4,69
229,406;4,7
229,674;4,7
229,942;4,71
230,211;4,7
230,479;4,7
230,747;4,69
231,015;4,71
231,283;4,7
231,552;4,68
231,82;4,68
232,088;4,69
232,356;4,71
232,624;4,7
232,892;4,7
233,16;4,7
233,428;4,68
233,696;4,68
233,964;4,69
234,232;4,69
234,5;4,68
234,768;4,67
235,036;4,65
235,304;4,65
235,572;4,61
235,84;4,62
236,108;4,63
236,376;4,64
236,644;4,64
236,912;4,64
237,179;4,65
237,447;4,65
237,715;4,64
237,983;4,64
238,251;4,63
238,518;4,62
238,786;4,63
239,054;4,64
239,322;4,64
239,589;4,64
239,857;4,65
240,125;4,66
240,392;4,65
240,66;4,66
240,927;4,64
241,195;4,65
241,463;4,64
241,73;4,63
241,998;4,62
242,265;4,62
242,533;4,61
242,8;4,61
243,068;4,62
243,335;4,61
243,603;4,61
243,87;4,62
244,138;4,64
244,405;4,63
244,672;4,62
244,94;4,61
245,207;4,6
245,474;4,6
245,742;4,6
246,009;4,6
246,276;4,59
246,544;4,59
246,811;4,6
247,078;4,59
247,345;4,59
247,613;4,58
247,88;4,57
248,147;4,57
248,414;4,57
248,681;4,56
248,948;4,56
249,215;4,56
249,483;4,55
249,75;4,54
250,017;4,55
250,284;4,55
250,551;4,55
250,818;4,55
251,085;4,54
251,352;4,54
251,619;4,54
251,886;4,54
252,153;4,54
252,42;4,53
252,687;4,53
252,953;4,53
253,22;4,54
253,487;4,54
253,754;4,54
254,021;4,54
254,288;4,54
254,555;4,54
254,821;4,54
255,088;4,54
255,355;4,54
255,622;4,54
255,888;4,54
256,155;4,54
256,422;4,54
256,688;4,53
256,955;4,51
257,222;4,51
257,488;4,52
257,755;4,52
258,022;4,51
258,288;4,51
258,555;4,5
258,821;4,49
259,088;4,49
259,354;4,49
259,621;4,48
259,887;4,49
260,154;4,47
260,42;4,47
260,687;4,46
260,953;4,46
261,219;4,44
261,486;4,43
261,752;4,43
262,019;4,43
262,285;4,43
262,551;4,42
262,818;4,42
263,084;4,41
263,35;4,4
263,616;4,4
263,883;4,4
264,149;4,39
264,415;4,39
264,681;4,39
264,947;4,38
265,214;4,37
265,48;4,37
265,746;4,37
266,012;4,36
266,278;4,35
266,544;4,34
266,81;4,35
267,076;4,35
267,342;4,33
267,608;4,33
267,874;4,33
268,14;4,33
268,406;4,32
268,672;4,32
268,938;4,32
269,204;4,32
269,47;4,31
269,736;4,3
270,002;4,3
270,268;4,28
270,533;4,27
270,799;4,27
271,065;4,25
271,331;4,24
271,597;4,23
271,862;4,23
272,128;4,24
272,394;4,24
272,66;4,23
272,925;4,24
273,191;4,23
273,457;4,23
273,722;4,23
273,988;4,22
274,254;4,21
274,519;4,21
274,785;4,21
275,05;4,21
275,316;4,21
275,582;4,22
275,847;4,21
276,113;4,22
276,378;4,21
276,644;4,2
276,909;4,2
277,174;4,21
277,44;4,21
277,705;4,2
277,971;4,2
278,236;4,2
278,501;4,18
278,767;4,18
279,032;4,18
279,297;4,17
279,563;4,18
279,828;4,18
280,093;4,17
280,358;4,17
280,624;4,17
280,889;4,16
281,154;4,16
281,419;4,15
281,684;4,14
281,95;4,15
282,215;4,15
282,48;4,16
282,745;4,15
283,01;4,13
283,275;4,13
283,54;4,11
283,805;4,11
284,07;4,12
284,335;4,13
284,6;4,12
284,865;4,12
285,13;4,12
285,395;4,11
285,66;4,11
285,925;4,11
286,19;4,11
286,455;4,13
286,72;4,12
286,985;4,12
287,249;4,12
287,514;4,11
287,779;4,12
288,044;4,11
288,309;4,11
288,573;4,11
288,838;4,12
289,103;4,12
289,367;4,12
289,632;4,11
289,897;4,1
290,161;4,1
290,426;4,09
290,691;4,08
290,955;4,08
291,22;4,08
291,484;4,08
291,749;4,08
292,014;4,07
292,278;4,06
292,543;4,06
292,807;4,06
293,072;4,06
293,336;4,05
293,6;4,05
293,865;4,05
294,129;4,04
294,394;4,04
294,658;4,05
294,922;4,05
295,187;4,05
295,451;4,05
295,715;4,06
295,98;4,07
296,244;4,07
296,508;4,07
296,773;4,07
297,037;4,07
297,301;4,06
297,565;4,06
297,829;4,05
298,094;4,06
298,358;4,06
298,622;4,05
298,886;4,05
299,15;4,05
299,414;4,05
299,678;4,06
299,942;4,05
300,206;4,04
300,47;4,04
300,734;4,04
300,998;4,04
301,262;4,04
301,526;4,03
301,79;4,02
302,054;4,01
302,318;4
302,582;4,01
302,846;4
303,11;4
303,374;4,01
303,637;4
303,901;4,01
304,165;4,01
304,429;4,01
304,693;4
304,956;4
305,22;3,99
305,484;4
305,747;4
306,011;3,99
306,275;3,99
306,538;3,99
306,802;4
307,066;4
307,329;3,99
307,593;4
307,856;3,99
308,12;3,99
308,384;3,99
308,647;3,98
308,911;3,97
309,174;3,97
309,438;3,96
309,701;3,95
309,964;3,94
310,228;3,94
310,491;3,93
310,755;3,93
311,018;3,94
311,281;3,93
311,545;3,92
311,808;3,91
312,071;3,9
312,335;3,88
312,598;3,88
312,861;3,87
313,124;3,86
313,388;3,87
313,651;3,86
313,914;3,85
314,177;3,85
314,44;3,85
314,704;3,84
314,967;3,84
315,23;3,84
315,493;3,84
315,756;3,83
316,019;3,82
316,282;3,83
316,545;3,81
316,808;3,81
317,071;3,81
317,334;3,81
317,597;3,8
317,86;3,79
318,123;3,78
318,386;3,77
318,649;3,77
318,912;3,76
319,175;3,75
319,437;3,76
319,7;3,76
319,963;3,75
320,226;3,73
320,489;3,72
320,751;3,7
321,014;3,7
321,277;3,69
321,54;3,69
321,802;3,68
322,065;3,68
322,328;3,66
322,59;3,64
322,853;3,64
323,116;3,64
323,378;3,64
323,641;3,65
323,903;3,65
324,166;3,65
324,428;3,64
324,691;3,63
324,953;3,62
325,216;3,61
325,478;3,61
325,741;3,61
326,003;3,61
326,266;3,61
326,528;3,61
326,791;3,61
327,053;3,61
327,315;3,6
327,578;3,59
327,84;3,59
328,102;3,6
328,365;3,59
328,627;3,59
328,889;3,58
329,151;3,58
329,414;3,56
329,676;3,56
329,938;3,55
330,2;3,56
330,462;3,55
330,725;3,55
330,987;3,54
331,249;3,53
331,511;3,53
331,773;3,54
332,035;3,53
332,297;3,51
332,559;3,51
332,821;3,51
333,083;3,51
333,345;3,51
333,607;3,5
333,869;3,5
334,131;3,5
334,393;3,5
334,655;3,48
334,917;3,48
335,179;3,48
335,44;3,47
335,702;3,46
335,964;3,45
336,226;3,45
336,488;3,45
336,749;3,46
337,011;3,46
337,273;3,46
337,535;3,46
337,796;3,45
338,058;3,45
338,32;3,45
338,581;3,45
338,843;3,45
339,105;3,46
339,366;3,45
339,628;3,45
339,889;3,45
340,151;3,46
340,412;3,45
340,674;3,45
340,935;3,45
341,197;3,46
341,458;3,46
341,72;3,46
341,981;3,46
342,243;3,45
342,504;3,44
342,766;3,43
343,027;3,42
343,288;3,43
343,55;3,43
343,811;3,42
344,072;3,42
344,334;3,41
344,595;3,4
344,856;3,4
345,117;3,39
345,379;3,38
345,64;3,39
345,901;3,39
346,162;3,38
346,423;3,39
346,684;3,37
346,946;3,36
347,207;3,37
347,468;3,37
347,729;3,37
347,99;3,37
348,251;3,36
348,512;3,37
348,773;3,36
349,034;3,36
349,295;3,34
349,556;3,32
349,817;3,32
350,078;3,32
350,339;3,33
350,6;3,32
350,86;3,31
351,121;3,3
351,382;3,3
351,643;3,3
351,904;3,28
352,165;3,29
352,425;3,28
352,686;3,28
352,947;3,26
353,208;3,27
353,468;3,28
353,729;3,28
353,99;3,28
354,25;3,28
354,511;3,28
354,772;3,29
355,032;3,32
355,293;3,3
355,553;3,3
355,814;3,3
356,074;3,32
356,335;3,31
356,596;3,3
356,856;3,32
357,116;3,33
357,377;3,34
357,637;3,34
357,898;3,37
358,158;3,36
358,419;3,37
358,679;3,37
358,939;3,36
359,2;3,37
359,46;3,36
359,72;3,37
359,981;3,36
360,241;3,35
360,501;3,33
360,761;3,35
361,022;3,35
361,282;3,35
361,542;3,35
361,802;3,36
362,062;3,36
362,323;3,34
362,583;3,34
362,843;3,33
363,103;3,34
363,363;3,31
363,623;3,32
363,883;3,32
364,143;3,32
364,403;3,31
364,663;3,31
364,923;3,32
365,183;3,31
365,443;3,34
365,703;3,34
365,963;3,36
366,223;3,35
366,483;3,35
366,743;3,36
367,002;3,36
367,262;3,37
367,522;3,38
367,782;3,38
368,042;3,37
368,301;3,37
368,561;3,37
368,821;3,39
369,081;3,39
369,34;3,38
369,6;3,38
369,86;3,39
370,119;3,39
370,379;3,39
370,638;3,4
370,898;3,38
371,158;3,39
371,417;3,4
371,677;3,41
371,936;3,41
372,196;3,42
372,455;3,41
372,715;3,41
372,974;3,43
373,234;3,45
373,493;3,47
373,753;3,48
374,012;3,5
374,271;3,49
374,531;3,51
374,79;3,53
375,049;3,53
375,309;3,53
375,568;3,55
375,827;3,56
376,086;3,56
376,346;3,57
376,605;3,58
376,864;3,6
377,123;3,6
377,383;3,6
377,642;3,6
377,901;3,61
378,16;3,62
378,419;3,61
378,678;3,61
378,937;3,6
379,196;3,59
379,455;3,58
379,714;3,59
379,973;3,58
380,232;3,59
380,491;3,61
380,75;3,62
381,009;3,61
381,268;3,62
381,527;3,63
381,786;3,64
382,045;3,62
382,304;3,63
382,563;3,64
382,821;3,65
383,08;3,66
383,339;3,67
383,598;3,66
383,857;3,68
384,115;3,71
384,374;3,72
384,633;3,74
384,891;3,75
385,15;3,77
385,409;3,78
385,667;3,8
385,926;3,8
386,185;3,81
386,443;3,81
386,702;3,83
386,96;3,82
387,219;3,83
387,477;3,85
387,736;3,86
387,994;3,86
388,253;3,88
388,511;3,89
388,77;3,9
389,028;3,91
389,287;3,91
389,545;3,91
389,803;3,9
390,062;3,91
390,32;3,92
390,578;3,91
390,837;3,91
391,095;3,91
391,353;3,93
391,612;3,95
391,87;3,96
392,128;3,96
392,386;3,97
392,644;3,98
392,903;3,97
393,161;3,95
393,419;3,95
393,677;3,94
393,935;3,93
394,193;3,94
394,451;3,95
394,709;3,95
394,967;3,95
395,225;3,97
395,483;3,97
395,741;3,98
395,999;3,99
396,257;3,99
396,515;4
396,773;4
397,031;3,98
397,289;4
397,547;3,99
397,805;3,97
398,062;3,98
398,32;3,99
398,578;4
398,836;4
399,094;4,01
399,351;4,01
399,609;3,99
399,867;3,98
400,124;3,97
400,382;3,98
400,64;3,99
400,897;3,99
401,155;3,98
401,413;4
401,67;4
401,928;4,01
402,185;4,02
402,443;4,04
402,701;4,03
402,958;4,05
403,216;4,06
403,473;4,06
403,73;4,06
403,988;4,08
404,245;4,09
404,503;4,11
404,76;4,13
405,018;4,14
405,275;4,15
405,532;4,16
405,79;4,16
406,047;4,17
406,304;4,17
406,561;4,18
406,819;4,16
407,076;4,17
407,333;4,15
407,59;4,13
407,848;4,12
408,105;4,13
408,362;4,12
408,619;4,13
408,876;4,12
409,133;4,12
409,39;4,11
409,647;4,1
409,904;4,09
410,161;4,08
410,418;4,09
410,675;4,09
410,932;4,1
411,189;4,08
411,446;4,09
411,703;4,1
411,96;4,08
412,217;4,09
412,474;4,07
412,731;4,09
412,988;4,1
413,245;4,09
413,501;4,07
413,758;4,07
414,015;4,06
414,272;4,07
414,529;4,07
414,785;4,05
415,042;4,05
415,299;4,03
415,555;4,03
415,812;4,02
416,069;4,01
416,325;3,99
416,582;4,01
416,838;4,01
417,095;3,97
417,352;3,96
417,608;3,95
417,865;3,94
418,121;3,92
418,378;3,92
418,634;3,94
418,891;3,95
419,147;3,96
419,403;3,96
419,66;3,95
419,916;3,95
420,173;3,96
420,429;3,94
420,685;3,95
420,942;3,95
421,198;3,95
421,454;3,96
421,711;3,98
421,967;3,96
422,223;3,92
422,479;3,95
422,735;3,95
422,992;3,95
423,248;3,92
423,504;3,93
423,76;3,93
424,016;3,91
424,272;3,9
424,528;3,89
424,784;3,9
425,041;3,9
425,297;3,91
425,553;3,91
425,809;3,91
426,065;3,91
426,32;3,89
426,576;3,88
426,832;3,86
427,088;3,85
427,344;3,86
427,6;3,87
427,856;3,86
428,112;3,85
428,368;3,87
428,623;3,89
428,879;3,9
429,135;3,88
429,391;3,88
429,646;3,87
429,902;3,87
430,158;3,85
430,414;3,85
430,669;3,85
430,925;3,83
431,181;3,83
431,436;3,83
431,692;3,82
431,947;3,82
432,203;3,81
432,458;3,8
432,714;3,79
432,97;3,78
433,225;3,77
433,481;3,77
433,736;3,74
433,991;3,74
434,247;3,72
434,502;3,71
434,758;3,72
435,013;3,73
435,268;3,73
435,524;3,71
435,779;3,7
436,034;3,68
436,29;3,7
436,545;3,68
436,8;3,67
437,056;3,67
437,311;3,66
437,566;3,66
437,821;3,66
438,076;3,66
438,331;3,66
438,587;3,66
438,842;3,66
439,097;3,66
439,352;3,66
439,607;3,64
439,862;3,65
440,117;3,63
440,372;3,61
440,627;3,6
440,882;3,6
441,137;3,59
441,392;3,59
441,647;3,59
441,902;3,6
442,157;3,59
442,412;3,61
442,667;3,62
442,921;3,62
443,176;3,63
443,431;3,63
443,686;3,62
443,941;3,62
444,195;3,61
444,45;3,62
444,705;3,62
444,96;3,63
445,214;3,63
445,469;3,63
445,724;3,61
445,978;3,6
446,233;3,6
446,487;3,61
446,742;3,61
446,997;3,59
447,251;3,57
447,506;3,58
447,76;3,56
448,015;3,55
448,269;3,53
448,524;3,5
448,778;3,49
449,033;3,48
449,287;3,48
449,541;3,48
449,796;3,47
450,05;3,45
450,305;3,43
450,559;3,42
450,813;3,42
451,067;3,42
451,322;3,42
451,576;3,41
451,83;3,39
452,084;3,39
452,339;3,38
452,593;3,39
452,847;3,36
453,101;3,36
453,355;3,35
453,609;3,35
453,864;3,37
454,118;3,36
454,372;3,36
454,626;3,35
454,88;3,35
455,134;3,36
455,388;3,39
455,642;3,41
455,896;3,41
456,15;3,39
456,404;3,39
456,658;3,39
456,912;3,39
457,165;3,4
457,419;3,39
457,673;3,42
457,927;3,42
458,181;3,43
458,435;3,44
458,688;3,46
458,942;3,46
459,196;3,44
459,45;3,45
459,703;3,44
459,957;3,43
460,211;3,43
460,464;3,45
460,718;3,41
460,972;3,4
461,225;3,4
461,479;3,41
461,732;3,42
461,986;3,4
462,239;3,41
462,493;3,42
462,746;3,42
463;3,39
463,253;3,39
463,507;3,38
463,76;3,36
464,014;3,35
464,267;3,35
464,52;3,35
464,774;3,35
465,027;3,35
465,28;3,37
465,534;3,37
465,787;3,36
466,04;3,35
466,294;3,34
466,547;3,35
466,8;3,35
467,053;3,34
467,306;3,36
467,56;3,34
467,813;3,33
468,066;3,32
468,319;3,34
468,572;3,33
468,825;3,33
469,078;3,33
469,331;3,33
469,584;3,34
469,837;3,33
470,09;3,32
470,343;3,31
470,596;3,29
470,849;3,28
471,102;3,26
471,355;3,26
471,608;3,26
471,861;3,25
472,114;3,24
472,367;3,24
472,619;3,24
472,872;3,23
473,125;3,23
473,378;3,23
473,631;3,22
473,883;3,21
474,136;3,21
474,389;3,21
474,641;3,21
474,894;3,2
475,147;3,21
475,399;3,21
475,652;3,21
475,905;3,22
476,157;3,2
476,41;3,2
476,662;3,21
476,915;3,19
477,167;3,19
477,42;3,21
477,672;3,22
477,925;3,21
478,177;3,22
478,43;3,23
478,682;3,23
478,934;3,23
479,187;3,24
479,439;3,23
479,691;3,23
479,944;3,24
480,196;3,23
480,448;3,24
480,701;3,25
480,953;3,25
481,205;3,24
481,457;3,25
481,709;3,26
481,962;3,27
482,214;3,3
482,466;3,32
482,718;3,32
482,97;3,35
483,222;3,38
483,474;3,4
483,726;3,41
483,978;3,42
484,23;3,43
484,482;3,44
484,734;3,45
484,986;3,44
485,238;3,44
485,49;3,45
485,742;3,44
485,994;3,43
486,246;3,44
486,498;3,43
486,75;3,44
487,001;3,43
487,253;3,43
487,505;3,42
487,757;3,4
488,009;3,4
488,26;3,39
488,512;3,36
488,764;3,33
489,015;3,31
489,267;3,29
489,519;3,28
489,77;3,27
490,022;3,25
490,274;3,24
490,525;3,25
490,777;3,23
491,028;3,24
491,28;3,24
491,531;3,23
491,783;3,23
492,034;3,23
492,286;3,23
492,537;3,23
492,789;3,23
493,04;3,23
493,291;3,22
493,543;3,21
493,794;3,2
494,045;3,21
494,297;3,21
494,548;3,22
494,799;3,23
495,051;3,23
495,302;3,23
495,553;3,23
495,804;3,23
496,056;3,24
496,307;3,24
496,558;3,24
496,809;3,25
497,06;3,26
497,311;3,26
497,562;3,26
497,813;3,26
498,064;3,27
498,316;3,26
498,567;3,26
498,818;3,26
499,069;3,26
499,319;3,26
499,57;3,26
499,821;3,25
500,072;3,25
500,323;3,25
500,574;3,27
500,825;3,26
501,076;3,26
501,327;3,26
501,577;3,26
501,828;3,26
502,079;3,25
502,33;3,24
502,58;3,25
502,831;3,25
503,082;3,25
503,333;3,25
503,583;3,25
503,834;3,24
504,084;3,25
504,335;3,26
504,586;3,26
504,836;3,25
505,087;3,24
505,337;3,23
505,588;3,23
505,838;3,22
506,089;3,22
506,339;3,23
506,59;3,23
506,84;3,22
507,091;3,23
507,341;3,22
507,591;3,23
507,842;3,21
508,092;3,21
508,343;3,2
508,593;3,2
508,843;3,2
509,093;3,21
509,344;3,2
509,594;3,2
509,844;3,2
510,094;3,21
510,345;3,23
510,595;3,24
510,845;3,24
511,095;3,23
511,345;3,23
511,595;3,24
511,845;3,24
512,095;3,25
512,345;3,25
512,595;3,24
512,845;3,24
513,095;3,27
513,345;3,27
513,595;3,26
513,845;3,26
514,095;3,25
514,345;3,24
514,595;3,24
514,845;3,23
515,095;3,23
515,345;3,22
515,594;3,22
515,844;3,22
516,094;3,22
516,344;3,21
516,593;3,2
516,843;3,18
517,093;3,18
517,343;3,18
517,592;3,17
517,842;3,18
518,092;3,17
518,341;3,15
518,591;3,15
518,84;3,15
519,09;3,16
519,34;3,16
519,589;3,17
519,839;3,16
520,088;3,16
520,338;3,17
520,587;3,18
520,836;3,17
521,086;3,17
521,335;3,16
521,585;3,17
521,834;3,18
522,083;3,19
522,333;3,19
522,582;3,19
522,831;3,19
523,081;3,18
523,33;3,19
523,579;3,19
523,828;3,21
524,078;3,22
524,327;3,22
524,576;3,22
524,825;3,22
525,074;3,22
525,323;3,21
525,573;3,21
525,822;3,2
526,071;3,21
526,32;3,22
526,569;3,22
526,818;3,23
527,067;3,22
527,316;3,22
527,565;3,22
527,814;3,22
528,063;3,23
528,312;3,24
528,56;3,24
528,809;3,23
529,058;3,23
529,307;3,22
529,556;3,23
529,805;3,24
530,053;3,24
530,302;3,24
530,551;3,26
530,8;3,26
531,048;3,28
531,297;3,28
531,546;3,27
531,794;3,28
532,043;3,28
532,292;3,29
532,54;3,3
532,789;3,3
533,037;3,31
533,286;3,3
533,535;3,31
533,783;3,31
534,032;3,32
534,28;3,31
534,528;3,32
534,777;3,32
535,025;3,32
535,274;3,32
535,522;3,32
535,771;3,33
536,019;3,33
536,267;3,32
536,516;3,32
536,764;3,32
537,012;3,32
537,26;3,33
537,509;3,34
537,757;3,33
538,005;3,34
538,253;3,35
538,501;3,35
538,75;3,35
538,998;3,35
539,246;3,35
539,494;3,36
539,742;3,36
539,99;3,36
540,238;3,36
540,486;3,37
540,734;3,37
540,982;3,36
541,23;3,36
541,478;3,38
541,726;3,39
541,974;3,4
542,222;3,4
542,47;3,39
542,718;3,39
542,966;3,4
543,213;3,39
543,461;3,38
543,709;3,38
543,957;3,39
544,205;3,39
544,452;3,4
544,7;3,4
544,948;3,4
545,196;3,4
545,443;3,4
545,691;3,4
545,939;3,4
546,186;3,4
546,434;3,4
546,681;3,39
546,929;3,4
547,176;3,4
547,424;3,4
547,671;3,4
547,919;3,4
548,166;3,4
548,414;3,41
548,661;3,42
548,909;3,42
549,156;3,42
549,404;3,42
549,651;3,42
549,898;3,42
550,146;3,42
550,393;3,43
550,64;3,43
550,888;3,43
551,135;3,43
551,382;3,43
551,629;3,43
551,876;3,43
552,124;3,43
552,371;3,42
552,618;3,42
552,865;3,43
553,112;3,42
553,359;3,41
553,606;3,41
553,854;3,41
554,101;3,4
554,348;3,4
554,595;3,4
554,842;3,4
555,089;3,39
555,336;3,39
555,582;3,37
555,829;3,37
556,076;3,37
556,323;3,38
556,57;3,38
556,817;3,38
557,064;3,37
557,311;3,38
557,557;3,37
557,804;3,37
558,051;3,37
558,298;3,37
558,544;3,37
558,791;3,36
559,038;3,36
559,284;3,36
559,531;3,36
559,778;3,37
560,024;3,36
560,271;3,37
560,517;3,37
560,764;3,38
561,011;3,37
561,257;3,37
561,504;3,38
561,75;3,38
561,997;3,38
562,243;3,38
562,489;3,38
562,736;3,38
562,982;3,38
563,229;3,38
563,475;3,38
563,721;3,39
563,968;3,39
564,214;3,4
564,46;3,4
564,707;3,41
564,953;3,4
565,199;3,41
565,445;3,42
565,691;3,43
565,938;3,43
566,184;3,45
566,43;3,45
566,676;3,46
566,922;3,47
567,168;3,48
567,414;3,49
567,66;3,5
567,906;3,52
568,152;3,54
568,398;3,56
568,644;3,57
568,89;3,58
569,136;3,6
569,382;3,61
569,628;3,62
569,874;3,63
570,12;3,65
570,366;3,66
570,612;3,67
570,857;3,68
571,103;3,7
571,349;3,71
571,595;3,74
571,84;3,75
572,086;3,77
572,332;3,78
572,578;3,81
572,823;3,82
573,069;3,83
573,315;3,84
573,56;3,85
573,806;3,87
574,051;3,89
574,297;3,91
574,542;3,93
574,788;3,95
575,034;3,98
575,279;4
575,524;4,03
575,77;4,05
576,015;4,07
576,261;4,09
576,506;4,1
576,752;4,11
576,997;4,13
577,242;4,13
577,488;4,15
577,733;4,16
577,978;4,19
578,223;4,22
578,469;4,25
578,714;4,28
578,959;4,31
579,204;4,33
579,45;4,36
579,695;4,38
579,94;4,4
580,185;4,42
580,43;4,44
580,675;4,45
580,92;4,47
581,165;4,49
581,41;4,51
581,655;4,53
581,9;4,56
582,145;4,59
582,39;4,62
582,635;4,64
582,88;4,67
583,125;4,69
583,37;4,71
583,615;4,73
583,86;4,75
584,105;4,77
584,349;4,79
584,594;4,81
584,839;4,85
585,084;4,87
585,328;4,91
585,573;4,93
585,818;4,96
586,063;4,99
586,307;5,02
586,552;5,04
586,797;5,07
587,041;5,1
587,286;5,13
587,53;5,16
587,775;5,18
588,019;5,21
588,264;5,24
588,508;5,27
588,753;5,3
588,997;5,33
589,242;5,37
589,486;5,41
589,731;5,45
589,975;5,49
590,22;5,54
590,464;5,59
590,708;5,65
590,953;5,69
591,197;5,75
591,441;5,81
591,685;5,88
591,93;5,93
592,174;6
592,418;6,06
592,662;6,12
592,907;6,19
593,151;6,26
593,395;6,32
593,639;6,39
593,883;6,45
594,127;6,51
594,371;6,57
594,615;6,63
594,859;6,69
595,103;6,75
595,347;6,81
595,591;6,89
595,835;6,95
596,079;7,04
596,323;7,12
596,567;7,19
596,811;7,27
597,055;7,35
597,299;7,43
597,542;7,52
597,786;7,6
598,03;7,69
598,274;7,77
598,518;7,87
598,761;7,96
599,005;8,06
599,249;8,15
599,492;8,25
599,736;8,35
599,98;8,46
600,223;8,55
600,467;8,66
600,711;8,76
600,954;8,87
601,198;8,97
601,441;9,07
601,685;9,17
601,928;9,28
602,172;9,38
602,415;9,49
602,659;9,59
602,902;9,71
603,145;9,82
603,389;9,93
603,632;10,03
603,876;10,15
604,119;10,26
604,362;10,38
604,606;10,49
604,849;10,61
605,092;10,72
605,335;10,83
605,579;10,94
605,822;11,06
606,065;11,17
606,308;11,29
606,551;11,41
606,794;11,54
607,037;11,66
607,281;11,8
607,524;11,93
607,767;12,06
608,01;12,18
608,253;12,31
608,496;12,45
608,739;12,59
608,982;12,7
609,225;12,85
609,468;12,98
609,711;13,13
609,953;13,26
610,196;13,41
610,439;13,55
610,682;13,7
610,925;13,84
611,168;13,99
611,41;14,13
611,653;14,28
611,896;14,42
612,139;14,58
612,381;14,71
612,624;14,87
612,867;15,01
613,109;15,17
613,352;15,31
613,595;15,46
613,837;15,59
614,08;15,76
614,322;15,91
614,565;16,06
614,807;16,2
615,05;16,36
615,292;16,5
615,535;16,65
615,777;16,8
616,02;16,96
616,262;17,11
616,505;17,28
616,747;17,44
616,989;17,59
617,232;17,75
617,474;17,91
617,716;18,05
617,959;18,21
618,201;18,37
618,443;18,53
618,685;18,7
618,927;18,89
619,17;19,04
619,412;19,2
619,654;19,36
619,896;19,54
620,138;19,7
620,38;19,89
620,622;20,06
620,864;20,24
621,107;20,39
621,349;20,56
621,591;20,73
621,833;20,91
622,075;21,07
622,316;21,25
622,558;21,43
622,8;21,61
623,042;21,78
623,284;21,95
623,526;22,11
623,768;22,28
624,01;22,42
624,251;22,61
624,493;22,77
624,735;22,93
624,977;23,1
625,218;23,25
625,46;23,41
625,702;23,58
625,943;23,74
626,185;23,92
626,427;24,08
626,668;24,25
626,91;24,4
627,152;24,58
627,393;24,74
627,635;24,9
627,876;25,07
628,118;25,23
628,359;25,39
628,601;25,56
628,842;25,72
629,084;25,9
629,325;26,05
629,566;26,2
629,808;26,37
630,049;26,53
630,29;26,7
630,532;26,85
630,773;27
631,014;27,16
631,256;27,3
631,497;27,47
631,738;27,62
631,979;27,8
632,22;27,96
632,462;28,12
632,703;28,28
632,944;28,43
633,185;28,59
633,426;28,76
633,667;28,93
633,908;29,08
634,149;29,23
634,39;29,39
634,631;29,56
634,872;29,73
635,113;29,89
635,354;30,05
635,595;30,2
635,836;30,37
636,077;30,53
636,318;30,71
636,559;30,86
636,8;31,01
637,04;31,17
637,281;31,33
637,522;31,48
637,763;31,64
638,003;31,8
638,244;31,96
638,485;32,1
638,726;32,26
638,966;32,41
639,207;32,58
639,448;32,73
639,688;32,9
639,929;33,06
640,169;33,21
640,41;33,35
640,65;33,51
640,891;33,65
641,131;33,8
641,372;33,94
641,612;34,1
641,853;34,24
642,093;34,38
642,334;34,53
642,574;34,67
642,814;34,81
643,055;34,95
643,295;35,09
643,535;35,24
643,776;35,36
644,016;35,52
644,256;35,66
644,496;35,82
644,737;35,94
644,977;36,08
645,217;36,23
645,457;36,38
645,697;36,51
645,938;36,66
646,178;36,8
646,418;36,95
646,658;37,09
646,898;37,24
647,138;37,38
647,378;37,51
647,618;37,65
647,858;37,8
648,098;37,93
648,338;38,08
648,578;38,21
648,818;38,36
649,057;38,48
649,297;38,64
649,537;38,76
649,777;38,9
650,017;39,02
650,257;39,15
650,496;39,28
650,736;39,42
650,976;39,53
651,216;39,66
651,455;39,8
651,695;39,93
651,935;40,12
652,174;40,43
652,414;40,86
652,653;41,4
652,893;42,7
653,133;44,91
653,372;47,29
653,612;49,14
653,851;50,34
654,091;50,89
654,33;50,91
654,57;50,55
654,809;50,22
655,048;49,96
655,288;49,76
655,527;49,61
655,767;49,51
656,006;49,45
656,245;49,42
656,485;49,4
656,724;49,4
656,963;49,42
657,202;49,44
657,442;49,53
657,681;49,72
657,92;49,49
658,159;48,51
658,398;47,04
658,637;45,55
658,877;44,26
659,116;43,36
659,355;42,9
659,594;42,93
659,833;43,06
660,072;43,21
660,311;43,4
660,55;43,59
660,789;43,75
661,028;43,94
661,267;44,13
661,506;44,3
661,744;44,46
661,983;44,59
662,222;44,74
662,461;44,84
662,7;44,96
662,939;45,08
663,177;45,18
663,416;45,29
663,655;45,41
663,894;45,52
664,132;45,63
664,371;45,75
664,61;45,85
664,848;45,95
665,087;46,05
665,326;46,14
665,564;46,24
665,803;46,36
666,041;46,45
666,28;46,54
666,518;46,65
666,757;46,75
666,995;46,85
667,234;46,93
667,472;47,04
667,711;47,15
667,949;47,23
668,187;47,35
668,426;47,45
668,664;47,53
668,902;47,63
669,141;47,73
669,379;47,8
669,617;47,91
669,856;48,01
670,094;48,1
670,332;48,2
670,57;48,3
670,808;48,37
671,046;48,47
671,285;48,56
671,523;48,62
671,761;48,72
671,999;48,81
672,237;48,89
672,475;48,98
672,713;49,05
672,951;49,14
673,189;49,21
673,427;49,29
673,665;49,38
673,903;49,46
674,141;49,54
674,379;49,64
674,617;49,72
674,854;49,8
675,092;49,87
675,33;49,95
675,568;50,04
675,806;50,15
676,043;50,23
676,281;50,32
676,519;50,41
676,756;50,48
676,994;50,56
677,232;50,66
677,469;50,75
677,707;50,84
677,945;50,93
678,182;51,02
678,42;51,11
678,657;51,2
678,895;51,3
679,132;51,38
679,37;51,44
679,607;51,51
679,845;51,58
680,082;51,69
680,32;51,77
680,557;51,84
680,794;51,89
681,032;51,97
681,269;52,04
681,507;52,14
681,744;52,22
681,981;52,3
682,218;52,36
682,456;52,44
682,693;52,52
682,93;52,61
683,167;52,67
683,404;52,75
683,642;52,82
683,879;52,88
684,116;52,97
684,353;53,05
684,59;53,13
684,827;53,19
685,064;53,27
685,301;53,32
685,538;53,39
685,775;53,47
686,012;53,53
686,249;53,6
686,486;53,66
686,723;53,72
686,96;53,81
687,197;53,88
687,433;53,94
687,67;53,99
687,907;54,05
688,144;54,13
688,381;54,19
688,617;54,23
688,854;54,28
689,091;54,35
689,327;54,4
689,564;54,47
689,801;54,53
690,037;54,59
690,274;54,66
690,511;54,73
690,747;54,78
690,984;54,85
691,22;54,89
691,457;54,95
691,693;55,03
691,93;55,08
692,166;55,16
692,403;55,24
692,639;55,29
692,876;55,35
693,112;55,41
693,348;55,46
693,585;55,54
693,821;55,63
694,057;55,68
694,294;55,75
694,53;55,79
694,766;55,86
695,002;55,93
695,239;55,98
695,475;56,03
695,711;56,09
695,947;56,13
696,183;56,21
696,419;56,25
696,656;56,31
696,892;56,35
697,128;56,39
697,364;56,43
697,6;56,49
697,836;56,54
698,072;56,61
698,308;56,68
698,544;56,74
698,78;56,79
699,016;56,85
699,251;56,9
699,487;56,99
699,723;57,04
699,959;57,12
700,195;57,19
700,431;57,27
700,666;57,32
700,902;57,4
701,138;57,46
701,374;57,53
701,609;57,57
701,845;57,65
702,081;57,72
702,316;57,79
702,552;57,86
702,788;57,91
703,023;57,94
703,259;57,99
703,494;58,03
703,73;58,07
703,965;58,13
704,201;58,2
704,436;58,26
704,672;58,33
704,907;58,38
705,143;58,44
705,378;58,49
705,613;58,55
705,849;58,58
706,084;58,63
706,319;58,69
706,555;58,77
706,79;58,77
707,025;58,82
707,26;58,85
707,496;58,89
707,731;58,97
707,966;59,04
708,201;59,09
708,436;59,14
708,671;59,2
708,907;59,23
709,142;59,26
709,377;59,29
709,612;59,35
709,847;59,38
710,082;59,43
710,317;59,46
710,552;59,51
710,787;59,57
711,022;59,63
711,257;59,68
711,492;59,69
711,726;59,77
711,961;59,83
712,196;59,89
712,431;59,93
712,666;59,95
712,901;59,97
713,135;60,01
713,37;60,07
713,605;60,14
713,839;60,22
714,074;60,27
714,309;60,33
714,543;60,36
714,778;60,41
715,013;60,48
715,247;60,54
715,482;60,57
715,716;60,62
715,951;60,68
716,185;60,71
716,42;60,8
716,654;60,84
716,889;60,86
717,123;60,9
717,358;60,97
717,592;61,04
717,827;61,11
718,061;61,14
718,295;61,2
718,53;61,24
718,764;61,27
718,998;61,31
719,232;61,36
719,467;61,43
719,701;61,48
719,935;61,5
720,169;61,55
720,403;61,59
720,638;61,66
720,872;61,71
721,106;61,77
721,34;61,79
721,574;61,83
721,808;61,9
722,042;61,96
722,276;61,99
722,51;62,02
722,744;62,06
722,978;62,14
723,212;62,18
723,446;62,21
723,68;62,26
723,914;62,31
724,147;62,33
724,381;62,36
724,615;62,39
724,849;62,43
725,083;62,49
725,316;62,54
725,55;62,56
725,784;62,6
726,018;62,66
726,251;62,71
726,485;62,79
726,719;62,8
726,952;62,84
727,186;62,89
727,419;62,95
727,653;63,02
727,887;63,05
728,12;63,09
728,354;63,13
728,587;63,18
728,821;63,21
729,054;63,27
729,287;63,28
729,521;63,34
729,754;63,39
729,988;63,41
730,221;63,45
730,454;63,5
730,688;63,55
730,921;63,56
731,154;63,59
731,387;63,6
731,621;63,66
731,854;63,71
732,087;63,74
732,32;63,77
732,553;63,79
732,787;63,84
733,02;63,87
733,253;63,92
733,486;63,94
733,719;63,99
733,952;64,03
734,185;64,11
734,418;64,14
734,651;64,17
734,884;64,2
735,117;64,25
735,35;64,28
735,583;64,32
735,816;64,36
736,049;64,42
736,281;64,46
736,514;64,52
736,747;64,53
736,98;64,56
737,213;64,61
737,445;64,63
737,678;64,65
737,911;64,7
738,144;64,72
738,376;64,76
738,609;64,79
738,842;64,81
739,074;64,83
739,307;64,85
739,539;64,87
739,772;64,93
740,004;64,96
740,237;64,99
740,469;65,01
740,702;65,04
740,934;65,06
741,167;65,07
741,399;65,1
741,632;65,16
741,864;65,19
742,096;65,23
742,329;65,26
742,561;65,31
742,793;65,31
743,026;65,37
743,258;65,4
743,49;65,44
743,723;65,47
743,955;65,53
744,187;65,56
744,419;65,62
744,651;65,65
744,883;65,69
745,115;65,73
745,348;65,76
745,58;65,78
745,812;65,81
746,044;65,86
746,276;65,89
746,508;65,9
746,74;65,94
746,972;65,98
747,204;66,04
747,436;66,05
747,667;66,11
747,899;66,14
748,131;66,18
748,363;66,22
748,595;66,22
748,827;66,25
749,058;66,26
749,29;66,33
749,522;66,37
749,754;66,39
749,985;66,42
750,217;66,47
750,449;66,5
750,68;66,54
750,912;66,59
751,144;66,63
751,375;66,64
751,607;66,67
751,838;66,69
752,07;66,7
752,301;66,74
752,533;66,76
752,764;66,77
752,996;66,8
753,227;66,83
753,459;66,9
753,69;66,93
753,921;66,97
754,153;66,97
754,384;67
754,615;67,04
754,847;67,05
755,078;67,08
755,309;67,12
755,54;67,12
755,772;67,1
756,003;67,13
756,234;67,18
756,465;67,22
756,696;67,26
756,927;67,3
757,159;67,31
757,39;67,35
757,621;67,42
757,852;67,44
758,083;67,47
758,314;67,48
758,545;67,52
758,776;67,57
759,007;67,6
759,238;67,62
759,469;67,64
759,699;67,71
759,93;67,75
760,161;67,78
760,392;67,84
760,623;67,89
760,854;67,92
761,084;67,97
761,315;68,02
761,546;68,03
761,776;68,07
762,007;68,12
762,238;68,15
762,468;68,16
762,699;68,2
762,93;68,25
763,16;68,3
763,391;68,32
763,621;68,33
763,852;68,36
764,083;68,39
764,313;68,43
764,543;68,42
764,774;68,45
765,004;68,47
765,235;68,51
765,465;68,54
765,696;68,55
765,926;68,58
766,156;68,6
766,387;68,65
766,617;68,69
766,847;68,7
767,077;68,73
767,308;68,77
767,538;68,81
767,768;68,81
767,998;68,85
768,228;68,89
768,459;68,91
768,689;68,97
768,919;69,01
769,149;69,06
769,379;69,11
769,609;69,15
769,839;69,18
770,069;69,22
770,299;69,26
770,529;69,29
770,759;69,32
770,989;69,35
771,219;69,38
771,449;69,4
771,678;69,42
771,908;69,48
772,138;69,51
772,368;69,53
772,598;69,57
772,827;69,61
773,057;69,65
773,287;69,71
773,517;69,72
773,746;69,75
773,976;69,76
774,206;69,76
774,435;69,78
774,665;69,81
774,894;69,81
775,124;69,87
775,354;69,89
775,583;69,92
775,813;69,95
776,042;69,95
776,272;70,01
776,501;70,05
776,73;70,08
776,96;70,12
777,189;70,14
777,419;70,14
777,648;70,13
777,877;70,12
778,107;70,14
778,336;70,19
778,565;70,21
778,794;70,24
779,024;70,29
779,253;70,3
779,482;70,32
779,711;70,37
779,94;70,37
780,17;70,39
780,399;70,41
780,628;70,43
780,857;70,46
781,086;70,46
781,315;70,46
781,544;70,45
781,773;70,46
782,002;70,5
782,231;70,58
782,46;70,61
782,689;70,65
782,918;70,65
783,147;70,67
783,375;70,7
783,604;70,72
783,833;70,74
784,062;70,77
784,291;70,81
784,519;70,81
784,748;70,86
784,977;70,91
785,206;70,93
785,434;70,95
785,663;70,98
785,892;71
786,12;71,06
786,349;71,11
786,577;71,13
786,806;71,16
787,034;71,16
787,263;71,2
787,492;71,23
787,72;71,27
787,948;71,28
788,177;71,29
788,405;71,32
788,634;71,34
788,862;71,38
789,09;71,41
789,319;71,42
789,547;71,43
789,775;71,41
790,004;71,43
790,232;71,45
790,46;71,45
790,688;71,51
790,917;71,53
791,145;71,58
791,373;71,61
791,601;71,61
791,829;71,62
792,057;71,63
792,286;71,64
792,514;71,67
792,742;71,7
792,97;71,71
793,198;71,73
793,426;71,76
793,654;71,78
793,882;71,78
794,109;71,83
794,337;71,85
794,565;71,93
794,793;71,96
795,021;72,01
795,249;72,07
795,477;72,07
795,704;72,09
795,932;72,07
796,16;72,14
796,388;72,18
796,615;72,21
796,843;72,23
797,071;72,25
797,298;72,26
797,526;72,26
797,754;72,29
797,981;72,33
798,209;72,31
798,436;72,28
798,664;72,32
798,891;72,32
799,119;72,39
799,346;72,37
799,574;72,37
799,801;72,41
800,029;72,4
800,256;72,43
800,483;72,41
800,711;72,42
800,938;72,41
801,165;72,44
801,393;72,47
801,62;72,47
801,847;72,5
802,074;72,48
802,302;72,52
802,529;72,56
802,756;72,58
802,983;72,63
803,21;72,67
803,437;72,71
803,665;72,71
803,892;72,67
804,119;72,71
804,346;72,74
804,573;72,72
804,8;72,74
805,027;72,74
805,254;72,79
805,481;72,79
805,708;72,79
805,934;72,78
806,161;72,8
806,388;72,85
806,615;72,87
806,842;72,94
807,069;72,95
807,295;72,96
807,522;72,97
807,749;72,96
807,976;72,99
808,202;72,97
808,429;73
808,656;73,03
808,882;73,02
809,109;73,07
809,335;73,08
809,562;73,1
809,789;73,12
810,015;73,13
810,242;73,18
810,468;73,21
810,695;73,21
810,921;73,21
811,147;73,21
811,374;73,26
811,6;73,24
811,827;73,21
812,053;73,23
812,279;73,21
812,506;73,25
812,732;73,26
812,958;73,31
813,185;73,34
813,411;73,33
813,637;73,36
813,863;73,34
814,089;73,35
814,315;73,4
814,542;73,41
814,768;73,41
814,994;73,42
815,22;73,4
815,446;73,46
815,672;73,47
815,898;73,5
816,124;73,49
816,35;73,47
816,576;73,53
816,802;73,55
817,028;73,59
817,254;73,61
817,48;73,65
817,705;73,66
817,931;73,65
818,157;73,74
818,383;73,75
818,609;73,78
818,834;73,84
819,06;73,8
819,286;73,8
819,512;73,85
819,737;73,84
819,963;73,86
820,189;73,86
820,414;73,86
820,64;73,86
820,865;73,9
821,091;73,95
821,316;73,96
821,542;73,94
821,767;73,94
821,993;73,95
822,218;73,92
822,444;73,92
822,669;73,96
822,895;73,92
823,12;73,94
823,345;73,91
823,571;73,89
823,796;73,94
824,021;73,99
824,247;73,98
824,472;74,02
824,697;74,07
824,922;74,05
825,147;74,06
825,373;74,07
825,598;74,08
825,823;74,05
826,048;74,07
826,273;74,1
826,498;74,13
826,723;74,14
826,948;74,18
827,173;74,16
827,398;74,17
827,623;74,17
827,848;74,17
828,073;74,2
828,298;74,23
828,523;74,21
828,748;74,16
828,973;74,18
829,197;74,2
829,422;74,17
829,647;74,19
829,872;74,24
830,097;74,28
830,321;74,27
830,546;74,3
830,771;74,33
830,995;74,34
831,22;74,33
831,445;74,33
831,669;74,33
831,894;74,38
832,118;74,39
832,343;74,39
832,567;74,4
832,792;74,39
833,016;74,37
833,241;74,39
833,465;74,41
833,69;74,45
833,914;74,39
834,139;74,42
834,363;74,4
834,587;74,4
834,812;74,42
835,036;74,45
835,26;74,46
835,485;74,43
835,709;74,41
835,933;74,4
836,157;74,45
836,381;74,44
836,606;74,43
836,83;74,38
837,054;74,37
837,278;74,42
837,502;74,43
837,726;74,43
837,95;74,39
838,174;74,4
838,398;74,36
838,622;74,41
838,846;74,42
839,07;74,44
839,294;74,43
839,518;74,42
839,742;74,37
839,966;74,37
840,189;74,36
840,413;74,39
840,637;74,43
840,861;74,41
841,085;74,43
841,308;74,48
841,532;74,5
841,756;74,55
841,979;74,48
842,203;74,53
842,427;74,54
842,65;74,56
842,874;74,6
843,098;74,6
843,321;74,6
843,545;74,63
843,768;74,64
843,992;74,65
844,215;74,64
844,439;74,7
844,662;74,73
844,886;74,75
845,109;74,75
845,332;74,74
845,556;74,72
845,779;74,72
846,002;74,64
846,226;74,63
846,449;74,63
846,672;74,72
846,895;74,7
847,119;74,7
847,342;74,73
847,565;74,76
847,788;74,79
848,011;74,81
848,234;74,81
848,457;74,82
848,681;74,81
848,904;74,79
849,127;74,75
849,35;74,79
849,573;74,84
849,796;74,89
850,019;74,87
850,241;74,9
850,464;74,95
850,687;74,99
850,91;75,04
851,133;75,05
851,356;75,04
851,579;75,05
851,801;75,04
852,024;75,04
852,247;75,05
852,47;75,08
852,692;75,03
852,915;75,03
853,138;75,02
853,36;75,09
853,583;75,09
853,806;75,13
854,028;75,12
854,251;75,07
854,473;75,06
854,696;75,11
854,918;75,11
855,141;75,06
855,363;75,12
855,586;75,07
855,808;75,03
856,031;74,95
856,253;74,93
856,475;75,01
856,698;74,98
856,92;74,91
857,142;74,89
857,365;74,96
857,587;74,93
857,809;74,97
858,031;74,93
858,253;75,01
858,476;74,95
858,698;74,95
858,92;74,98
859,142;74,94
859,364;74,89
859,586;74,87
859,808;74,88
860,03;74,85
860,252;74,89
860,474;74,94
860,696;75
860,918;75,01
861,14;74,98
861,362;74,99
861,584;75,02
861,806;75,01
862,028;75,02
862,25;75,06
862,471;75,08
862,693;75,12
862,915;75,03
863,137;75,12
863,358;75,12
863,58;75,06
863,802;75,07
864,024;75,07
864,245;75,1
864,467;75,14
864,688;75,14
864,91;75,14
865,132;75,13
865,353;75,11
865,575;75,17
865,796;75,18
866,018;75,16
866,239;75,17
866,461;75,18
866,682;75,13
866,903;75,13
867,125;75,09
867,346;75,05
867,567;75,1
867,789;75,06
868,01;75,05
868,231;75,05
868,453;75,04
868,674;75,08
868,895;75,09
869,116;75,02
869,337;75,03
869,559;75,03
869,78;75,06
870,001;75,11
870,222;75,09
870,443;75,04
870,664;75,06
870,885;75,06
871,106;75,11
871,327;75,16
871,548;75,14
871,769;75,15
871,99;75,14
872,211;75,12
872,432;75,09
872,653;75,1
872,874;75,16
873,094;75,25
873,315;75,21
873,536;75,16
873,757;75,18
873,978;75,16
874,198;75,13
874,419;75,07
874,64;75,05
874,86;75,05
875,081;75,08
875,302;75,05
875,522;75,03
875,743;75,01
875,963;74,99
876,184;74,95
876,404;74,93
876,625;74,88
876,845;74,89
877,066;74,95
877,286;74,95
877,507;74,92
877,727;74,89
877,947;74,9
878,168;74,99
878,388;75,04
878,609;74,99
878,829;75,06
879,049;75,06
879,269;75,11
879,49;75,05
879,71;75,07
879,93;75,08
880,15;75,09
880,37;75,06
880,59;75,08
880,811;75,12
881,031;75,17
881,251;75,22
881,471;75,19
881,691;75,18
881,911;75,16
882,131;75,19
882,351;75,13
882,571;75,13
882,791;75,04
883,011;75,02
883,23;75,1
883,45;75,05
883,67;75,04
883,89;74,99
884,11;75,04
884,33;75,03
884,549;75,07
884,769;75,11
884,989;75,15
885,209;75,15
885,428;75,21
885,648;75,16
885,868;75,2
886,087;75,24
886,307;75,28
886,526;75,3
886,746;75,29
886,965;75,32
887,185;75,36
887,404;75,37
887,624;75,38
887,843;75,32
888,063;75,38
888,282;75,45
888,502;75,45
888,721;75,43
888,94;75,51
889,16;75,52
889,379;75,48
889,598;75,51
889,818;75,45
890,037;75,37
890,256;75,42
890,475;75,38
890,694;75,39
890,914;75,4
891,133;75,44
891,352;75,41
891,571;75,4
891,79;75,39
892,009;75,44
892,228;75,33
892,447;75,4
892,666;75,33
892,885;75,3
893,104;75,34
893,323;75,39
893,542;75,34
893,761;75,33
893,98;75,35
894,199;75,3
894,417;75,38
894,636;75,36
894,855;75,34
895,074;75,33
895,293;75,33
895,511;75,31
895,73;75,26
895,949;75,28
896,167;75,29
896,386;75,31
896,605;75,35
896,823;75,47
897,042;75,49
897,26;75,51
897,479;75,51
897,697;75,44
897,916;75,4
898,134;75,33
898,353;75,35
898,571;75,37
898,79;75,29
899,008;75,29
899,227;75,28
899,445;75,28
899,663;75,26
899,882;75,24
900,1;75,26
900,318;75,32
900,536;75,37
900,755;75,39
900,973;75,41
901,191;75,3
901,409;75,35
901,627;75,28
901,846;75,36
902,064;75,31
902,282;75,35
902,5;75,37
902,718;75,5
902,936;75,53
903,154;75,54
903,372;75,68
903,59;75,68
903,808;75,73
904,026;75,74
904,244;75,83
904,462;75,84
904,679;75,84
904,897;75,88
905,115;75,88
905,333;75,84
905,551;75,86
905,768;75,94
905,986;75,96
906,204;76
906,422;75,94
906,639;76,06
906,857;76,1
907,074;76,08
907,292;75,95
907,51;75,93
907,727;75,92
907,945;75,83
908,162;75,87
908,38;75,92
908,597;75,94
908,815;75,86
909,032;75,91
909,25;75,79
909,467;75,72
909,684;75,73
909,902;75,79
910,119;75,8
910,337;75,83
910,554;75,77
910,771;75,69
910,988;75,72
911,206;75,63
911,423;75,61
911,64;75,59
911,857;75,67
912,074;75,6
912,291;75,53
912,509;75,48
912,726;75,37
912,943;75,33
913,16;75,31
913,377;75,33
913,594;75,23
913,811;75,27
914,028;75,31
914,245;75,31
914,462;75,3
914,679;75,28
914,896;75,29
915,112;75,27
915,329;75,32
915,546;75,31
915,763;75,38
915,98;75,42
916,196;75,49
916,413;75,51
916,63;75,56
916,847;75,58
917,063;75,69
917,28;75,71
917,497;75,77
917,713;75,78
917,93;75,76
918,146;75,79
918,363;75,86
918,579;75,88
918,796;75,9
919,012;75,83
919,229;75,79
919,445;75,75
919,662;75,82
919,878;75,87
920,095;75,88
920,311;75,81
920,527;75,78
920,744;75,83
920,96;75,85
921,176;75,86
921,392;75,89
921,609;75,9
921,825;75,95
922,041;75,94
922,257;75,96
922,473;76,01
922,69;76,08
922,906;76,08
923,122;76,02
923,338;76,04
923,554;76,1
923,77;76,18
923,986;76,15
924,202;76,09
924,418;76,09
924,634;76,16
924,85;76,28
925,066;76,33
925,282;76,16
925,497;76,16
925,713;76,23
925,929;76,32
926,145;76,32
926,361;76,35
926,576;76,4
926,792;76,37
927,008;76,39
927,224;76,32
927,439;76,32
927,655;76,31
927,871;76,24
928,086;76,25
928,302;76,26
928,517;76,4
928,733;76,46
928,948;76,49
929,164;76,43
929,379;76,4
929,595;76,4
929,81;76,5
930,026;76,52
930,241;76,54
930,456;76,51
930,672;76,45
930,887;76,42
931,102;76,34
931,318;76,27
931,533;76,28
931,748;76,37
931,964;76,39
932,179;76,37
932,394;76,41
932,609;76,32
932,824;76,22
933,039;76,13
933,255;76,06
933,47;76,08
933,685;76,03
933,9;76,01
934,115;76,04
934,33;76,01
934,545;75,93
934,76;75,87
934,975;75,79
935,19;75,83
935,404;75,78
935,619;75,83
935,834;75,99
936,049;76,01
936,264;76
936,479;75,93
936,693;75,96
936,908;76,08
937,123;76,24
937,338;76,38
937,552;76,4
937,767;76,32
937,982;76,36
938,196;76,53
938,411;76,68
938,625;76,54
938,84;76,53
939,055;76,57
939,269;76,74
939,484;76,99
939,698;77,09
939,912;77,31
940,127;77,33
940,341;77,29
940,556;77,54
940,77;77,61
940,984;77,7
941,199;77,65
941,413;77,46
941,627;77,76
941,842;77,66
942,056;77,77
942,27;78,01
942,484;77,78
942,699;77,93
942,913;77,7
943,127;77,77
943,341;78,23
943,555;78,43
943,769;78,23
943,983;78,18
944,197;78,07
944,411;77,94
944,625;78,05
944,839;77,94
945,053;77,48
945,267;77,48
945,481;77,64
945,695;78,03
945,909;78,22
946,123;77,73
946,336;77,63
946,55;77,27
946,764;77,59
946,978;77,53
947,192;77,55
947,405;77,73
947,619;77,98
947,833;77,85
948,046;77,66
948,26;77,41
948,474;77,35
948,687;77,43
948,901;77,49
949,114;77,17
949,328;77,45
949,541;77,32
949,755;77,18
949,968;76,95
950,182;76,95
950,395;76,71
950,609;76,91
950,822;77,19
951,035;77,26
951,249;77,37
951,462;77,37
951,675;77,37
951,889;77,15
952,102;76,99
952,315;77,08
952,528;77,34
952,741;77,52
952,955;77,57
953,168;77,65
953,381;77,86
953,594;78,06
953,807;77,87
954,02;78,26
954,233;78,28
954,446;78,61
954,659;78,36
954,872;78,54
955,085;78,55
955,298;78,28
955,511;78,42
955,724;78,18
955,937;78,31
956,15;78,28
956,362;78,24
956,575;78,44
956,788;78,29
957,001;77,94
957,214;78,1
957,426;77,97
957,639;78,02
957,852;77,76
958,064;77,82
958,277;78,06
958,49;77,93
958,702;78,01
958,915;77,76
959,127;78,11
959,34;78
959,552;78,19
959,765;78,46
959,977;78,42
960,19;78,43
960,402;78,42
960,615;78,22
960,827;78,29
961,039;78,01
961,252;78,22
961,464;78,09
961,676;77,86
961,889;78,1
962,101;77,91
962,313;77,97
962,525;77,9
962,738;77,52
962,95;77,49
963,162;77,61
963,374;77,6
963,586;77,4
963,798;77,33
964,01;77,03
964,222;76,87
964,434;76,85
964,646;76,84
964,858;76,79
965,07;77
965,282;77,06
965,494;77,17
965,706;77,11
965,918;77,38
966,13;77,56
966,342;77,49
966,553;77,54
966,765;77,52
966,977;77,71
967,189;77,91
967,401;77,87
967,612;77,82
967,824;78,02
968,036;78,33
968,247;78,47
968,459;78,63
968,67;78,47
968,882;78,28
969,094;78,36
969,305;78,31
969,517;78,09
969,728;78,24
969,94;78,21
970,151;78,25
970,362;78,28
970,574;78,17
970,785;77,96
970,997;77,95
971,208;78,13
971,419;78,03
971,631;78,17
971,842;78,24
972,053;78,34
972,264;78,42
972,476;78,17
972,687;78,07
972,898;78,14
973,109;78,68
973,32;78,75
973,531;78,62
973,742;78,64
973,954;78,78
974,165;78,87
974,376;78,91
974,587;78,75
974,798;78,59
975,009;78,84
975,22;79,09
975,43;79,39
975,641;79,45
975,852;79,5
976,063;79,43
976,274;79,53
976,485;79,18
976,695;79,05
976,906;78,92
977,117;78,83
977,328;78,89
977,538;78,39
977,749;78,66
977,96;78,68
978,17;79,11
978,381;79,2
978,592;79,02
978,802;78,99
979,013;78,88
979,223;78,99
979,434;79,16
979,644;79,28
979,855;79,25
980,065;79,13
980,276;79,14
980,486;79,3
980,696;79,27
980,907;79,57
981,117;79,67
981,327;79,99
981,538;80,08
981,748;79,97
981,958;80,11
982,169;80,2
982,379;80,17
982,589;79,97
982,799;80,04
983,009;80,12
983,219;80,54
983,43;80,6
983,64;80,87
983,85;80,87
984,06;80,93
984,27;80,8
984,48;81,01
984,69;80,96
984,9;80,78
985,11;80,61
985,32;80,52
985,529;80,15
985,739;79,96
985,949;80
986,159;79,93
986,369;79,93
986,579;79,71
986,788;80,01
986,998;80,03
987,208;79,57
987,417;79,71
987,627;79,49
987,837;79,7
988,046;79,51
988,256;79,03
988,466;78,36
988,675;78,58
988,885;78,6
989,094;78,51
989,304;78,49
989,513;78,54
989,723;78,32
989,932;78,6
990,142;78,63
990,351;78,73
990,56;79,11
990,77;78,85
990,979;78,76
991,188;78,39
991,398;78,24
991,607;78,62
991,816;78,4
992,025;78,34
992,235;78,32
992,444;78,22
992,653;78,45
992,862;78,84
993,071;78,87
993,28;78,31
993,489;78,54
993,698;78,35
993,908;78,48
994,117;78,59
994,326;78,49
994,534;78,43
994,743;78,62
994,952;78,59
995,161;78,95
995,37;79,51
995,579;80,05
995,788;80,14
995,997;79,79
996,205;79,62
996,414;79,82
996,623;79,72
996,832;79,88
997,04;79,68
997,249;79,58
997,458;79,18
997,666;79,92
997,875;79,56
998,084;79,81
998,292;79,99
998,501;80,38
998,709;80,33
998,918;80,38
999,126;80,45
999,335;80,68
999,543;80,84
999,752;80,31
999,96;80,13
1000,169;80,35
1000,377;80,92
1000,585;81,42
1000,794;81,49
1001,002;81,69
1001,21;82
1001,418;82,11
1001,627;82,34
1001,835;82,89
1002,043;82,57
1002,251;83,04
1002,459;83,38
1002,668;83,28
1002,876;83,12
1003,084;83,46
1003,292;83,36
1003,5;83,21
1003,708;83,2
1003,916;82,74
1004,124;82,92
1004,332;83,31
1004,54;83,14
1004,748;82,74
1004,956;82,41
1005,163;81,84
1005,371;81,86
1005,579;81,16
1005,787;81,02
1005,995;81,08
1006,202;81,13
1006,41;81,07
1006,618;80,69
1006,826;80,49
1007,033;80,23
1007,241;80,42
1007,449;80,65
1007,656;80,49
1007,864;80,66
1008,071;80,47
1008,279;80,62
1008,486;80,89
1008,694;80,29
1008,901;79,89
1009,109;80,28
1009,316;80,58
1009,524;81,3
1009,731;81,3
1009,938;81,72
1010,146;82,1
1010,353;82,44
1010,56;82,25
1010,768;82,06
1010,975;82,66
1011,182;82,92
1011,389;83,17
1011,597;82,6
1011,804;82,6
1012,011;82,72
1012,218;82,56
1012,425;81,8
1012,632;82,67
1012,839;82
1013,046;81,74
1013,253;82,05
1013,46;82,25
1013,667;81,7
1013,874;81,25
1014,081;81,94
1014,288;81,47
1014,495;81,51
1014,702;81,47
1014,909;81,04
1015,116;81,3
1015,323;81,19
1015,529;81,23
1015,736;81,12
1015,943;81,98
1016,15;81,98
1016,356;82,87
1016,563;82,85
1016,77;82,87
1016,976;82,85
1017,183;83,6
1017,389;83,76
1017,596;83,53
1017,803;83,07
1018,009;83,53
1018,216;83,61
1018,422;83,47
1018,629;83,7
1018,835;83,61
1019,041;83,98
1019,248;84,29
1019,454;84,33
1019,661;84,64
1019,867;83,84
1020,073;83,77
1020,279;83,78
1020,486;83,22
1020,692;82,9
1020,898;82,78
1021,104;83,19
1021,311;82,58
1021,517;82,91
1021,723;83,95
1021,929;84,12
1022,135;84,49
1022,341;84,46
1022,547;84,53
1022,753;83,18
1022,959;83,44
1023,165;83,5
1023,371;82,81
1023,577;83,04
1023,783;82,58
1023,989;82,47
1024,195;82,58
1024,401;82,6
1024,607;82,66
1024,812;83,45
1025,018;83,19
1025,224;83,35
1025,43;83,92
1025,635;84,35
1025,841;84,47
1026,047;83,33
1026,252;83,79
1026,458;83,58
1026,664;84,27
1026,869;84,37
1027,075;85,71
1027,28;86,88
1027,486;86,28
1027,691;86,57
1027,897;86,19
1028,102;87,09
1028,308;86,41
1028,513;86,8
1028,719;87,1
1028,924;86,52
1029,129;85,87
1029,335;86,1
1029,54;85,73
1029,745;86,05
1029,95;86
1030,156;85,37
1030,361;85,86
1030,566;86,06
1030,771;85,57
1030,976;85,17
1031,182;85,05
1031,387;84,57
1031,592;84,26
1031,797;85,53
1032,002;85,04
1032,207;84,81
1032,412;84,01
1032,617;84,6
1032,822;84,45
1033,027;84,67
1033,232;84,9
1033,437;85,71
1033,642;85,39
1033,846;85,63
1034,051;84,36
1034,256;84,63
1034,461;83,48
1034,666;83,01
1034,87;83,07
1035,075;83,74
1035,28;82,93
1035,484;82,33
1035,689;84,39
1035,894;83,23
1036,098;82,74
1036,303;83,4
1036,507;83,27
1036,712;84,52
1036,917;84,84
1037,121;84,15
1037,325;83,89
1037,53;84,04
1037,734;83,43
1037,939;83,7
1038,143;84,49
1038,348;84,28
1038,552;84,06
1038,756;86,42
1038,961;86,76
1039,165;87,05
1039,369;87,29
1039,573;87,77
1039,778;88,58
1039,982;87,25
1040,186;89,77
1040,39;90,2
1040,594;88,94
1040,798;89,97
1041,002;88,22
1041,206;87,58
1041,41;89,63
1041,614;89,67
1041,818;88,64
1042,022;88,73
1042,226;89,35
1042,43;88,12
1042,634;89,65
1042,838;88,75
1043,042;88,99
1043,246;89,43
1043,45;89,96
1043,653;89,95
1043,857;90,42
1044,061;89,98
1044,265;88,53
1044,468;86,2
1044,672;85,98
1044,876;86,26
1045,079;86,33
1045,283;87,7
1045,487;87,02
1045,69;86,16
1045,894;85,91
1046,097;87,23
1046,301;85,82
1046,504;86,09
1046,708;86,44
1046,911;87,79
1047,115;87,75
1047,318;87,16
1047,522;87,81
1047,725;85,13
1047,928;84,72
1048,132;86,14
1048,335;86,98
1048,538;89,15
1048,741;89,44
1048,945;88,9
1049,148;89,45
1049,351;87,86
1049,554;86,86
1049,757;88,18
1049,96;87,03
1050,163;85,78
1050,367;83,02
1050,57;85,57
1050,773;86,26
1050,976;84,99
1051,179;83,11
1051,382;83,13
1051,585;83,67
1051,787;81,54
1051,99;83,43
1052,193;82,61
1052,396;83,33
1052,599;82,19
1052,802;77,43
1053,005;77,07
1053,207;79,47
1053,41;79,01
1053,613;80,74
1053,815;81,61
1054,018;80,26
1054,221;80,94
1054,423;83
1054,626;85,45
1054,829;83,99
1055,031;81,14
1055,234;83,48
1055,436;83,03
1055,639;83,91
1055,841;80,98
1056,044;83,03
1056,246;82,03
