Data from CoccinigliaWhite_Reflection__3__49.txt Node;
"Date: Fri Sep 12 11:39:08 CEST 2025 User: sycur Spectrometer: SR400348 Trigger mode: 0 Integration Time (sec): 2,000000E-2 Scans to average: 20 Electric dark correction enabled: true Nonlinearity correction enabled: false Boxcar width: 10 XAxis mode: Wavelengths Number of Pixels in Spectrum: 3648 >>>>>Begin Spectral Data<<<<<";
186,01;35,99
186,281;-4072,06
186,552;111,63
186,822;44,88
187,093;118,18
187,364;-135,57
187,635;15258,51
187,905;119,41
188,176;54,9
188,447;39,82
188,717;32,43
188,988;31,66
189,258;25,78
189,529;28,48
189,8;29,36
190,07;26,98
190,341;29,64
190,611;26,43
190,882;23,67
191,152;23,99
191,423;22,01
191,693;21,29
191,964;21,75
192,234;21,92
192,505;20,04
192,775;20,31
193,045;18,95
193,316;17,94
193,586;17,05
193,856;16,48
194,127;16,22
194,397;15,98
194,667;16,36
194,938;16,39
195,208;15,39
195,478;14,78
195,748;14,41
196,019;13,16
196,289;13,65
196,559;13,39
196,829;12,93
197,099;13,18
197,37;13,1
197,64;13,03
197,91;12,74
198,18;12,83
198,45;12,25
198,72;12,49
198,99;12,27
199,26;11,98
199,53;11,85
199,8;12,11
200,07;12,06
200,34;11,89
200,61;11,89
200,88;12,11
201,15;11,81
201,42;11,8
201,69;11,85
201,96;11,72
202,23;11,5
202,499;11,41
202,769;11,23
203,039;10,98
203,309;10,59
203,579;10,4
203,849;10,38
204,118;10,12
204,388;9,68
204,658;9,63
204,927;9,44
205,197;9,29
205,467;8,93
205,736;8,69
206,006;8,38
206,276;8,14
206,545;7,91
206,815;8,01
207,085;7,88
207,354;7,73
207,624;7,67
207,893;7,63
208,163;7,55
208,432;7,4
208,702;7,33
208,971;7,46
209,241;7,34
209,51;7,3
209,78;7,34
210,049;7,4
210,318;7,29
210,588;7,33
210,857;7,28
211,127;7,25
211,396;7,29
211,665;7,18
211,935;7,23
212,204;7,13
212,473;7,02
212,742;7,04
213,012;7,07
213,281;6,96
213,55;6,92
213,819;6,88
214,088;6,84
214,358;6,74
214,627;6,58
214,896;6,52
215,165;6,39
215,434;6,32
215,703;6,17
215,972;6,16
216,241;6,08
216,51;6,05
216,779;5,95
217,048;5,91
217,317;5,89
217,586;5,78
217,855;5,77
218,124;5,68
218,393;5,57
218,662;5,51
218,931;5,47
219,2;5,37
219,469;5,3
219,738;5,25
220,006;5,25
220,275;5,27
220,544;5,25
220,813;5,23
221,082;5,19
221,35;5,18
221,619;5,13
221,888;5,12
222,157;5,09
222,425;5,09
222,694;5,02
222,963;5,03
223,231;5,02
223,5;5,02
223,769;5,01
224,037;4,98
224,306;4,94
224,574;4,94
224,843;4,94
225,111;4,94
225,38;4,9
225,648;4,88
225,917;4,84
226,185;4,83
226,454;4,81
226,722;4,79
226,991;4,78
227,259;4,76
227,528;4,73
227,796;4,72
228,064;4,71
228,333;4,72
228,601;4,7
228,869;4,69
229,138;4,65
229,406;4,65
229,674;4,66
229,942;4,67
230,211;4,66
230,479;4,65
230,747;4,62
231,015;4,64
231,283;4,63
231,552;4,63
231,82;4,61
232,088;4,6
232,356;4,62
232,624;4,6
232,892;4,6
233,16;4,59
233,428;4,58
233,696;4,58
233,964;4,58
234,232;4,57
234,5;4,57
234,768;4,56
235,036;4,55
235,304;4,53
235,572;4,5
235,84;4,51
236,108;4,52
236,376;4,52
236,644;4,51
236,912;4,5
237,179;4,49
237,447;4,49
237,715;4,46
237,983;4,45
238,251;4,43
238,518;4,41
238,786;4,41
239,054;4,4
239,322;4,39
239,589;4,38
239,857;4,38
240,125;4,37
240,392;4,37
240,66;4,36
240,927;4,35
241,195;4,34
241,463;4,32
241,73;4,3
241,998;4,28
242,265;4,27
242,533;4,26
242,8;4,26
243,068;4,25
243,335;4,25
243,603;4,24
243,87;4,24
244,138;4,23
244,405;4,22
244,672;4,2
244,94;4,18
245,207;4,16
245,474;4,14
245,742;4,13
246,009;4,11
246,276;4,1
246,544;4,1
246,811;4,1
247,078;4,09
247,345;4,09
247,613;4,08
247,88;4,07
248,147;4,06
248,414;4,05
248,681;4,04
248,948;4,04
249,215;4,04
249,483;4,03
249,75;4,01
250,017;4
250,284;4
250,551;4
250,818;4
251,085;3,99
251,352;3,99
251,619;3,98
251,886;3,97
252,153;3,96
252,42;3,96
252,687;3,94
252,953;3,93
253,22;3,94
253,487;3,93
253,754;3,93
254,021;3,92
254,288;3,91
254,555;3,9
254,821;3,88
255,088;3,89
255,355;3,89
255,622;3,9
255,888;3,88
256,155;3,88
256,422;3,88
256,688;3,88
256,955;3,86
257,222;3,85
257,488;3,85
257,755;3,84
258,022;3,84
258,288;3,84
258,555;3,82
258,821;3,81
259,088;3,81
259,354;3,8
259,621;3,79
259,887;3,79
260,154;3,78
260,42;3,77
260,687;3,76
260,953;3,77
261,219;3,74
261,486;3,74
261,752;3,73
262,019;3,73
262,285;3,72
262,551;3,71
262,818;3,71
263,084;3,7
263,35;3,7
263,616;3,69
263,883;3,68
264,149;3,68
264,415;3,66
264,681;3,66
264,947;3,66
265,214;3,65
265,48;3,64
265,746;3,65
266,012;3,64
266,278;3,63
266,544;3,62
266,81;3,63
267,076;3,61
267,342;3,61
267,608;3,6
267,874;3,6
268,14;3,6
268,406;3,59
268,672;3,6
268,938;3,6
269,204;3,59
269,47;3,58
269,736;3,58
270,002;3,58
270,268;3,57
270,533;3,56
270,799;3,57
271,065;3,56
271,331;3,56
271,597;3,56
271,862;3,56
272,128;3,56
272,394;3,55
272,66;3,55
272,925;3,54
273,191;3,54
273,457;3,54
273,722;3,55
273,988;3,54
274,254;3,51
274,519;3,51
274,785;3,5
275,05;3,51
275,316;3,5
275,582;3,5
275,847;3,5
276,113;3,49
276,378;3,49
276,644;3,48
276,909;3,47
277,174;3,46
277,44;3,45
277,705;3,46
277,971;3,47
278,236;3,46
278,501;3,45
278,767;3,45
279,032;3,43
279,297;3,43
279,563;3,43
279,828;3,44
280,093;3,45
280,358;3,44
280,624;3,44
280,889;3,44
281,154;3,44
281,419;3,43
281,684;3,42
281,95;3,42
282,215;3,42
282,48;3,43
282,745;3,44
283,01;3,43
283,275;3,42
283,54;3,42
283,805;3,42
284,07;3,42
284,335;3,43
284,6;3,43
284,865;3,43
285,13;3,43
285,395;3,43
285,66;3,43
285,925;3,44
286,19;3,44
286,455;3,45
286,72;3,45
286,985;3,46
287,249;3,47
287,514;3,46
287,779;3,48
288,044;3,47
288,309;3,47
288,573;3,47
288,838;3,48
289,103;3,48
289,367;3,48
289,632;3,48
289,897;3,47
290,161;3,47
290,426;3,47
290,691;3,47
290,955;3,47
291,22;3,46
291,484;3,45
291,749;3,46
292,014;3,46
292,278;3,46
292,543;3,46
292,807;3,46
293,072;3,46
293,336;3,46
293,6;3,45
293,865;3,44
294,129;3,44
294,394;3,45
294,658;3,45
294,922;3,44
295,187;3,45
295,451;3,45
295,715;3,45
295,98;3,45
296,244;3,44
296,508;3,44
296,773;3,43
297,037;3,44
297,301;3,44
297,565;3,43
297,829;3,43
298,094;3,43
298,358;3,43
298,622;3,42
298,886;3,42
299,15;3,43
299,414;3,42
299,678;3,43
299,942;3,42
300,206;3,41
300,47;3,41
300,734;3,4
300,998;3,4
301,262;3,4
301,526;3,4
301,79;3,38
302,054;3,38
302,318;3,38
302,582;3,38
302,846;3,37
303,11;3,37
303,374;3,36
303,637;3,35
303,901;3,35
304,165;3,34
304,429;3,35
304,693;3,34
304,956;3,34
305,22;3,33
305,484;3,32
305,747;3,32
306,011;3,32
306,275;3,31
306,538;3,31
306,802;3,31
307,066;3,31
307,329;3,31
307,593;3,32
307,856;3,32
308,12;3,32
308,384;3,31
308,647;3,29
308,911;3,28
309,174;3,28
309,438;3,27
309,701;3,27
309,964;3,25
310,228;3,24
310,491;3,23
310,755;3,23
311,018;3,23
311,281;3,23
311,545;3,21
311,808;3,21
312,071;3,2
312,335;3,18
312,598;3,19
312,861;3,17
313,124;3,15
313,388;3,13
313,651;3,13
313,914;3,12
314,177;3,12
314,44;3,12
314,704;3,12
314,967;3,11
315,23;3,11
315,493;3,11
315,756;3,11
316,019;3,11
316,282;3,1
316,545;3,1
316,808;3,1
317,071;3,11
317,334;3,1
317,597;3,1
317,86;3,1
318,123;3,08
318,386;3,09
318,649;3,09
318,912;3,09
319,175;3,09
319,437;3,09
319,7;3,1
319,963;3,09
320,226;3,08
320,489;3,07
320,751;3,07
321,014;3,07
321,277;3,06
321,54;3,06
321,802;3,07
322,065;3,06
322,328;3,05
322,59;3,04
322,853;3,04
323,116;3,05
323,378;3,05
323,641;3,05
323,903;3,05
324,166;3,05
324,428;3,05
324,691;3,04
324,953;3,02
325,216;3,01
325,478;3,01
325,741;3,02
326,003;3,01
326,266;3
326,528;3,01
326,791;3
327,053;3
327,315;2,98
327,578;2,97
327,84;2,97
328,102;2,98
328,365;2,97
328,627;2,97
328,889;2,96
329,151;2,96
329,414;2,95
329,676;2,94
329,938;2,92
330,2;2,92
330,462;2,93
330,725;2,92
330,987;2,91
331,249;2,9
331,511;2,9
331,773;2,9
332,035;2,9
332,297;2,89
332,559;2,89
332,821;2,88
333,083;2,89
333,345;2,88
333,607;2,88
333,869;2,87
334,131;2,86
334,393;2,87
334,655;2,85
334,917;2,85
335,179;2,85
335,44;2,86
335,702;2,85
335,964;2,85
336,226;2,85
336,488;2,85
336,749;2,85
337,011;2,86
337,273;2,86
337,535;2,86
337,796;2,84
338,058;2,85
338,32;2,85
338,581;2,84
338,843;2,83
339,105;2,84
339,366;2,84
339,628;2,84
339,889;2,84
340,151;2,84
340,412;2,85
340,674;2,84
340,935;2,85
341,197;2,85
341,458;2,85
341,72;2,84
341,981;2,83
342,243;2,83
342,504;2,82
342,766;2,82
343,027;2,81
343,288;2,82
343,55;2,81
343,811;2,81
344,072;2,81
344,334;2,81
344,595;2,79
344,856;2,8
345,117;2,78
345,379;2,79
345,64;2,78
345,901;2,77
346,162;2,77
346,423;2,76
346,684;2,74
346,946;2,75
347,207;2,75
347,468;2,75
347,729;2,75
347,99;2,75
348,251;2,73
348,512;2,72
348,773;2,73
349,034;2,73
349,295;2,72
349,556;2,72
349,817;2,73
350,078;2,72
350,339;2,74
350,6;2,74
350,86;2,74
351,121;2,75
351,382;2,73
351,643;2,72
351,904;2,74
352,165;2,75
352,425;2,75
352,686;2,75
352,947;2,74
353,208;2,75
353,468;2,76
353,729;2,77
353,99;2,76
354,25;2,75
354,511;2,74
354,772;2,74
355,032;2,74
355,293;2,72
355,553;2,72
355,814;2,69
356,074;2,7
356,335;2,68
356,596;2,67
356,856;2,68
357,116;2,69
357,377;2,68
357,637;2,67
357,898;2,67
358,158;2,67
358,419;2,66
358,679;2,66
358,939;2,67
359,2;2,67
359,46;2,69
359,72;2,68
359,981;2,7
360,241;2,68
360,501;2,67
360,761;2,67
361,022;2,67
361,282;2,68
361,542;2,67
361,802;2,66
362,062;2,65
362,323;2,64
362,583;2,64
362,843;2,63
363,103;2,63
363,363;2,62
363,623;2,61
363,883;2,61
364,143;2,62
364,403;2,6
364,663;2,59
364,923;2,57
365,183;2,58
365,443;2,58
365,703;2,6
365,963;2,61
366,223;2,61
366,483;2,61
366,743;2,62
367,002;2,63
367,262;2,64
367,522;2,66
367,782;2,65
368,042;2,65
368,301;2,66
368,561;2,65
368,821;2,66
369,081;2,65
369,34;2,64
369,6;2,63
369,86;2,63
370,119;2,63
370,379;2,63
370,638;2,64
370,898;2,62
371,158;2,62
371,417;2,62
371,677;2,62
371,936;2,61
372,196;2,62
372,455;2,61
372,715;2,61
372,974;2,61
373,234;2,62
373,493;2,63
373,753;2,63
374,012;2,64
374,271;2,65
374,531;2,66
374,79;2,69
375,049;2,68
375,309;2,67
375,568;2,68
375,827;2,67
376,086;2,67
376,346;2,68
376,605;2,69
376,864;2,69
377,123;2,69
377,383;2,7
377,642;2,69
377,901;2,69
378,16;2,68
378,419;2,67
378,678;2,67
378,937;2,65
379,196;2,64
379,455;2,63
379,714;2,63
379,973;2,6
380,232;2,61
380,491;2,61
380,75;2,63
381,009;2,63
381,268;2,62
381,527;2,61
381,786;2,61
382,045;2,59
382,304;2,59
382,563;2,58
382,821;2,57
383,08;2,57
383,339;2,56
383,598;2,57
383,857;2,57
384,115;2,57
384,374;2,59
384,633;2,6
384,891;2,6
385,15;2,6
385,409;2,63
385,667;2,61
385,926;2,61
386,185;2,6
386,443;2,6
386,702;2,6
386,96;2,6
387,219;2,6
387,477;2,62
387,736;2,61
387,994;2,6
388,253;2,62
388,511;2,63
388,77;2,63
389,028;2,64
389,287;2,65
389,545;2,65
389,803;2,62
390,062;2,63
390,32;2,63
390,578;2,63
390,837;2,63
391,095;2,63
391,353;2,64
391,612;2,65
391,87;2,63
392,128;2,63
392,386;2,64
392,644;2,64
392,903;2,64
393,161;2,62
393,419;2,63
393,677;2,63
393,935;2,61
394,193;2,62
394,451;2,62
394,709;2,61
394,967;2,62
395,225;2,62
395,483;2,61
395,741;2,62
395,999;2,62
396,257;2,61
396,515;2,59
396,773;2,59
397,031;2,58
397,289;2,61
397,547;2,6
397,805;2,58
398,062;2,59
398,32;2,59
398,578;2,59
398,836;2,6
399,094;2,6
399,351;2,61
399,609;2,59
399,867;2,58
400,124;2,58
400,382;2,58
400,64;2,6
400,897;2,61
401,155;2,61
401,413;2,63
401,67;2,62
401,928;2,65
402,185;2,65
402,443;2,66
402,701;2,63
402,958;2,63
403,216;2,64
403,473;2,63
403,73;2,65
403,988;2,65
404,245;2,65
404,503;2,66
404,76;2,66
405,018;2,68
405,275;2,68
405,532;2,69
405,79;2,67
406,047;2,66
406,304;2,66
406,561;2,66
406,819;2,65
407,076;2,67
407,333;2,65
407,59;2,63
407,848;2,65
408,105;2,67
408,362;2,68
408,619;2,68
408,876;2,67
409,133;2,66
409,39;2,65
409,647;2,63
409,904;2,62
410,161;2,62
410,418;2,62
410,675;2,63
410,932;2,63
411,189;2,63
411,446;2,63
411,703;2,62
411,96;2,62
412,217;2,62
412,474;2,61
412,731;2,62
412,988;2,63
413,245;2,62
413,501;2,59
413,758;2,58
414,015;2,57
414,272;2,58
414,529;2,58
414,785;2,59
415,042;2,62
415,299;2,6
415,555;2,59
415,812;2,58
416,069;2,57
416,325;2,57
416,582;2,59
416,838;2,58
417,095;2,55
417,352;2,52
417,608;2,52
417,865;2,53
418,121;2,53
418,378;2,52
418,634;2,52
418,891;2,55
419,147;2,55
419,403;2,55
419,66;2,54
419,916;2,54
420,173;2,54
420,429;2,52
420,685;2,54
420,942;2,55
421,198;2,55
421,454;2,54
421,711;2,55
421,967;2,53
422,223;2,52
422,479;2,54
422,735;2,54
422,992;2,53
423,248;2,52
423,504;2,5
423,76;2,51
424,016;2,5
424,272;2,52
424,528;2,53
424,784;2,56
425,041;2,56
425,297;2,54
425,553;2,54
425,809;2,53
426,065;2,53
426,32;2,53
426,576;2,52
426,832;2,54
427,088;2,51
427,344;2,51
427,6;2,53
427,856;2,53
428,112;2,55
428,368;2,55
428,623;2,55
428,879;2,56
429,135;2,55
429,391;2,54
429,646;2,53
429,902;2,51
430,158;2,5
430,414;2,5
430,669;2,53
430,925;2,5
431,181;2,51
431,436;2,51
431,692;2,49
431,947;2,5
432,203;2,5
432,458;2,51
432,714;2,51
432,97;2,5
433,225;2,5
433,481;2,49
433,736;2,5
433,991;2,5
434,247;2,49
434,502;2,48
434,758;2,47
435,013;2,48
435,268;2,49
435,524;2,49
435,779;2,5
436,034;2,49
436,29;2,51
436,545;2,49
436,8;2,5
437,056;2,5
437,311;2,49
437,566;2,48
437,821;2,48
438,076;2,48
438,331;2,47
438,587;2,45
438,842;2,46
439,097;2,44
439,352;2,46
439,607;2,46
439,862;2,47
440,117;2,47
440,372;2,46
440,627;2,44
440,882;2,43
441,137;2,42
441,392;2,41
441,647;2,41
441,902;2,42
442,157;2,4
442,412;2,42
442,667;2,43
442,921;2,45
443,176;2,45
443,431;2,45
443,686;2,45
443,941;2,46
444,195;2,46
444,45;2,47
444,705;2,46
444,96;2,44
445,214;2,43
445,469;2,45
445,724;2,44
445,978;2,44
446,233;2,45
446,487;2,44
446,742;2,43
446,997;2,41
447,251;2,41
447,506;2,44
447,76;2,42
448,015;2,41
448,269;2,4
448,524;2,39
448,778;2,38
449,033;2,38
449,287;2,38
449,541;2,37
449,796;2,37
450,05;2,37
450,305;2,37
450,559;2,36
450,813;2,35
451,067;2,37
451,322;2,37
451,576;2,36
451,83;2,37
452,084;2,37
452,339;2,37
452,593;2,36
452,847;2,35
453,101;2,36
453,355;2,35
453,609;2,34
453,864;2,34
454,118;2,33
454,372;2,33
454,626;2,33
454,88;2,33
455,134;2,33
455,388;2,34
455,642;2,35
455,896;2,36
456,15;2,36
456,404;2,35
456,658;2,36
456,912;2,36
457,165;2,37
457,419;2,38
457,673;2,39
457,927;2,41
458,181;2,41
458,435;2,39
458,688;2,41
458,942;2,42
459,196;2,42
459,45;2,43
459,703;2,45
459,957;2,44
460,211;2,44
460,464;2,44
460,718;2,42
460,972;2,45
461,225;2,43
461,479;2,45
461,732;2,45
461,986;2,43
462,239;2,44
462,493;2,42
462,746;2,43
463;2,41
463,253;2,4
463,507;2,41
463,76;2,42
464,014;2,42
464,267;2,4
464,52;2,41
464,774;2,41
465,027;2,4
465,28;2,41
465,534;2,41
465,787;2,42
466,04;2,42
466,294;2,39
466,547;2,41
466,8;2,41
467,053;2,41
467,306;2,41
467,56;2,4
467,813;2,4
468,066;2,39
468,319;2,4
468,572;2,4
468,825;2,4
469,078;2,39
469,331;2,39
469,584;2,4
469,837;2,4
470,09;2,4
470,343;2,4
470,596;2,38
470,849;2,38
471,102;2,38
471,355;2,37
471,608;2,37
471,861;2,36
472,114;2,35
472,367;2,33
472,619;2,33
472,872;2,32
473,125;2,31
473,378;2,3
473,631;2,31
473,883;2,31
474,136;2,32
474,389;2,32
474,641;2,31
474,894;2,3
475,147;2,31
475,399;2,3
475,652;2,3
475,905;2,32
476,157;2,31
476,41;2,31
476,662;2,32
476,915;2,31
477,167;2,31
477,42;2,32
477,672;2,34
477,925;2,34
478,177;2,36
478,43;2,37
478,682;2,37
478,934;2,36
479,187;2,36
479,439;2,36
479,691;2,36
479,944;2,38
480,196;2,38
480,448;2,39
480,701;2,39
480,953;2,4
481,205;2,39
481,457;2,39
481,709;2,4
481,962;2,41
482,214;2,42
482,466;2,43
482,718;2,44
482,97;2,45
483,222;2,46
483,474;2,48
483,726;2,49
483,978;2,5
484,23;2,5
484,482;2,51
484,734;2,51
484,986;2,5
485,238;2,5
485,49;2,5
485,742;2,5
485,994;2,5
486,246;2,5
486,498;2,51
486,75;2,51
487,001;2,5
487,253;2,5
487,505;2,5
487,757;2,5
488,009;2,51
488,26;2,5
488,512;2,49
488,764;2,48
489,015;2,46
489,267;2,45
489,519;2,45
489,77;2,43
490,022;2,42
490,274;2,42
490,525;2,43
490,777;2,42
491,028;2,42
491,28;2,42
491,531;2,41
491,783;2,41
492,034;2,41
492,286;2,42
492,537;2,41
492,789;2,41
493,04;2,41
493,291;2,4
493,543;2,4
493,794;2,39
494,045;2,39
494,297;2,39
494,548;2,39
494,799;2,39
495,051;2,4
495,302;2,4
495,553;2,41
495,804;2,41
496,056;2,42
496,307;2,41
496,558;2,42
496,809;2,43
497,06;2,43
497,311;2,43
497,562;2,44
497,813;2,45
498,064;2,44
498,316;2,43
498,567;2,43
498,818;2,43
499,069;2,43
499,319;2,43
499,57;2,44
499,821;2,43
500,072;2,44
500,323;2,44
500,574;2,44
500,825;2,43
501,076;2,43
501,327;2,42
501,577;2,42
501,828;2,42
502,079;2,41
502,33;2,4
502,58;2,41
502,831;2,4
503,082;2,4
503,333;2,4
503,583;2,4
503,834;2,4
504,084;2,4
504,335;2,41
504,586;2,42
504,836;2,4
505,087;2,41
505,337;2,39
505,588;2,39
505,838;2,39
506,089;2,4
506,339;2,41
506,59;2,42
506,84;2,42
507,091;2,42
507,341;2,42
507,591;2,42
507,842;2,42
508,092;2,42
508,343;2,42
508,593;2,42
508,843;2,43
509,093;2,43
509,344;2,43
509,594;2,42
509,844;2,42
510,094;2,42
510,345;2,43
510,595;2,44
510,845;2,44
511,095;2,44
511,345;2,44
511,595;2,44
511,845;2,44
512,095;2,44
512,345;2,46
512,595;2,46
512,845;2,46
513,095;2,47
513,345;2,47
513,595;2,48
513,845;2,48
514,095;2,48
514,345;2,48
514,595;2,47
514,845;2,47
515,095;2,46
515,345;2,46
515,594;2,47
515,844;2,47
516,094;2,47
516,344;2,47
516,593;2,46
516,843;2,46
517,093;2,45
517,343;2,46
517,592;2,46
517,842;2,46
518,092;2,46
518,341;2,45
518,591;2,45
518,84;2,45
519,09;2,45
519,34;2,46
519,589;2,47
519,839;2,48
520,088;2,49
520,338;2,49
520,587;2,5
520,836;2,49
521,086;2,49
521,335;2,49
521,585;2,5
521,834;2,52
522,083;2,52
522,333;2,53
522,582;2,53
522,831;2,52
523,081;2,52
523,33;2,52
523,579;2,53
523,828;2,53
524,078;2,54
524,327;2,54
524,576;2,54
524,825;2,54
525,074;2,54
525,323;2,53
525,573;2,54
525,822;2,54
526,071;2,54
526,32;2,55
526,569;2,55
526,818;2,56
527,067;2,55
527,316;2,55
527,565;2,56
527,814;2,56
528,063;2,56
528,312;2,57
528,56;2,57
528,809;2,57
529,058;2,57
529,307;2,56
529,556;2,56
529,805;2,56
530,053;2,56
530,302;2,56
530,551;2,58
530,8;2,58
531,048;2,58
531,297;2,58
531,546;2,58
531,794;2,58
532,043;2,58
532,292;2,58
532,54;2,59
532,789;2,58
533,037;2,59
533,286;2,59
533,535;2,6
533,783;2,59
534,032;2,59
534,28;2,59
534,528;2,6
534,777;2,61
535,025;2,61
535,274;2,61
535,522;2,61
535,771;2,61
536,019;2,61
536,267;2,61
536,516;2,61
536,764;2,61
537,012;2,6
537,26;2,62
537,509;2,62
537,757;2,61
538,005;2,61
538,253;2,61
538,501;2,61
538,75;2,6
538,998;2,6
539,246;2,61
539,494;2,6
539,742;2,6
539,99;2,6
540,238;2,6
540,486;2,6
540,734;2,6
540,982;2,59
541,23;2,59
541,478;2,59
541,726;2,59
541,974;2,59
542,222;2,59
542,47;2,58
542,718;2,59
542,966;2,59
543,213;2,58
543,461;2,57
543,709;2,57
543,957;2,58
544,205;2,58
544,452;2,58
544,7;2,58
544,948;2,58
545,196;2,58
545,443;2,58
545,691;2,58
545,939;2,58
546,186;2,57
546,434;2,59
546,681;2,58
546,929;2,59
547,176;2,59
547,424;2,6
547,671;2,59
547,919;2,59
548,166;2,6
548,414;2,6
548,661;2,61
548,909;2,6
549,156;2,6
549,404;2,6
549,651;2,61
549,898;2,61
550,146;2,62
550,393;2,63
550,64;2,63
550,888;2,63
551,135;2,64
551,382;2,64
551,629;2,63
551,876;2,64
552,124;2,64
552,371;2,64
552,618;2,63
552,865;2,64
553,112;2,63
553,359;2,63
553,606;2,64
553,854;2,64
554,101;2,65
554,348;2,65
554,595;2,64
554,842;2,63
555,089;2,63
555,336;2,63
555,582;2,62
555,829;2,63
556,076;2,62
556,323;2,63
556,57;2,63
556,817;2,63
557,064;2,63
557,311;2,63
557,557;2,63
557,804;2,63
558,051;2,63
558,298;2,64
558,544;2,64
558,791;2,64
559,038;2,64
559,284;2,63
559,531;2,64
559,778;2,65
560,024;2,65
560,271;2,66
560,517;2,66
560,764;2,66
561,011;2,67
561,257;2,68
561,504;2,67
561,75;2,68
561,997;2,69
562,243;2,69
562,489;2,7
562,736;2,71
562,982;2,71
563,229;2,71
563,475;2,71
563,721;2,71
563,968;2,72
564,214;2,73
564,46;2,74
564,707;2,75
564,953;2,75
565,199;2,76
565,445;2,77
565,691;2,78
565,938;2,78
566,184;2,8
566,43;2,8
566,676;2,81
566,922;2,82
567,168;2,83
567,414;2,84
567,66;2,85
567,906;2,85
568,152;2,87
568,398;2,88
568,644;2,9
568,89;2,91
569,136;2,92
569,382;2,93
569,628;2,95
569,874;2,95
570,12;2,97
570,366;2,97
570,612;2,98
570,857;2,99
571,103;3
571,349;3,01
571,595;3,02
571,84;3,03
572,086;3,04
572,332;3,05
572,578;3,05
572,823;3,06
573,069;3,07
573,315;3,08
573,56;3,09
573,806;3,09
574,051;3,11
574,297;3,12
574,542;3,12
574,788;3,14
575,034;3,16
575,279;3,16
575,524;3,18
575,77;3,19
576,015;3,21
576,261;3,22
576,506;3,22
576,752;3,22
576,997;3,23
577,242;3,23
577,488;3,24
577,733;3,24
577,978;3,25
578,223;3,26
578,469;3,28
578,714;3,29
578,959;3,3
579,204;3,31
579,45;3,32
579,695;3,33
579,94;3,33
580,185;3,33
580,43;3,34
580,675;3,34
580,92;3,34
581,165;3,35
581,41;3,35
581,655;3,36
581,9;3,37
582,145;3,38
582,39;3,39
582,635;3,39
582,88;3,41
583,125;3,41
583,37;3,42
583,615;3,42
583,86;3,42
584,105;3,42
584,349;3,43
584,594;3,43
584,839;3,45
585,084;3,45
585,328;3,46
585,573;3,47
585,818;3,47
586,063;3,48
586,307;3,49
586,552;3,51
586,797;3,52
587,041;3,53
587,286;3,54
587,53;3,55
587,775;3,56
588,019;3,58
588,264;3,61
588,508;3,63
588,753;3,64
588,997;3,66
589,242;3,68
589,486;3,69
589,731;3,72
589,975;3,74
590,22;3,77
590,464;3,81
590,708;3,85
590,953;3,88
591,197;3,92
591,441;3,96
591,685;4
591,93;4,04
592,174;4,09
592,418;4,12
592,662;4,18
592,907;4,23
593,151;4,28
593,395;4,32
593,639;4,37
593,883;4,42
594,127;4,49
594,371;4,53
594,615;4,6
594,859;4,66
595,103;4,72
595,347;4,78
595,591;4,84
595,835;4,91
596,079;4,99
596,323;5,06
596,567;5,14
596,811;5,23
597,055;5,32
597,299;5,4
597,542;5,5
597,786;5,59
598,03;5,69
598,274;5,78
598,518;5,9
598,761;6
599,005;6,1
599,249;6,2
599,492;6,32
599,736;6,43
599,98;6,55
600,223;6,67
600,467;6,8
600,711;6,91
600,954;7,04
601,198;7,16
601,441;7,29
601,685;7,41
601,928;7,54
602,172;7,67
602,415;7,8
602,659;7,92
602,902;8,07
603,145;8,2
603,389;8,34
603,632;8,48
603,876;8,62
604,119;8,76
604,362;8,92
604,606;9,07
604,849;9,23
605,092;9,36
605,335;9,51
605,579;9,66
605,822;9,81
606,065;9,95
606,308;10,12
606,551;10,27
606,794;10,44
607,037;10,59
607,281;10,76
607,524;10,94
607,767;11,1
608,01;11,26
608,253;11,43
608,496;11,6
608,739;11,77
608,982;11,94
609,225;12,13
609,468;12,29
609,711;12,46
609,953;12,63
610,196;12,82
610,439;12,99
610,682;13,17
610,925;13,35
611,168;13,54
611,41;13,7
611,653;13,89
611,896;14,07
612,139;14,26
612,381;14,44
612,624;14,63
612,867;14,81
613,109;15,01
613,352;15,19
613,595;15,36
613,837;15,53
614,08;15,73
614,322;15,91
614,565;16,11
614,807;16,29
615,05;16,47
615,292;16,65
615,535;16,85
615,777;17,03
616,02;17,22
616,262;17,41
616,505;17,61
616,747;17,79
616,989;17,99
617,232;18,18
617,474;18,37
617,716;18,55
617,959;18,75
618,201;18,94
618,443;19,14
618,685;19,34
618,927;19,55
619,17;19,74
619,412;19,94
619,654;20,13
619,896;20,33
620,138;20,54
620,38;20,75
620,622;20,93
620,864;21,15
621,107;21,34
621,349;21,53
621,591;21,72
621,833;21,94
622,075;22,12
622,316;22,32
622,558;22,51
622,8;22,7
623,042;22,88
623,284;23,08
623,526;23,26
623,768;23,45
624,01;23,62
624,251;23,81
624,493;24
624,735;24,17
624,977;24,34
625,218;24,52
625,46;24,69
625,702;24,89
625,943;25,06
626,185;25,26
626,427;25,44
626,668;25,62
626,91;25,79
627,152;25,98
627,393;26,15
627,635;26,33
627,876;26,52
628,118;26,69
628,359;26,87
628,601;27,05
628,842;27,22
629,084;27,4
629,325;27,58
629,566;27,76
629,808;27,95
630,049;28,11
630,29;28,29
630,532;28,47
630,773;28,63
631,014;28,82
631,256;28,97
631,497;29,15
631,738;29,32
631,979;29,49
632,22;29,67
632,462;29,85
632,703;30,02
632,944;30,19
633,185;30,36
633,426;30,54
633,667;30,73
633,908;30,89
634,149;31,07
634,39;31,24
634,631;31,4
634,872;31,57
635,113;31,75
635,354;31,92
635,595;32,08
635,836;32,26
636,077;32,4
636,318;32,58
636,559;32,74
636,8;32,91
637,04;33,07
637,281;33,25
637,522;33,42
637,763;33,59
638,003;33,76
638,244;33,93
638,485;34,09
638,726;34,25
638,966;34,42
639,207;34,59
639,448;34,75
639,688;34,91
639,929;35,08
640,169;35,25
640,41;35,39
640,65;35,56
640,891;35,71
641,131;35,88
641,372;36,04
641,612;36,2
641,853;36,37
642,093;36,53
642,334;36,67
642,574;36,83
642,814;36,96
643,055;37,11
643,295;37,25
643,535;37,41
643,776;37,54
644,016;37,7
644,256;37,83
644,496;37,99
644,737;38,13
644,977;38,28
645,217;38,44
645,457;38,58
645,697;38,72
645,938;38,87
646,178;39,02
646,418;39,17
646,658;39,31
646,898;39,44
647,138;39,58
647,378;39,74
647,618;39,86
647,858;40,02
648,098;40,16
648,338;40,31
648,578;40,44
648,818;40,59
649,057;40,73
649,297;40,88
649,537;41,01
649,777;41,15
650,017;41,27
650,257;41,39
650,496;41,53
650,736;41,65
650,976;41,8
651,216;41,92
651,455;42,06
651,695;42,19
651,935;42,38
652,174;42,67
652,414;43,07
652,653;43,55
652,893;44,8
653,133;47,04
653,372;49,43
653,612;51,3
653,851;52,52
654,091;53,07
654,33;53,06
654,57;52,67
654,809;52,32
655,048;52,03
655,288;51,8
655,527;51,63
655,767;51,52
656,006;51,44
656,245;51,4
656,485;51,38
656,724;51,39
656,963;51,41
657,202;51,43
657,442;51,53
657,681;51,74
657,92;51,54
658,159;50,54
658,398;49,06
658,637;47,55
658,877;46,24
659,116;45,33
659,355;44,9
659,594;44,97
659,833;45,14
660,072;45,35
660,311;45,59
660,55;45,82
660,789;46,05
661,028;46,28
661,267;46,5
661,506;46,69
661,744;46,85
661,983;46,99
662,222;47,14
662,461;47,26
662,7;47,39
662,939;47,5
663,177;47,62
663,416;47,72
663,655;47,85
663,894;47,97
664,132;48,08
664,371;48,2
664,61;48,32
664,848;48,42
665,087;48,53
665,326;48,65
665,564;48,76
665,803;48,88
666,041;48,99
666,28;49,08
666,518;49,19
666,757;49,29
666,995;49,4
667,234;49,49
667,472;49,6
667,711;49,71
667,949;49,81
668,187;49,92
668,426;50,04
668,664;50,13
668,902;50,2
669,141;50,32
669,379;50,41
669,617;50,51
669,856;50,6
670,094;50,7
670,332;50,78
670,57;50,87
670,808;50,94
671,046;51,02
671,285;51,13
671,523;51,2
671,761;51,3
671,999;51,36
672,237;51,45
672,475;51,56
672,713;51,64
672,951;51,72
673,189;51,79
673,427;51,87
673,665;51,93
673,903;52,04
674,141;52,13
674,379;52,22
674,617;52,3
674,854;52,39
675,092;52,47
675,33;52,57
675,568;52,64
675,806;52,73
676,043;52,83
676,281;52,91
676,519;53
676,756;53,08
676,994;53,19
677,232;53,28
677,469;53,37
677,707;53,45
677,945;53,55
678,182;53,63
678,42;53,72
678,657;53,82
678,895;53,88
679,132;53,96
679,37;54,03
679,607;54,11
679,845;54,18
680,082;54,27
680,32;54,35
680,557;54,44
680,794;54,51
681,032;54,61
681,269;54,69
681,507;54,8
681,744;54,89
681,981;54,97
682,218;55,04
682,456;55,1
682,693;55,2
682,93;55,26
683,167;55,34
683,404;55,4
683,642;55,49
683,879;55,58
684,116;55,66
684,353;55,75
684,59;55,82
684,827;55,87
685,064;55,95
685,301;56,02
685,538;56,1
685,775;56,17
686,012;56,22
686,249;56,3
686,486;56,35
686,723;56,42
686,96;56,51
687,197;56,59
687,433;56,67
687,67;56,72
687,907;56,81
688,144;56,9
688,381;56,98
688,617;57,05
688,854;57,1
689,091;57,17
689,327;57,24
689,564;57,3
689,801;57,39
690,037;57,45
690,274;57,52
690,511;57,59
690,747;57,67
690,984;57,75
691,22;57,79
691,457;57,86
691,693;57,92
691,93;57,97
692,166;58,03
692,403;58,09
692,639;58,14
692,876;58,2
693,112;58,26
693,348;58,31
693,585;58,4
693,821;58,48
694,057;58,56
694,294;58,64
694,53;58,71
694,766;58,77
695,002;58,85
695,239;58,92
695,475;58,98
695,711;59,03
695,947;59,06
696,183;59,16
696,419;59,22
696,656;59,27
696,892;59,32
697,128;59,37
697,364;59,44
697,6;59,53
697,836;59,59
698,072;59,67
698,308;59,76
698,544;59,82
698,78;59,86
699,016;59,91
699,251;59,97
699,487;60,06
699,723;60,14
699,959;60,21
700,195;60,27
700,431;60,34
700,666;60,42
700,902;60,51
701,138;60,57
701,374;60,65
701,609;60,72
701,845;60,82
702,081;60,89
702,316;60,98
702,552;61,05
702,788;61,13
703,023;61,18
703,259;61,23
703,494;61,29
703,73;61,35
703,965;61,42
704,201;61,5
704,436;61,53
704,672;61,58
704,907;61,62
705,143;61,68
705,378;61,72
705,613;61,78
705,849;61,84
706,084;61,88
706,319;61,92
706,555;61,97
706,79;62
707,025;62,06
707,26;62,08
707,496;62,12
707,731;62,15
707,966;62,21
708,201;62,29
708,436;62,33
708,671;62,39
708,907;62,42
709,142;62,46
709,377;62,53
709,612;62,6
709,847;62,67
710,082;62,72
710,317;62,77
710,552;62,83
710,787;62,86
711,022;62,92
711,257;62,99
711,492;63,03
711,726;63,1
711,961;63,14
712,196;63,2
712,431;63,25
712,666;63,29
712,901;63,31
713,135;63,33
713,37;63,37
713,605;63,42
713,839;63,48
714,074;63,53
714,309;63,59
714,543;63,64
714,778;63,7
715,013;63,76
715,247;63,81
715,482;63,88
715,716;63,95
715,951;64
716,185;64,05
716,42;64,12
716,654;64,16
716,889;64,2
717,123;64,24
717,358;64,3
717,592;64,39
717,827;64,48
718,061;64,56
718,295;64,62
718,53;64,68
718,764;64,73
718,998;64,79
719,232;64,83
719,467;64,89
719,701;64,93
719,935;64,99
720,169;65,02
720,403;65,04
720,638;65,08
720,872;65,12
721,106;65,16
721,34;65,22
721,574;65,27
721,808;65,35
722,042;65,42
722,276;65,47
722,51;65,49
722,744;65,51
722,978;65,57
723,212;65,63
723,446;65,66
723,68;65,71
723,914;65,76
724,147;65,79
724,381;65,82
724,615;65,87
724,849;65,91
725,083;65,98
725,316;66,05
725,55;66,1
725,784;66,18
726,018;66,26
726,251;66,31
726,485;66,35
726,719;66,36
726,952;66,41
727,186;66,47
727,419;66,54
727,653;66,62
727,887;66,63
728,12;66,68
728,354;66,73
728,587;66,78
728,821;66,8
729,054;66,87
729,287;66,9
729,521;66,92
729,754;66,95
729,988;66,98
730,221;67,01
730,454;67,06
730,688;67,08
730,921;67,09
731,154;67,12
731,387;67,16
731,621;67,23
731,854;67,27
732,087;67,29
732,32;67,32
732,553;67,34
732,787;67,4
733,02;67,43
733,253;67,49
733,486;67,51
733,719;67,56
733,952;67,61
734,185;67,66
734,418;67,7
734,651;67,75
734,884;67,8
735,117;67,86
735,35;67,91
735,583;67,96
735,816;68,01
736,049;68,06
736,281;68,11
736,514;68,15
736,747;68,17
736,98;68,2
737,213;68,25
737,445;68,29
737,678;68,3
737,911;68,34
738,144;68,37
738,376;68,43
738,609;68,48
738,842;68,49
739,074;68,54
739,307;68,6
739,539;68,65
739,772;68,68
740,004;68,71
740,237;68,73
740,469;68,78
740,702;68,82
740,934;68,84
741,167;68,87
741,399;68,9
741,632;68,98
741,864;69,06
742,096;69,11
742,329;69,15
742,561;69,21
742,793;69,25
743,026;69,32
743,258;69,35
743,49;69,39
743,723;69,44
743,955;69,47
744,187;69,5
744,419;69,55
744,651;69,59
744,883;69,63
745,115;69,68
745,348;69,68
745,58;69,72
745,812;69,78
746,044;69,83
746,276;69,89
746,508;69,91
746,74;69,94
746,972;69,98
747,204;70,03
747,436;70,06
747,667;70,09
747,899;70,11
748,131;70,17
748,363;70,21
748,595;70,23
748,827;70,28
749,058;70,31
749,29;70,37
749,522;70,42
749,754;70,45
749,985;70,46
750,217;70,52
750,449;70,56
750,68;70,61
750,912;70,63
751,144;70,67
751,375;70,69
751,607;70,73
751,838;70,77
752,07;70,82
752,301;70,86
752,533;70,92
752,764;70,94
752,996;70,96
753,227;70,99
753,459;71,06
753,69;71,11
753,921;71,16
754,153;71,18
754,384;71,22
754,615;71,26
754,847;71,31
755,078;71,38
755,309;71,38
755,54;71,36
755,772;71,36
756,003;71,39
756,234;71,43
756,465;71,45
756,696;71,48
756,927;71,52
757,159;71,54
757,39;71,59
757,621;71,64
757,852;71,68
758,083;71,72
758,314;71,74
758,545;71,76
758,776;71,78
759,007;71,81
759,238;71,84
759,469;71,88
759,699;71,95
759,93;71,96
760,161;72,05
760,392;72,14
760,623;72,21
760,854;72,24
761,084;72,27
761,315;72,34
761,546;72,39
761,776;72,41
762,007;72,46
762,238;72,49
762,468;72,5
762,699;72,54
762,93;72,61
763,16;72,66
763,391;72,68
763,621;72,71
763,852;72,75
764,083;72,8
764,313;72,84
764,543;72,84
764,774;72,88
765,004;72,88
765,235;72,92
765,465;72,96
765,696;73,02
765,926;73,07
766,156;73,07
766,387;73,12
766,617;73,17
766,847;73,22
767,077;73,26
767,308;73,33
767,538;73,39
767,768;73,4
767,998;73,45
768,228;73,5
768,459;73,59
768,689;73,63
768,919;73,67
769,149;73,71
769,379;73,78
769,609;73,82
769,839;73,88
770,069;73,94
770,299;73,96
770,529;73,99
770,759;74,05
770,989;74,09
771,219;74,1
771,449;74,14
771,678;74,14
771,908;74,19
772,138;74,2
772,368;74,23
772,598;74,26
772,827;74,28
773,057;74,33
773,287;74,37
773,517;74,41
773,746;74,44
773,976;74,48
774,206;74,47
774,435;74,51
774,665;74,55
774,894;74,56
775,124;74,62
775,354;74,64
775,583;74,68
775,813;74,73
776,042;74,75
776,272;74,81
776,501;74,87
776,73;74,93
776,96;74,96
777,189;74,96
777,419;75,01
777,648;75,06
777,877;75,04
778,107;75,03
778,336;75,12
778,565;75,12
778,794;75,15
779,024;75,2
779,253;75,21
779,482;75,23
779,711;75,27
779,94;75,29
780,17;75,32
780,399;75,32
780,628;75,35
780,857;75,39
781,086;75,38
781,315;75,37
781,544;75,38
781,773;75,43
782,002;75,49
782,231;75,52
782,46;75,52
782,689;75,59
782,918;75,63
783,147;75,61
783,375;75,64
783,604;75,67
783,833;75,7
784,062;75,74
784,291;75,78
784,519;75,79
784,748;75,82
784,977;75,86
785,206;75,93
785,434;75,98
785,663;76,03
785,892;76,07
786,12;76,14
786,349;76,2
786,577;76,22
786,806;76,26
787,034;76,28
787,263;76,34
787,492;76,34
787,72;76,35
787,948;76,39
788,177;76,41
788,405;76,44
788,634;76,46
788,862;76,5
789,09;76,52
789,319;76,57
789,547;76,6
789,775;76,62
790,004;76,59
790,232;76,6
790,46;76,6
790,688;76,66
790,917;76,66
791,145;76,66
791,373;76,71
791,601;76,71
791,829;76,72
792,057;76,74
792,286;76,79
792,514;76,86
792,742;76,87
792,97;76,89
793,198;76,9
793,426;76,93
793,654;76,96
793,882;76,97
794,109;76,99
794,337;77,05
794,565;77,1
794,793;77,15
795,021;77,18
795,249;77,25
795,477;77,24
795,704;77,3
795,932;77,35
796,16;77,4
796,388;77,47
796,615;77,5
796,843;77,57
797,071;77,6
797,298;77,63
797,526;77,67
797,754;77,73
797,981;77,78
798,209;77,79
798,436;77,79
798,664;77,86
798,891;77,87
799,119;77,89
799,346;77,88
799,574;77,91
799,801;77,95
800,029;77,94
800,256;78
800,483;78
800,711;78
800,938;77,99
801,165;78,01
801,393;78,07
801,62;78,05
801,847;78,08
802,074;78,08
802,302;78,14
802,529;78,18
802,756;78,23
802,983;78,3
803,21;78,35
803,437;78,38
803,665;78,41
803,892;78,42
804,119;78,49
804,346;78,5
804,573;78,51
804,8;78,54
805,027;78,53
805,254;78,58
805,481;78,59
805,708;78,63
805,934;78,62
806,161;78,63
806,388;78,64
806,615;78,65
806,842;78,66
807,069;78,66
807,295;78,69
807,522;78,69
807,749;78,66
807,976;78,7
808,202;78,68
808,429;78,69
808,656;78,73
808,882;78,72
809,109;78,76
809,335;78,77
809,562;78,8
809,789;78,82
810,015;78,83
810,242;78,9
810,468;78,87
810,695;78,9
810,921;78,92
811,147;78,97
811,374;79,03
811,6;79,05
811,827;79,07
812,053;79,07
812,279;79,1
812,506;79,1
812,732;79,08
812,958;79,15
813,185;79,21
813,411;79,2
813,637;79,26
813,863;79,24
814,089;79,28
814,315;79,28
814,542;79,32
814,768;79,35
814,994;79,34
815,22;79,37
815,446;79,4
815,672;79,42
815,898;79,41
816,124;79,38
816,35;79,39
816,576;79,4
816,802;79,43
817,028;79,47
817,254;79,51
817,48;79,56
817,705;79,56
817,931;79,55
818,157;79,6
818,383;79,6
818,609;79,64
818,834;79,66
819,06;79,71
819,286;79,67
819,512;79,69
819,737;79,68
819,963;79,7
820,189;79,71
820,414;79,7
820,64;79,72
820,865;79,76
821,091;79,79
821,316;79,81
821,542;79,8
821,767;79,82
821,993;79,88
822,218;79,87
822,444;79,9
822,669;79,92
822,895;79,92
823,12;79,91
823,345;79,94
823,571;79,96
823,796;79,99
824,021;80,09
824,247;80,09
824,472;80,14
824,697;80,18
824,922;80,2
825,147;80,26
825,373;80,3
825,598;80,33
825,823;80,31
826,048;80,36
826,273;80,38
826,498;80,39
826,723;80,37
826,948;80,37
827,173;80,35
827,398;80,34
827,623;80,36
827,848;80,39
828,073;80,37
828,298;80,41
828,523;80,4
828,748;80,36
828,973;80,39
829,197;80,41
829,422;80,41
829,647;80,45
829,872;80,43
830,097;80,41
830,321;80,41
830,546;80,5
830,771;80,52
830,995;80,54
831,22;80,53
831,445;80,56
831,669;80,59
831,894;80,61
832,118;80,65
832,343;80,65
832,567;80,69
832,792;80,71
833,016;80,69
833,241;80,71
833,465;80,73
833,69;80,75
833,914;80,74
834,139;80,81
834,363;80,79
834,587;80,83
834,812;80,89
835,036;80,93
835,26;80,92
835,485;80,9
835,709;80,91
835,933;80,94
836,157;80,98
836,381;81,01
836,606;81,03
836,83;81,04
837,054;81,06
837,278;81,06
837,502;81,07
837,726;81,06
837,95;81,05
838,174;81,08
838,398;81,08
838,622;81,07
838,846;81,08
839,07;81,1
839,294;81,13
839,518;81,11
839,742;81,12
839,966;81,15
840,189;81,2
840,413;81,21
840,637;81,25
840,861;81,26
841,085;81,25
841,308;81,28
841,532;81,3
841,756;81,36
841,979;81,34
842,203;81,41
842,427;81,47
842,65;81,53
842,874;81,58
843,098;81,61
843,321;81,67
843,545;81,65
843,768;81,66
843,992;81,67
844,215;81,69
844,439;81,71
844,662;81,71
844,886;81,68
845,109;81,69
845,332;81,7
845,556;81,68
845,779;81,72
846,002;81,67
846,226;81,62
846,449;81,61
846,672;81,66
846,895;81,64
847,119;81,64
847,342;81,64
847,565;81,64
847,788;81,64
848,011;81,63
848,234;81,66
848,457;81,68
848,681;81,65
848,904;81,62
849,127;81,58
849,35;81,64
849,573;81,72
849,796;81,73
850,019;81,71
850,241;81,75
850,464;81,82
850,687;81,89
850,91;81,94
851,133;82
851,356;82
851,579;82,03
851,801;81,99
852,024;82,02
852,247;81,99
852,47;81,99
852,692;82,02
852,915;82,04
853,138;82,02
853,36;82,08
853,583;82,09
853,806;82,15
854,028;82,08
854,251;82,05
854,473;82,04
854,696;82,06
854,918;82,06
855,141;82
855,363;82,02
855,586;82,03
855,808;82,03
856,031;82,04
856,253;82,01
856,475;82,08
856,698;82,07
856,92;82,04
857,142;82,09
857,365;82,12
857,587;82,09
857,809;82,16
858,031;82,16
858,253;82,2
858,476;82,16
858,698;82,21
858,92;82,23
859,142;82,27
859,364;82,27
859,586;82,29
859,808;82,36
860,03;82,31
860,252;82,34
860,474;82,31
860,696;82,3
860,918;82,3
861,14;82,28
861,362;82,26
861,584;82,27
861,806;82,24
862,028;82,24
862,25;82,29
862,471;82,31
862,693;82,26
862,915;82,26
863,137;82,3
863,358;82,3
863,58;82,29
863,802;82,28
864,024;82,25
864,245;82,27
864,467;82,24
864,688;82,3
864,91;82,32
865,132;82,31
865,353;82,35
865,575;82,4
865,796;82,46
866,018;82,43
866,239;82,52
866,461;82,54
866,682;82,48
866,903;82,46
867,125;82,4
867,346;82,51
867,567;82,53
867,789;82,53
868,01;82,52
868,231;82,53
868,453;82,57
868,674;82,63
868,895;82,61
869,116;82,64
869,337;82,65
869,559;82,65
869,78;82,63
870,001;82,59
870,222;82,62
870,443;82,6
870,664;82,72
870,885;82,67
871,106;82,76
871,327;82,8
871,548;82,81
871,769;82,91
871,99;82,86
872,211;82,87
872,432;82,86
872,653;82,93
872,874;82,97
873,094;83,04
873,315;83,05
873,536;83,02
873,757;82,95
873,978;82,93
874,198;82,96
874,419;83
874,64;83,03
874,86;83,01
875,081;83,02
875,302;82,98
875,522;83,05
875,743;82,98
875,963;83,03
876,184;82,99
876,404;82,92
876,625;82,9
876,845;82,96
877,066;82,95
877,286;82,93
877,507;82,94
877,727;82,9
877,947;82,87
878,168;82,98
878,388;83,04
878,609;82,98
878,829;82,95
879,049;82,96
879,269;82,94
879,49;82,89
879,71;82,88
879,93;82,88
880,15;82,84
880,37;82,85
880,59;82,81
880,811;82,85
881,031;82,89
881,251;82,93
881,471;82,88
881,691;82,94
881,911;82,93
882,131;82,87
882,351;82,82
882,571;82,81
882,791;82,7
883,011;82,68
883,23;82,8
883,45;82,84
883,67;82,9
883,89;82,94
884,11;83,01
884,33;83,01
884,549;83,03
884,769;83,11
884,989;83,1
885,209;83,09
885,428;83,1
885,648;83,05
885,868;83,02
886,087;83,04
886,307;83,01
886,526;82,98
886,746;83,05
886,965;83,1
887,185;83,13
887,404;83,18
887,624;83,2
887,843;83,13
888,063;83,14
888,282;83,14
888,502;83,12
888,721;83,09
888,94;83,14
889,16;83,15
889,379;83,08
889,598;83,13
889,818;83,12
890,037;83,09
890,256;83,16
890,475;83,19
890,694;83,22
890,914;83,26
891,133;83,35
891,352;83,34
891,571;83,33
891,79;83,37
892,009;83,41
892,228;83,3
892,447;83,4
892,666;83,37
892,885;83,31
893,104;83,39
893,323;83,46
893,542;83,44
893,761;83,39
893,98;83,36
894,199;83,36
894,417;83,49
894,636;83,53
894,855;83,57
895,074;83,56
895,293;83,56
895,511;83,58
895,73;83,63
895,949;83,63
896,167;83,6
896,386;83,57
896,605;83,58
896,823;83,73
897,042;83,71
897,26;83,75
897,479;83,84
897,697;83,76
897,916;83,77
898,134;83,71
898,353;83,77
898,571;83,89
898,79;83,86
899,008;83,81
899,227;83,75
899,445;83,72
899,663;83,77
899,882;83,71
900,1;83,73
900,318;83,71
900,536;83,77
900,755;83,85
900,973;83,88
901,191;83,84
901,409;83,86
901,627;83,82
901,846;83,8
902,064;83,73
902,282;83,77
902,5;83,77
902,718;83,89
902,936;83,94
903,154;83,89
903,372;83,98
903,59;84,05
903,808;84,13
904,026;84,17
904,244;84,17
904,462;84,28
904,679;84,31
904,897;84,28
905,115;84,27
905,333;84,28
905,551;84,32
905,768;84,32
905,986;84,31
906,204;84,3
906,422;84,34
906,639;84,38
906,857;84,41
907,074;84,4
907,292;84,34
907,51;84,35
907,727;84,45
907,945;84,46
908,162;84,48
908,38;84,51
908,597;84,5
908,815;84,47
909,032;84,54
909,25;84,45
909,467;84,51
909,684;84,53
909,902;84,58
910,119;84,55
910,337;84,6
910,554;84,65
910,771;84,66
910,988;84,68
911,206;84,68
911,423;84,72
911,64;84,79
911,857;84,84
912,074;84,8
912,291;84,68
912,509;84,59
912,726;84,47
912,943;84,46
913,16;84,39
913,377;84,38
913,594;84,25
913,811;84,29
914,028;84,21
914,245;84,25
914,462;84,26
914,679;84,26
914,896;84,35
915,112;84,3
915,329;84,42
915,546;84,42
915,763;84,49
915,98;84,54
916,196;84,48
916,413;84,44
916,63;84,49
916,847;84,54
917,063;84,65
917,28;84,65
917,497;84,63
917,713;84,67
917,93;84,72
918,146;84,73
918,363;84,83
918,579;84,79
918,796;84,73
919,012;84,68
919,229;84,68
919,445;84,68
919,662;84,79
919,878;84,77
920,095;84,85
920,311;84,79
920,527;84,73
920,744;84,84
920,96;84,89
921,176;84,92
921,392;84,94
921,609;84,92
921,825;84,98
922,041;85,04
922,257;85,14
922,473;85,21
922,69;85,22
922,906;85,16
923,122;85,25
923,338;85,23
923,554;85,26
923,77;85,31
923,986;85,26
924,202;85,23
924,418;85,24
924,634;85,23
924,85;85,24
925,066;85,31
925,282;85,17
925,497;85,24
925,713;85,17
925,929;85,22
926,145;85,23
926,361;85,29
926,576;85,34
926,792;85,28
927,008;85,24
927,224;85,28
927,439;85,29
927,655;85,3
927,871;85,38
928,086;85,36
928,302;85,39
928,517;85,43
928,733;85,47
928,948;85,52
929,164;85,5
929,379;85,54
929,595;85,65
929,81;85,74
930,026;85,76
930,241;85,91
930,456;85,9
930,672;85,9
930,887;85,9
931,102;85,86
931,318;85,87
931,533;85,87
931,748;85,91
931,964;85,91
932,179;85,91
932,394;85,86
932,609;85,81
932,824;85,72
933,039;85,68
933,255;85,64
933,47;85,56
933,685;85,58
933,9;85,57
934,115;85,39
934,33;85,3
934,545;85,19
934,76;85,07
934,975;84,99
935,19;85,11
935,404;85,11
935,619;85,11
935,834;85,15
936,049;85,12
936,264;85,04
936,479;85,08
936,693;85,18
936,908;85,19
937,123;85,47
937,338;85,57
937,552;85,63
937,767;85,56
937,982;85,62
938,196;85,58
938,411;85,71
938,625;85,76
938,84;85,79
939,055;85,83
939,269;85,99
939,484;86,13
939,698;86
939,912;86,07
940,127;86,12
940,341;86,24
940,556;86,55
940,77;86,52
940,984;86,61
941,199;86,52
941,413;86,7
941,627;86,65
941,842;86,7
942,056;87,09
942,27;87,37
942,484;87,38
942,699;87,6
942,913;87,56
943,127;87,9
943,341;88,45
943,555;88,62
943,769;88,69
943,983;88,69
944,197;88,53
944,411;88,42
944,625;88,53
944,839;88,51
945,053;88,54
945,267;88,83
945,481;88,99
945,695;88,96
945,909;88,89
946,123;88,84
946,336;88,87
946,55;88,49
946,764;88,65
946,978;88,44
947,192;88,23
947,405;88,27
947,619;88,32
947,833;88,17
948,046;88,35
948,26;88,05
948,474;88,09
948,687;88
948,901;87,73
949,114;87,32
949,328;87,5
949,541;87,19
949,755;87,27
949,968;86,87
950,182;87,04
950,395;87,25
950,609;87,29
950,822;87,53
951,035;87,46
951,249;87,3
951,462;87,46
951,675;87,73
951,889;87,71
952,102;87,51
952,315;87,29
952,528;87,21
952,741;87,29
952,955;87,38
953,168;87,73
953,381;88,06
953,594;88,4
953,807;88,09
954,02;88,42
954,233;88,28
954,446;88,63
954,659;88,5
954,872;88,57
955,085;88,61
955,298;88,49
955,511;88,88
955,724;88,63
955,937;88,74
956,15;88,73
956,362;88,72
956,575;88,89
956,788;88,95
957,001;88,8
957,214;88,84
957,426;88,96
957,639;88,75
957,852;88,7
958,064;88,52
958,277;88,69
958,49;88,45
958,702;88,44
958,915;88,24
959,127;88,42
959,34;88,01
959,552;88
959,765;88,1
959,977;88,12
960,19;88,21
960,402;88,1
960,615;88,03
960,827;88,04
961,039;87,73
961,252;87,76
961,464;87,54
961,676;87,43
961,889;87,44
962,101;87,5
962,313;87,21
962,525;87,33
962,738;87,36
962,95;87,63
963,162;87,79
963,374;87,73
963,586;87,65
963,798;87,7
964,01;87,5
964,222;87,57
964,434;87,3
964,646;87,43
964,858;87,47
965,07;87,41
965,282;87,3
965,494;87,29
965,706;87,54
965,918;87,83
966,13;87,95
966,342;87,79
966,553;87,91
966,765;88,05
966,977;88,01
967,189;87,92
967,401;87,61
967,612;87,53
967,824;87,64
968,036;87,67
968,247;87,79
968,459;87,97
968,67;87,65
968,882;87,42
969,094;87,55
969,305;87,48
969,517;87,48
969,728;87,7
969,94;87,77
970,151;87,52
970,362;87,46
970,574;87,66
970,785;87,86
970,997;87,69
971,208;88,02
971,419;87,98
971,631;88,24
971,842;88,21
972,053;88,17
972,264;88,29
972,476;88,33
972,687;88,48
972,898;88,16
973,109;88,52
973,32;88,95
973,531;88,94
973,742;89,07
973,954;89,06
974,165;89,25
974,376;89,46
974,587;89,55
974,798;89,56
975,009;89,75
975,22;89,54
975,43;89,84
975,641;89,93
975,852;90,17
976,063;90,13
976,274;90,27
976,485;90,13
976,695;90,01
976,906;90,02
977,117;89,78
977,328;90,23
977,538;89,92
977,749;89,98
977,96;90,07
978,17;90,45
978,381;90,43
978,592;90,25
978,802;90,12
979,013;90,23
979,223;90,2
979,434;89,92
979,644;90
979,855;89,86
980,065;89,67
980,276;89,57
980,486;89,64
980,696;89,71
980,907;89,86
981,117;90,15
981,327;90,22
981,538;90,57
981,748;90,48
981,958;90,66
982,169;90,49
982,379;90,42
982,589;90,01
982,799;90,45
983,009;90,31
983,219;90,6
983,43;90,49
983,64;90,81
983,85;90,92
984,06;90,93
984,27;91,19
984,48;91,44
984,69;91,51
984,9;91,32
985,11;91,3
985,32;91,63
985,529;91,31
985,739;91,21
985,949;91,15
986,159;90,89
986,369;90,9
986,579;90,69
986,788;90,72
986,998;90,88
987,208;90,48
987,417;90,67
987,627;90,62
987,837;91,02
988,046;90,71
988,256;90,62
988,466;90,38
988,675;90,25
988,885;89,92
989,094;89,8
989,304;89,82
989,513;90,01
989,723;89,89
989,932;90,08
990,142;90,11
990,351;90,07
990,56;90,58
990,77;90,33
990,979;90,7
991,188;90,61
991,398;90,7
991,607;91,03
991,816;90,78
992,025;90,44
992,235;90,51
992,444;90,71
992,653;90,54
992,862;90,92
993,071;90,8
993,28;90,74
993,489;90,84
993,698;90,68
993,908;90,53
994,117;90,54
994,326;90,43
994,534;90,67
994,743;90,84
994,952;90,72
995,161;91,12
995,37;91,59
995,579;91,89
995,788;92,08
995,997;91,89
996,205;91,96
996,414;92,09
996,623;91,64
996,832;91,63
997,04;91,79
997,249;91,63
997,458;91,62
997,666;91,93
997,875;91,68
998,084;91,86
998,292;91,62
998,501;91,73
998,709;91,9
998,918;91,64
999,126;91,47
999,335;91,74
999,543;91,51
999,752;90,93
999,96;90,73
1000,169;90,6
1000,377;90,64
1000,585;91,28
1000,794;91,45
1001,002;91,58
1001,21;91,9
1001,418;92,08
1001,627;92,16
1001,835;92,79
1002,043;92,78
1002,251;93,66
1002,459;94,15
1002,668;93,96
1002,876;93,96
1003,084;93,64
1003,292;93,32
1003,5;93,83
1003,708;94,05
1003,916;93,83
1004,124;93,83
1004,332;94,23
1004,54;94,36
1004,748;94,42
1004,956;93,66
1005,163;93,5
1005,371;93,57
1005,579;92,97
1005,787;92,76
1005,995;93,03
1006,202;92,52
1006,41;92,48
1006,618;91,85
1006,826;91,44
1007,033;92,18
1007,241;92,63
1007,449;92,75
1007,656;93,25
1007,864;92,97
1008,071;92,41
1008,279;92,88
1008,486;92,99
1008,694;92,74
1008,901;92,74
1009,109;92,93
1009,316;93,62
1009,524;94,02
1009,731;94,3
1009,938;94,41
1010,146;94,46
1010,353;94,45
1010,56;94,4
1010,768;94,2
1010,975;94,22
1011,182;94,19
1011,389;93,93
1011,597;92,93
1011,804;93,44
1012,011;93,49
1012,218;93,35
1012,425;93,08
1012,632;93,35
1012,839;93,24
1013,046;92,81
1013,253;92,96
1013,46;92,79
1013,667;92,34
1013,874;91,95
1014,081;91,79
1014,288;91,99
1014,495;92,21
1014,702;92
1014,909;92,64
1015,116;92,83
1015,323;93,5
1015,529;93,86
1015,736;93,84
1015,943;94,38
1016,15;94,57
1016,356;94,58
1016,563;94,26
1016,77;94,61
1016,976;94,66
1017,183;95,16
1017,389;95,09
1017,596;94,26
1017,803;94,07
1018,009;93,92
1018,216;94,26
1018,422;94,6
1018,629;95,33
1018,835;95,1
1019,041;95,41
1019,248;94,64
1019,454;94,55
1019,661;95,15
1019,867;95,02
1020,073;94,94
1020,279;95,61
1020,486;95,05
1020,692;94,87
1020,898;95,29
1021,104;95,39
1021,311;94,97
1021,517;94,92
1021,723;95,73
1021,929;96,53
1022,135;97,47
1022,341;98,33
1022,547;98,52
1022,753;98,48
1022,959;98,44
1023,165;98,46
1023,371;98,19
1023,577;98,64
1023,783;98,44
1023,989;96,92
1024,195;97,23
1024,401;97,94
1024,607;97,67
1024,812;98,86
1025,018;98,49
1025,224;98,49
1025,43;98,31
1025,635;99,88
1025,841;99,9
1026,047;99,33
1026,252;99,71
1026,458;98,92
1026,664;98,84
1026,869;98,53
1027,075;97,57
1027,28;97,56
1027,486;96,98
1027,691;97,15
1027,897;97,11
1028,102;97,5
1028,308;97,15
1028,513;96,86
1028,719;96,87
1028,924;96,38
1029,129;95,06
1029,335;95,69
1029,54;95,59
1029,745;95,37
1029,95;94,26
1030,156;93,8
1030,361;93,72
1030,566;93,37
1030,771;93,18
1030,976;92,79
1031,182;92,8
1031,387;93,64
1031,592;94,02
1031,797;95,38
1032,002;94,5
1032,207;94,9
1032,412;93,96
1032,617;94,82
1032,822;94,83
1033,027;95,21
1033,232;94,9
1033,437;95,7
1033,642;97,07
1033,846;96,95
1034,051;96,74
1034,256;96,55
1034,461;96,8
1034,666;97,17
1034,87;97,89
1035,075;98,37
1035,28;98,06
1035,484;97,61
1035,689;96,9
1035,894;95,11
1036,098;95,93
1036,303;98,42
1036,507;96,8
1036,712;99,25
1036,917;101,07
1037,121;100,67
1037,325;99,65
1037,53;100,72
1037,734;100,3
1037,939;99,61
1038,143;99,52
1038,348;101,1
1038,552;102,01
1038,756;103,35
1038,961;103,59
1039,165;102,32
1039,369;102,99
1039,573;101,94
1039,778;101,96
1039,982;102,91
1040,186;104,25
1040,39;102,93
1040,594;99,59
1040,798;100,04
1041,002;97,88
1041,206;97,71
1041,41;98,31
1041,614;100,62
1041,818;99,86
1042,022;98,41
1042,226;97,74
1042,43;97,9
1042,634;96,9
1042,838;96,63
1043,042;96,64
1043,246;96,87
1043,45;97,65
1043,653;97,77
1043,857;99,38
1044,061;100,39
1044,265;100,39
1044,468;99,98
1044,672;100,03
1044,876;102,51
1045,079;103,83
1045,283;104,58
1045,487;102,4
1045,69;102,94
1045,894;98,98
1046,097;99,57
1046,301;99,39
1046,504;100,06
1046,708;100,69
1046,911;103,82
1047,115;102,77
1047,318;102,31
1047,522;103,22
1047,725;102,46
1047,928;101,57
1048,132;103,6
1048,335;104,2
1048,538;105,7
1048,741;105,64
1048,945;105,88
1049,148;106,31
1049,351;106,95
1049,554;107,06
1049,757;107,53
1049,96;107,77
1050,163;109,57
1050,367;107,66
1050,57;110,5
1050,773;110,9
1050,976;111,24
1051,179;108,77
1051,382;111,91
1051,585;112,39
1051,787;111,78
1051,99;113,34
1052,193;112,76
1052,396;113,11
1052,599;110,44
1052,802;105,8
1053,005;106,07
1053,207;105,31
1053,41;102,34
1053,613;102,1
1053,815;102,93
1054,018;101,09
1054,221;98,59
1054,423;99,73
1054,626;101,57
1054,829;100,8
1055,031;98,47
1055,234;97,92
1055,436;97,16
1055,639;93,23
1055,841;90,91
1056,044;90,18
1056,246;87,09
