Data from cinnabarWhite_Reflection__4__19.txt Node;
"Date: Wed Sep 10 11:52:27 CEST 2025 User: sycur Spectrometer: SR400348 Trigger mode: 0 Integration Time (sec): 1,000000E-2 Scans to average: 10 Electric dark correction enabled: true Nonlinearity correction enabled: false Boxcar width: 10 XAxis mode: Wavelengths Number of Pixels in Spectrum: 3648 >>>>>Begin Spectral Data<<<<<";
186,01;82,77
186,281;87,39
186,552;94,36
186,822;127,76
187,093;-266,67
187,364;394,72
187,635;70,57
187,905;57,3
188,176;61,72
188,447;63,74
188,717;49
188,988;28,01
189,258;28,63
189,529;32,91
189,8;34,23
190,07;27,83
190,341;25,02
190,611;25,27
190,882;24,29
191,152;19,59
191,423;15,05
191,693;14,83
191,964;14,07
192,234;16,64
192,505;16,29
192,775;20,21
193,045;19,46
193,316;18,96
193,586;18,23
193,856;17,72
194,127;15,86
194,397;15,79
194,667;17,23
194,938;17,03
195,208;16,41
195,478;16,09
195,748;15,49
196,019;14,75
196,289;14,25
196,559;13,63
196,829;14,29
197,099;14,07
197,37;14,85
197,64;13,67
197,91;12,4
198,18;12,17
198,45;11,71
198,72;10,96
198,99;11,25
199,26;10,69
199,53;10,52
199,8;10,62
200,07;10,28
200,34;9,24
200,61;9,07
200,88;9,42
201,15;10,1
201,42;10,32
201,69;10,38
201,96;10,01
202,23;10,51
202,499;10,1
202,769;10,19
203,039;9,56
203,309;9,01
203,579;9,15
203,849;9,43
204,118;8,74
204,388;8,8
204,658;8,41
204,927;7,93
205,197;7,54
205,467;7,4
205,736;7,84
206,006;8,17
206,276;8,33
206,545;8,17
206,815;7,47
207,085;7,55
207,354;7,46
207,624;7,26
207,893;6,89
208,163;7,05
208,432;7,13
208,702;6,89
208,971;7,1
209,241;7
209,51;7
209,78;7,01
210,049;6,75
210,318;6,8
210,588;6,9
210,857;7,02
211,127;7,12
211,396;6,86
211,665;6,92
211,935;6,88
212,204;6,63
212,473;6,75
212,742;6,77
213,012;7,01
213,281;7,27
213,55;7,55
213,819;7,2
214,088;7,02
214,358;7,22
214,627;7,23
214,896;7,27
215,165;6,9
215,434;6,82
215,703;6,82
215,972;6,74
216,241;6,74
216,51;6,51
216,779;6,26
217,048;6,17
217,317;5,88
217,586;6,02
217,855;6,12
218,124;6,04
218,393;6,06
218,662;6,03
218,931;5,95
219,2;5,71
219,469;5,77
219,738;5,73
220,006;5,67
220,275;5,64
220,544;5,57
220,813;5,72
221,082;5,79
221,35;5,88
221,619;5,95
221,888;6
222,157;6,12
222,425;6,29
222,694;6,21
222,963;6,3
223,231;6,2
223,5;6,18
223,769;6,15
224,037;6,13
224,306;6
224,574;6,09
224,843;6,11
225,111;6,04
225,38;5,94
225,648;5,9
225,917;5,88
226,185;5,88
226,454;5,84
226,722;5,91
226,991;5,75
227,259;5,73
227,528;5,66
227,796;5,63
228,064;5,48
228,333;5,54
228,601;5,46
228,869;5,39
229,138;5,29
229,406;5,33
229,674;5,27
229,942;5,3
230,211;5,24
230,479;5,22
230,747;5,22
231,015;5,25
231,283;5,23
231,552;5,25
231,82;5,21
232,088;5,21
232,356;5,16
232,624;5,22
232,892;5,2
233,16;5,25
233,428;5,22
233,696;5,3
233,964;5,3
234,232;5,32
234,5;5,35
234,768;5,37
235,036;5,35
235,304;5,36
235,572;5,39
235,84;5,33
236,108;5,32
236,376;5,33
236,644;5,33
236,912;5,32
237,179;5,31
237,447;5,32
237,715;5,31
237,983;5,29
238,251;5,27
238,518;5,26
238,786;5,23
239,054;5,22
239,322;5,16
239,589;5,16
239,857;5,12
240,125;5,11
240,392;5,11
240,66;5,13
240,927;5,09
241,195;5,06
241,463;5,11
241,73;5,14
241,998;5,13
242,265;5,12
242,533;5,16
242,8;5,17
243,068;5,21
243,335;5,17
243,603;5,17
243,87;5,18
244,138;5,21
244,405;5,23
244,672;5,26
244,94;5,27
245,207;5,24
245,474;5,27
245,742;5,27
246,009;5,25
246,276;5,24
246,544;5,25
246,811;5,23
247,078;5,21
247,345;5,2
247,613;5,21
247,88;5,21
248,147;5,15
248,414;5,13
248,681;5,1
248,948;5,12
249,215;5,1
249,483;5,07
249,75;5,05
250,017;5,02
250,284;5
250,551;5,04
250,818;5,06
251,085;5,01
251,352;5,02
251,619;5,04
251,886;5,03
252,153;5
252,42;5,01
252,687;5
252,953;4,99
253,22;4,98
253,487;4,97
253,754;5,01
254,021;5,01
254,288;4,98
254,555;4,98
254,821;5,01
255,088;5,01
255,355;4,97
255,622;4,96
255,888;4,93
256,155;4,85
256,422;4,82
256,688;4,83
256,955;4,8
257,222;4,79
257,488;4,78
257,755;4,81
258,022;4,77
258,288;4,74
258,555;4,72
258,821;4,72
259,088;4,73
259,354;4,68
259,621;4,68
259,887;4,72
260,154;4,72
260,42;4,68
260,687;4,68
260,953;4,68
261,219;4,7
261,486;4,68
261,752;4,73
262,019;4,73
262,285;4,73
262,551;4,74
262,818;4,73
263,084;4,71
263,35;4,71
263,616;4,72
263,883;4,74
264,149;4,74
264,415;4,75
264,681;4,72
264,947;4,75
265,214;4,74
265,48;4,69
265,746;4,69
266,012;4,71
266,278;4,68
266,544;4,72
266,81;4,7
267,076;4,73
267,342;4,7
267,608;4,68
267,874;4,66
268,14;4,67
268,406;4,67
268,672;4,68
268,938;4,66
269,204;4,64
269,47;4,65
269,736;4,64
270,002;4,6
270,268;4,62
270,533;4,59
270,799;4,56
271,065;4,54
271,331;4,55
271,597;4,52
271,862;4,54
272,128;4,52
272,394;4,55
272,66;4,52
272,925;4,52
273,191;4,53
273,457;4,56
273,722;4,52
273,988;4,51
274,254;4,5
274,519;4,51
274,785;4,51
275,05;4,49
275,316;4,49
275,582;4,51
275,847;4,49
276,113;4,48
276,378;4,5
276,644;4,52
276,909;4,47
277,174;4,49
277,44;4,5
277,705;4,48
277,971;4,46
278,236;4,46
278,501;4,46
278,767;4,47
279,032;4,46
279,297;4,47
279,563;4,44
279,828;4,43
280,093;4,4
280,358;4,38
280,624;4,36
280,889;4,35
281,154;4,35
281,419;4,35
281,684;4,37
281,95;4,35
282,215;4,34
282,48;4,34
282,745;4,33
283,01;4,34
283,275;4,31
283,54;4,29
283,805;4,29
284,07;4,3
284,335;4,29
284,6;4,28
284,865;4,28
285,13;4,27
285,395;4,29
285,66;4,31
285,925;4,34
286,19;4,38
286,455;4,38
286,72;4,39
286,985;4,4
287,249;4,37
287,514;4,39
287,779;4,39
288,044;4,42
288,309;4,4
288,573;4,36
288,838;4,41
289,103;4,45
289,367;4,45
289,632;4,45
289,897;4,45
290,161;4,46
290,426;4,46
290,691;4,49
290,955;4,46
291,22;4,44
291,484;4,41
291,749;4,38
292,014;4,37
292,278;4,36
292,543;4,37
292,807;4,4
293,072;4,4
293,336;4,41
293,6;4,4
293,865;4,4
294,129;4,4
294,394;4,38
294,658;4,34
294,922;4,34
295,187;4,34
295,451;4,34
295,715;4,34
295,98;4,33
296,244;4,31
296,508;4,33
296,773;4,34
297,037;4,39
297,301;4,39
297,565;4,43
297,829;4,41
298,094;4,42
298,358;4,37
298,622;4,38
298,886;4,38
299,15;4,39
299,414;4,4
299,678;4,43
299,942;4,42
300,206;4,42
300,47;4,44
300,734;4,43
300,998;4,43
301,262;4,44
301,526;4,44
301,79;4,44
302,054;4,44
302,318;4,44
302,582;4,42
302,846;4,41
303,11;4,4
303,374;4,4
303,637;4,4
303,901;4,42
304,165;4,39
304,429;4,4
304,693;4,38
304,956;4,38
305,22;4,39
305,484;4,4
305,747;4,41
306,011;4,4
306,275;4,37
306,538;4,37
306,802;4,38
307,066;4,39
307,329;4,4
307,593;4,38
307,856;4,37
308,12;4,35
308,384;4,4
308,647;4,4
308,911;4,41
309,174;4,41
309,438;4,4
309,701;4,41
309,964;4,42
310,228;4,42
310,491;4,4
310,755;4,38
311,018;4,38
311,281;4,37
311,545;4,36
311,808;4,35
312,071;4,35
312,335;4,31
312,598;4,31
312,861;4,33
313,124;4,37
313,388;4,41
313,651;4,4
313,914;4,37
314,177;4,34
314,44;4,31
314,704;4,29
314,967;4,28
315,23;4,27
315,493;4,25
315,756;4,24
316,019;4,25
316,282;4,27
316,545;4,26
316,808;4,25
317,071;4,26
317,334;4,28
317,597;4,31
317,86;4,32
318,123;4,36
318,386;4,3
318,649;4,27
318,912;4,24
319,175;4,24
319,437;4,23
319,7;4,25
319,963;4,28
320,226;4,29
320,489;4,28
320,751;4,26
321,014;4,24
321,277;4,25
321,54;4,25
321,802;4,23
322,065;4,25
322,328;4,25
322,59;4,25
322,853;4,23
323,116;4,2
323,378;4,2
323,641;4,14
323,903;4,17
324,166;4,16
324,428;4,14
324,691;4,14
324,953;4,13
325,216;4,13
325,478;4,13
325,741;4,1
326,003;4,11
326,266;4,11
326,528;4,11
326,791;4,11
327,053;4,08
327,315;4,06
327,578;4,05
327,84;4,03
328,102;4,02
328,365;4,04
328,627;4,02
328,889;4,01
329,151;4,02
329,414;4
329,676;3,99
329,938;4,02
330,2;4,01
330,462;4,02
330,725;3,97
330,987;3,96
331,249;3,97
331,511;3,94
331,773;3,95
332,035;3,99
332,297;4
332,559;4,03
332,821;3,99
333,083;3,96
333,345;3,99
333,607;3,98
333,869;3,99
334,131;4
334,393;4,06
334,655;4,02
334,917;4,02
335,179;4
335,44;3,99
335,702;3,99
335,964;4,01
336,226;4,05
336,488;4,03
336,749;4,01
337,011;4,02
337,273;4,03
337,535;4
337,796;3,96
338,058;3,96
338,32;3,97
338,581;3,96
338,843;3,97
339,105;3,98
339,366;3,97
339,628;3,97
339,889;3,93
340,151;3,95
340,412;3,94
340,674;3,93
340,935;3,94
341,197;3,95
341,458;3,91
341,72;3,89
341,981;3,86
342,243;3,89
342,504;3,95
342,766;3,92
343,027;3,9
343,288;3,91
343,55;3,89
343,811;3,92
344,072;3,87
344,334;3,86
344,595;3,85
344,856;3,83
345,117;3,84
345,379;3,81
345,64;3,84
345,901;3,86
346,162;3,9
346,423;3,9
346,684;3,88
346,946;3,92
347,207;3,87
347,468;3,93
347,729;3,9
347,99;3,87
348,251;3,86
348,512;3,86
348,773;3,86
349,034;3,88
349,295;3,89
349,556;3,95
349,817;3,94
350,078;3,97
350,339;3,96
350,6;3,94
350,86;3,96
351,121;3,94
351,382;3,95
351,643;3,9
351,904;3,85
352,165;3,86
352,425;3,87
352,686;3,93
352,947;3,89
353,208;3,89
353,468;3,89
353,729;3,91
353,99;3,91
354,25;3,93
354,511;3,9
354,772;3,9
355,032;3,9
355,293;3,9
355,553;3,86
355,814;3,87
356,074;3,87
356,335;3,87
356,596;3,9
356,856;3,88
357,116;3,91
357,377;3,97
357,637;3,95
357,898;3,91
358,158;3,87
358,419;3,87
358,679;3,88
358,939;3,84
359,2;3,8
359,46;3,83
359,72;3,8
359,981;3,83
360,241;3,8
360,501;3,79
360,761;3,78
361,022;3,79
361,282;3,81
361,542;3,81
361,802;3,78
362,062;3,73
362,323;3,66
362,583;3,64
362,843;3,59
363,103;3,57
363,363;3,55
363,623;3,54
363,883;3,56
364,143;3,54
364,403;3,57
364,663;3,63
364,923;3,62
365,183;3,65
365,443;3,63
365,703;3,61
365,963;3,61
366,223;3,64
366,483;3,58
366,743;3,56
367,002;3,57
367,262;3,57
367,522;3,58
367,782;3,61
368,042;3,64
368,301;3,64
368,561;3,68
368,821;3,67
369,081;3,66
369,34;3,63
369,6;3,62
369,86;3,63
370,119;3,59
370,379;3,62
370,638;3,61
370,898;3,62
371,158;3,64
371,417;3,58
371,677;3,54
371,936;3,59
372,196;3,59
372,455;3,57
372,715;3,58
372,974;3,59
373,234;3,55
373,493;3,56
373,753;3,58
374,012;3,54
374,271;3,56
374,531;3,58
374,79;3,6
375,049;3,65
375,309;3,62
375,568;3,6
375,827;3,52
376,086;3,49
376,346;3,46
376,605;3,5
376,864;3,5
377,123;3,53
377,383;3,48
377,642;3,53
377,901;3,52
378,16;3,48
378,419;3,48
378,678;3,48
378,937;3,46
379,196;3,43
379,455;3,47
379,714;3,48
379,973;3,53
380,232;3,5
380,491;3,43
380,75;3,41
381,009;3,4
381,268;3,45
381,527;3,46
381,786;3,44
382,045;3,42
382,304;3,43
382,563;3,43
382,821;3,48
383,08;3,4
383,339;3,41
383,598;3,46
383,857;3,46
384,115;3,52
384,374;3,55
384,633;3,56
384,891;3,5
385,15;3,45
385,409;3,44
385,667;3,41
385,926;3,46
386,185;3,45
386,443;3,51
386,702;3,43
386,96;3,44
387,219;3,45
387,477;3,45
387,736;3,44
387,994;3,42
388,253;3,39
388,511;3,42
388,77;3,43
389,028;3,41
389,287;3,4
389,545;3,36
389,803;3,3
390,062;3,3
390,32;3,32
390,578;3,38
390,837;3,36
391,095;3,41
391,353;3,39
391,612;3,41
391,87;3,38
392,128;3,43
392,386;3,37
392,644;3,38
392,903;3,36
393,161;3,36
393,419;3,34
393,677;3,34
393,935;3,35
394,193;3,3
394,451;3,31
394,709;3,25
394,967;3,28
395,225;3,3
395,483;3,3
395,741;3,29
395,999;3,27
396,257;3,28
396,515;3,26
396,773;3,27
397,031;3,29
397,289;3,31
397,547;3,3
397,805;3,31
398,062;3,3
398,32;3,31
398,578;3,34
398,836;3,31
399,094;3,29
399,351;3,24
399,609;3,25
399,867;3,22
400,124;3,26
400,382;3,29
400,64;3,35
400,897;3,33
401,155;3,33
401,413;3,3
401,67;3,28
401,928;3,3
402,185;3,26
402,443;3,26
402,701;3,19
402,958;3,2
403,216;3,21
403,473;3,22
403,73;3,17
403,988;3,14
404,245;3,18
404,503;3,18
404,76;3,21
405,018;3,22
405,275;3,28
405,532;3,32
405,79;3,24
406,047;3,16
406,304;3,15
406,561;3,2
406,819;3,26
407,076;3,26
407,333;3,28
407,59;3,32
407,848;3,28
408,105;3,3
408,362;3,36
408,619;3,4
408,876;3,4
409,133;3,38
409,39;3,44
409,647;3,46
409,904;3,46
410,161;3,48
410,418;3,48
410,675;3,43
410,932;3,34
411,189;3,4
411,446;3,37
411,703;3,38
411,96;3,31
412,217;3,25
412,474;3,22
412,731;3,17
412,988;3,15
413,245;3,21
413,501;3,22
413,758;3,2
414,015;3,19
414,272;3,17
414,529;3,21
414,785;3,16
415,042;3,19
415,299;3,23
415,555;3,24
415,812;3,23
416,069;3,24
416,325;3,3
416,582;3,27
416,838;3,35
417,095;3,33
417,352;3,31
417,608;3,37
417,865;3,43
418,121;3,46
418,378;3,47
418,634;3,43
418,891;3,47
419,147;3,47
419,403;3,43
419,66;3,44
419,916;3,46
420,173;3,5
420,429;3,44
420,685;3,41
420,942;3,4
421,198;3,38
421,454;3,39
421,711;3,39
421,967;3,39
422,223;3,34
422,479;3,36
422,735;3,46
422,992;3,39
423,248;3,33
423,504;3,41
423,76;3,42
424,016;3,4
424,272;3,38
424,528;3,35
424,784;3,37
425,041;3,38
425,297;3,35
425,553;3,33
425,809;3,35
426,065;3,35
426,32;3,33
426,576;3,34
426,832;3,31
427,088;3,31
427,344;3,29
427,6;3,37
427,856;3,38
428,112;3,31
428,368;3,33
428,623;3,34
428,879;3,26
429,135;3,23
429,391;3,26
429,646;3,28
429,902;3,31
430,158;3,33
430,414;3,35
430,669;3,36
430,925;3,37
431,181;3,37
431,436;3,39
431,692;3,39
431,947;3,41
432,203;3,37
432,458;3,33
432,714;3,38
432,97;3,34
433,225;3,36
433,481;3,35
433,736;3,36
433,991;3,4
434,247;3,35
434,502;3,37
434,758;3,37
435,013;3,3
435,268;3,26
435,524;3,23
435,779;3,2
436,034;3,21
436,29;3,2
436,545;3,17
436,8;3,15
437,056;3,17
437,311;3,15
437,566;3,16
437,821;3,19
438,076;3,15
438,331;3,15
438,587;3,15
438,842;3,17
439,097;3,2
439,352;3,18
439,607;3,22
439,862;3,16
440,117;3,18
440,372;3,2
440,627;3,25
440,882;3,25
441,137;3,29
441,392;3,26
441,647;3,25
441,902;3,26
442,157;3,27
442,412;3,24
442,667;3,27
442,921;3,27
443,176;3,26
443,431;3,31
443,686;3,33
443,941;3,34
444,195;3,33
444,45;3,26
444,705;3,29
444,96;3,32
445,214;3,35
445,469;3,31
445,724;3,33
445,978;3,34
446,233;3,34
446,487;3,33
446,742;3,32
446,997;3,31
447,251;3,31
447,506;3,32
447,76;3,31
448,015;3,29
448,269;3,36
448,524;3,4
448,778;3,36
449,033;3,3
449,287;3,24
449,541;3,24
449,796;3,3
450,05;3,28
450,305;3,27
450,559;3,3
450,813;3,3
451,067;3,28
451,322;3,23
451,576;3,27
451,83;3,27
452,084;3,33
452,339;3,39
452,593;3,41
452,847;3,39
453,101;3,45
453,355;3,47
453,609;3,45
453,864;3,42
454,118;3,41
454,372;3,47
454,626;3,48
454,88;3,54
455,134;3,52
455,388;3,49
455,642;3,51
455,896;3,48
456,15;3,46
456,404;3,51
456,658;3,49
456,912;3,42
457,165;3,4
457,419;3,37
457,673;3,29
457,927;3,23
458,181;3,25
458,435;3,19
458,688;3,16
458,942;3,11
459,196;3,15
459,45;3,18
459,703;3,17
459,957;3,16
460,211;3,09
460,464;3,1
460,718;3,11
460,972;3,09
461,225;3,09
461,479;3,11
461,732;3,1
461,986;3,12
462,239;3,15
462,493;3,15
462,746;3,16
463;3,15
463,253;3,2
463,507;3,13
463,76;3,15
464,014;3,16
464,267;3,19
464,52;3,17
464,774;3,15
465,027;3,11
465,28;3,16
465,534;3,16
465,787;3,15
466,04;3,15
466,294;3,14
466,547;3,13
466,8;3,15
467,053;3,11
467,306;3,13
467,56;3,15
467,813;3,16
468,066;3,14
468,319;3,16
468,572;3,13
468,825;3,21
469,078;3,2
469,331;3,19
469,584;3,22
469,837;3,18
470,09;3,18
470,343;3,15
470,596;3,12
470,849;3,14
471,102;3,14
471,355;3,17
471,608;3,18
471,861;3,21
472,114;3,22
472,367;3,24
472,619;3,23
472,872;3,23
473,125;3,22
473,378;3,23
473,631;3,26
473,883;3,25
474,136;3,22
474,389;3,26
474,641;3,28
474,894;3,23
475,147;3,24
475,399;3,24
475,652;3,27
475,905;3,28
476,157;3,3
476,41;3,3
476,662;3,27
476,915;3,27
477,167;3,26
477,42;3,28
477,672;3,28
477,925;3,27
478,177;3,25
478,43;3,26
478,682;3,23
478,934;3,18
479,187;3,21
479,439;3,25
479,691;3,26
479,944;3,26
480,196;3,3
480,448;3,34
480,701;3,34
480,953;3,34
481,205;3,34
481,457;3,32
481,709;3,31
481,962;3,31
482,214;3,3
482,466;3,3
482,718;3,29
482,97;3,3
483,222;3,31
483,474;3,32
483,726;3,33
483,978;3,34
484,23;3,37
484,482;3,36
484,734;3,36
484,986;3,33
485,238;3,34
485,49;3,33
485,742;3,31
485,994;3,32
486,246;3,34
486,498;3,34
486,75;3,35
487,001;3,37
487,253;3,39
487,505;3,38
487,757;3,38
488,009;3,36
488,26;3,36
488,512;3,38
488,764;3,35
489,015;3,34
489,267;3,36
489,519;3,37
489,77;3,39
490,022;3,38
490,274;3,39
490,525;3,4
490,777;3,4
491,028;3,4
491,28;3,4
491,531;3,4
491,783;3,4
492,034;3,42
492,286;3,41
492,537;3,43
492,789;3,44
493,04;3,44
493,291;3,45
493,543;3,48
493,794;3,46
494,045;3,5
494,297;3,51
494,548;3,5
494,799;3,48
495,051;3,48
495,302;3,52
495,553;3,53
495,804;3,52
496,056;3,54
496,307;3,54
496,558;3,56
496,809;3,57
497,06;3,6
497,311;3,58
497,562;3,61
497,813;3,59
498,064;3,6
498,316;3,62
498,567;3,65
498,818;3,64
499,069;3,64
499,319;3,67
499,57;3,68
499,821;3,7
500,072;3,74
500,323;3,74
500,574;3,73
500,825;3,74
501,076;3,76
501,327;3,77
501,577;3,79
501,828;3,78
502,079;3,79
502,33;3,81
502,58;3,86
502,831;3,87
503,082;3,87
503,333;3,92
503,583;3,94
503,834;3,98
504,084;4,01
504,335;4,04
504,586;4,07
504,836;4,12
505,087;4,17
505,337;4,2
505,588;4,22
505,838;4,25
506,089;4,3
506,339;4,32
506,59;4,37
506,84;4,41
507,091;4,51
507,341;4,55
507,591;4,58
507,842;4,6
508,092;4,64
508,343;4,71
508,593;4,72
508,843;4,74
509,093;4,73
509,344;4,78
509,594;4,82
509,844;4,84
510,094;4,85
510,345;4,87
510,595;4,89
510,845;4,94
511,095;4,97
511,345;5,02
511,595;5,06
511,845;5,07
512,095;5,1
512,345;5,09
512,595;5,13
512,845;5,17
513,095;5,2
513,345;5,24
513,595;5,25
513,845;5,29
514,095;5,33
514,345;5,39
514,595;5,42
514,845;5,43
515,095;5,44
515,345;5,47
515,594;5,51
515,844;5,55
516,094;5,57
516,344;5,6
516,593;5,59
516,843;5,61
517,093;5,64
517,343;5,64
517,592;5,69
517,842;5,72
518,092;5,75
518,341;5,75
518,591;5,79
518,84;5,81
519,09;5,83
519,34;5,87
519,589;5,87
519,839;5,88
520,088;5,9
520,338;5,94
520,587;5,92
520,836;5,91
521,086;5,93
521,335;5,93
521,585;5,93
521,834;5,94
522,083;5,97
522,333;5,98
522,582;5,99
522,831;6
523,081;5,98
523,33;5,97
523,579;6
523,828;6
524,078;6,01
524,327;6,02
524,576;6
524,825;6,02
525,074;6,06
525,323;6,07
525,573;6,07
525,822;6,12
526,071;6,15
526,32;6,15
526,569;6,17
526,818;6,21
527,067;6,23
527,316;6,23
527,565;6,25
527,814;6,27
528,063;6,27
528,312;6,29
528,56;6,32
528,809;6,31
529,058;6,32
529,307;6,33
529,556;6,34
529,805;6,37
530,053;6,38
530,302;6,37
530,551;6,4
530,8;6,41
531,048;6,41
531,297;6,43
531,546;6,44
531,794;6,43
532,043;6,44
532,292;6,45
532,54;6,44
532,789;6,47
533,037;6,47
533,286;6,46
533,535;6,46
533,783;6,46
534,032;6,48
534,28;6,47
534,528;6,48
534,777;6,49
535,025;6,5
535,274;6,52
535,522;6,54
535,771;6,53
536,019;6,53
536,267;6,55
536,516;6,55
536,764;6,56
537,012;6,58
537,26;6,58
537,509;6,59
537,757;6,61
538,005;6,6
538,253;6,61
538,501;6,62
538,75;6,62
538,998;6,64
539,246;6,64
539,494;6,65
539,742;6,64
539,99;6,66
540,238;6,65
540,486;6,66
540,734;6,63
540,982;6,66
541,23;6,67
541,478;6,66
541,726;6,69
541,974;6,7
542,222;6,72
542,47;6,73
542,718;6,72
542,966;6,74
543,213;6,73
543,461;6,75
543,709;6,78
543,957;6,81
544,205;6,81
544,452;6,81
544,7;6,83
544,948;6,86
545,196;6,85
545,443;6,88
545,691;6,88
545,939;6,9
546,186;6,9
546,434;6,93
546,681;6,94
546,929;6,94
547,176;6,93
547,424;6,93
547,671;6,94
547,919;6,96
548,166;6,98
548,414;7,01
548,661;7
548,909;6,99
549,156;6,99
549,404;7,02
549,651;7,03
549,898;7,03
550,146;7,04
550,393;7,07
550,64;7,09
550,888;7,12
551,135;7,14
551,382;7,16
551,629;7,19
551,876;7,21
552,124;7,22
552,371;7,26
552,618;7,27
552,865;7,29
553,112;7,3
553,359;7,32
553,606;7,33
553,854;7,37
554,101;7,4
554,348;7,41
554,595;7,43
554,842;7,44
555,089;7,45
555,336;7,49
555,582;7,5
555,829;7,5
556,076;7,49
556,323;7,52
556,57;7,51
556,817;7,52
557,064;7,53
557,311;7,53
557,557;7,54
557,804;7,56
558,051;7,57
558,298;7,6
558,544;7,61
558,791;7,63
559,038;7,62
559,284;7,63
559,531;7,65
559,778;7,64
560,024;7,68
560,271;7,7
560,517;7,71
560,764;7,72
561,011;7,73
561,257;7,76
561,504;7,78
561,75;7,81
561,997;7,81
562,243;7,84
562,489;7,87
562,736;7,89
562,982;7,92
563,229;7,98
563,475;7,98
563,721;8,01
563,968;8,04
564,214;8,08
564,46;8,14
564,707;8,19
564,953;8,25
565,199;8,27
565,445;8,31
565,691;8,36
565,938;8,41
566,184;8,45
566,43;8,52
566,676;8,56
566,922;8,63
567,168;8,68
567,414;8,76
567,66;8,83
567,906;8,9
568,152;8,96
568,398;9,03
568,644;9,12
568,89;9,17
569,136;9,25
569,382;9,33
569,628;9,36
569,874;9,42
570,12;9,47
570,366;9,54
570,612;9,61
570,857;9,66
571,103;9,73
571,349;9,8
571,595;9,87
571,84;9,96
572,086;10,04
572,332;10,13
572,578;10,19
572,823;10,25
573,069;10,32
573,315;10,39
573,56;10,45
573,806;10,51
574,051;10,6
574,297;10,66
574,542;10,72
574,788;10,82
575,034;10,92
575,279;11
575,524;11,08
575,77;11,15
576,015;11,25
576,261;11,33
576,506;11,42
576,752;11,49
576,997;11,55
577,242;11,63
577,488;11,71
577,733;11,78
577,978;11,88
578,223;11,98
578,469;12,09
578,714;12,19
578,959;12,31
579,204;12,41
579,45;12,51
579,695;12,61
579,94;12,71
580,185;12,8
580,43;12,9
580,675;13
580,92;13,1
581,165;13,19
581,41;13,31
581,655;13,4
581,9;13,5
582,145;13,61
582,39;13,71
582,635;13,82
582,88;13,94
583,125;14,05
583,37;14,17
583,615;14,27
583,86;14,41
584,105;14,53
584,349;14,67
584,594;14,79
584,839;14,94
585,084;15,08
585,328;15,22
585,573;15,35
585,818;15,5
586,063;15,63
586,307;15,76
586,552;15,86
586,797;16,01
587,041;16,16
587,286;16,3
587,53;16,43
587,775;16,59
588,019;16,73
588,264;16,89
588,508;17,03
588,753;17,21
588,997;17,35
589,242;17,49
589,486;17,66
589,731;17,86
589,975;18,02
590,22;18,23
590,464;18,42
590,708;18,63
590,953;18,81
591,197;19
591,441;19,21
591,685;19,44
591,93;19,63
592,174;19,83
592,418;20,03
592,662;20,24
592,907;20,43
593,151;20,65
593,395;20,84
593,639;21,05
593,883;21,24
594,127;21,44
594,371;21,65
594,615;21,84
594,859;22,03
595,103;22,27
595,347;22,47
595,591;22,7
595,835;22,92
596,079;23,17
596,323;23,42
596,567;23,67
596,811;23,91
597,055;24,15
597,299;24,39
597,542;24,64
597,786;24,91
598,03;25,18
598,274;25,43
598,518;25,69
598,761;25,92
599,005;26,14
599,249;26,41
599,492;26,66
599,736;26,93
599,98;27,21
600,223;27,45
600,467;27,72
600,711;27,96
600,954;28,23
601,198;28,48
601,441;28,74
601,685;29
601,928;29,26
602,172;29,52
602,415;29,81
602,659;30,07
602,902;30,32
603,145;30,57
603,389;30,84
603,632;31,1
603,876;31,39
604,119;31,66
604,362;31,92
604,606;32,16
604,849;32,42
605,092;32,65
605,335;32,91
605,579;33,14
605,822;33,4
606,065;33,64
606,308;33,89
606,551;34,15
606,794;34,41
607,037;34,68
607,281;34,94
607,524;35,21
607,767;35,45
608,01;35,69
608,253;35,94
608,496;36,16
608,739;36,4
608,982;36,62
609,225;36,84
609,468;37,08
609,711;37,33
609,953;37,55
610,196;37,82
610,439;38,04
610,682;38,26
610,925;38,5
611,168;38,75
611,41;38,94
611,653;39,16
611,896;39,34
612,139;39,55
612,381;39,77
612,624;39,95
612,867;40,17
613,109;40,38
613,352;40,57
613,595;40,79
613,837;40,98
614,08;41,2
614,322;41,4
614,565;41,59
614,807;41,79
615,05;41,97
615,292;42,12
615,535;42,32
615,777;42,51
616,02;42,68
616,262;42,84
616,505;43,04
616,747;43,19
616,989;43,39
617,232;43,54
617,474;43,71
617,716;43,85
617,959;44
618,201;44,14
618,443;44,31
618,685;44,43
618,927;44,58
619,17;44,72
619,412;44,85
619,654;44,97
619,896;45,1
620,138;45,23
620,38;45,36
620,622;45,48
620,864;45,61
621,107;45,73
621,349;45,84
621,591;45,94
621,833;46,08
622,075;46,19
622,316;46,29
622,558;46,42
622,8;46,54
623,042;46,65
623,284;46,79
623,526;46,9
623,768;47,02
624,01;47,12
624,251;47,23
624,493;47,33
624,735;47,45
624,977;47,55
625,218;47,67
625,46;47,78
625,702;47,87
625,943;47,97
626,185;48,08
626,427;48,17
626,668;48,26
626,91;48,36
627,152;48,43
627,393;48,53
627,635;48,6
627,876;48,64
628,118;48,73
628,359;48,79
628,601;48,84
628,842;48,92
629,084;49
629,325;49,05
629,566;49,12
629,808;49,18
630,049;49,24
630,29;49,3
630,532;49,36
630,773;49,41
631,014;49,46
631,256;49,52
631,497;49,61
631,738;49,68
631,979;49,73
632,22;49,81
632,462;49,87
632,703;49,91
632,944;50,02
633,185;50,08
633,426;50,15
633,667;50,22
633,908;50,25
634,149;50,29
634,39;50,37
634,631;50,48
634,872;50,55
635,113;50,62
635,354;50,65
635,595;50,67
635,836;50,74
636,077;50,77
636,318;50,82
636,559;50,85
636,8;50,93
637,04;50,96
637,281;50,99
637,522;51,01
637,763;51,09
638,003;51,13
638,244;51,15
638,485;51,19
638,726;51,21
638,966;51,27
639,207;51,31
639,448;51,33
639,688;51,33
639,929;51,36
640,169;51,34
640,41;51,37
640,65;51,42
640,891;51,45
641,131;51,51
641,372;51,54
641,612;51,55
641,853;51,57
642,093;51,62
642,334;51,66
642,574;51,71
642,814;51,7
643,055;51,69
643,295;51,74
643,535;51,78
643,776;51,87
644,016;51,91
644,256;51,94
644,496;51,99
644,737;52,04
644,977;52,08
645,217;52,14
645,457;52,21
645,697;52,24
645,938;52,26
646,178;52,32
646,418;52,32
646,658;52,38
646,898;52,38
647,138;52,39
647,378;52,42
647,618;52,46
647,858;52,51
648,098;52,55
648,338;52,57
648,578;52,6
648,818;52,61
649,057;52,61
649,297;52,66
649,537;52,67
649,777;52,67
650,017;52,69
650,257;52,7
650,496;52,71
650,736;52,75
650,976;52,76
661,028;53,32
661,267;53,4
661,506;53,44
661,744;53,47
661,983;53,54
662,222;53,6
662,461;53,64
662,7;53,65
662,939;53,68
663,177;53,72
663,416;53,72
663,655;53,74
663,894;53,75
664,132;53,77
664,371;53,76
664,61;53,79
664,848;53,83
665,087;53,84
665,326;53,85
665,564;53,9
665,803;53,9
666,041;53,91
666,28;53,88
666,518;53,91
666,757;53,95
666,995;53,97
667,234;53,98
667,472;54
667,711;53,99
667,949;54,02
668,187;54,02
668,426;54,05
668,664;54,03
668,902;54,06
669,141;54,06
669,379;54,1
669,617;54,12
669,856;54,1
670,094;54,14
670,332;54,12
670,57;54,12
670,808;54,1
671,046;54,12
671,285;54,17
671,523;54,17
671,761;54,19
671,999;54,17
672,237;54,19
672,475;54,2
672,713;54,23
672,951;54,25
673,189;54,26
673,427;54,25
673,665;54,29
673,903;54,27
674,141;54,32
674,379;54,36
674,617;54,36
674,854;54,37
675,092;54,38
675,33;54,43
675,568;54,45
675,806;54,53
676,043;54,54
676,281;54,54
676,519;54,59
676,756;54,6
676,994;54,62
677,232;54,62
677,469;54,62
677,707;54,62
677,945;54,6
678,182;54,61
678,42;54,65
678,657;54,68
678,895;54,68
679,132;54,68
679,37;54,67
679,607;54,69
679,845;54,72
680,082;54,73
680,32;54,7
680,557;54,68
680,794;54,66
681,032;54,69
681,269;54,7
681,507;54,69
681,744;54,7
681,981;54,77
682,218;54,76
682,456;54,76
682,693;54,82
682,93;54,86
683,167;54,86
683,404;54,88
683,642;54,89
683,879;54,92
684,116;54,94
684,353;54,93
684,59;54,94
684,827;54,94
685,064;54,91
685,301;54,95
685,538;54,99
685,775;55,01
686,012;55,04
686,249;55,06
686,486;55,1
686,723;55,13
686,96;55,1
687,197;55,11
687,433;55,11
687,67;55,14
687,907;55,11
688,144;55,15
688,381;55,13
688,617;55,09
688,854;55,13
689,091;55,12
689,327;55,13
689,564;55,13
689,801;55,14
690,037;55,17
690,274;55,17
690,511;55,15
690,747;55,18
690,984;55,15
691,22;55,19
691,457;55,18
691,693;55,18
691,93;55,21
692,166;55,25
692,403;55,28
692,639;55,24
692,876;55,27
693,112;55,28
693,348;55,31
693,585;55,34
693,821;55,35
694,057;55,39
694,294;55,4
694,53;55,43
694,766;55,43
695,002;55,42
695,239;55,46
695,475;55,48
695,711;55,45
695,947;55,46
696,183;55,44
696,419;55,44
696,656;55,45
696,892;55,48
697,128;55,48
697,364;55,46
697,6;55,5
697,836;55,52
698,072;55,55
698,308;55,58
698,544;55,6
698,78;55,63
699,016;55,63
699,251;55,68
699,487;55,7
699,723;55,75
699,959;55,78
700,195;55,78
700,431;55,82
700,666;55,82
700,902;55,85
701,138;55,89
701,374;55,91
701,609;55,94
701,845;55,94
702,081;55,97
702,316;56,03
702,552;55,99
702,788;56,02
703,023;56,03
703,259;56,04
703,494;56,09
703,73;56,07
703,965;56,09
704,201;56,09
704,436;56,07
704,672;56,08
704,907;56,12
705,143;56,15
705,378;56,12
705,613;56,22
705,849;56,25
706,084;56,26
706,319;56,28
706,555;56,28
706,79;56,29
707,025;56,32
707,26;56,35
707,496;56,43
707,731;56,42
707,966;56,45
708,201;56,43
708,436;56,41
708,671;56,43
708,907;56,48
709,142;56,52
709,377;56,57
709,612;56,62
709,847;56,64
710,082;56,64
710,317;56,69
710,552;56,71
710,787;56,73
711,022;56,76
711,257;56,77
711,492;56,82
711,726;56,82
711,961;56,84
712,196;56,85
712,431;56,84
712,666;56,88
712,901;56,86
713,135;56,9
713,37;57,01
713,605;57,04
713,839;57,03
714,074;57,03
714,309;57,02
714,543;57,03
714,778;57,06
715,013;57,1
715,247;57,15
715,482;57,14
715,716;57,18
715,951;57,24
716,185;57,3
716,42;57,32
716,654;57,37
716,889;57,39
717,123;57,42
717,358;57,42
717,592;57,5
717,827;57,53
718,061;57,57
718,295;57,51
718,53;57,53
718,764;57,57
718,998;57,61
719,232;57,64
719,467;57,69
719,701;57,65
719,935;57,68
720,169;57,69
720,403;57,74
720,638;57,76
720,872;57,73
721,106;57,74
721,34;57,75
721,574;57,76
721,808;57,79
722,042;57,79
722,276;57,83
722,51;57,83
722,744;57,9
722,978;57,89
723,212;57,93
723,446;57,95
723,68;57,93
723,914;57,95
724,147;57,99
724,381;57,99
724,615;58,04
724,849;58,06
725,083;58,08
725,316;58,08
725,55;58,1
725,784;58,18
726,018;58,21
726,251;58,23
726,485;58,24
726,719;58,31
726,952;58,35
727,186;58,41
727,419;58,43
727,653;58,46
727,887;58,53
728,12;58,58
728,354;58,63
728,587;58,68
728,821;58,68
729,054;58,75
729,287;58,8
729,521;58,81
729,754;58,84
729,988;58,86
730,221;58,95
730,454;58,98
730,688;59
730,921;59,04
731,154;59,09
731,387;59,11
731,621;59,12
731,854;59,16
732,087;59,2
732,32;59,23
732,553;59,23
732,787;59,27
733,02;59,3
733,253;59,33
733,486;59,35
733,719;59,43
733,952;59,44
734,185;59,43
734,418;59,48
734,651;59,52
734,884;59,55
735,117;59,52
735,35;59,52
735,583;59,51
735,816;59,51
736,049;59,55
736,281;59,61
736,514;59,62
736,747;59,63
736,98;59,63
737,213;59,64
737,445;59,65
737,678;59,68
737,911;59,67
738,144;59,68
738,376;59,76
738,609;59,79
738,842;59,83
739,074;59,9
739,307;59,93
739,539;59,97
739,772;59,98
740,004;60,02
740,237;60,11
740,469;60,17
740,702;60,22
740,934;60,27
741,167;60,27
741,399;60,31
741,632;60,36
741,864;60,42
742,096;60,5
742,329;60,57
742,561;60,58
742,793;60,66
743,026;60,73
743,258;60,75
743,49;60,77
743,723;60,82
743,955;60,8
744,187;60,86
744,419;60,88
744,651;60,91
744,883;60,92
745,115;60,92
745,348;60,94
745,58;60,93
745,812;60,92
746,044;60,96
746,276;60,96
746,508;61,01
746,74;61,03
746,972;61,05
747,204;61,07
747,436;61,12
747,667;61,12
747,899;61,12
748,131;61,14
748,363;61,13
748,595;61,16
748,827;61,21
749,058;61,22
749,29;61,2
749,522;61,19
749,754;61,25
749,985;61,26
750,217;61,27
750,449;61,32
750,68;61,36
750,912;61,41
751,144;61,51
751,375;61,53
751,607;61,56
751,838;61,59
752,07;61,61
752,301;61,62
752,533;61,66
752,764;61,71
752,996;61,72
753,227;61,78
753,459;61,8
753,69;61,83
753,921;61,85
754,153;61,91
754,384;62,01
754,615;62,03
754,847;62,05
755,078;62,15
755,309;62,24
755,54;62,2
755,772;62,2
756,003;62,17
756,234;62,18
756,465;62,21
756,696;62,21
756,927;62,22
757,159;62,27
757,39;62,27
757,621;62,34
757,852;62,35
758,083;62,37
758,314;62,35
758,545;62,39
758,776;62,46
759,007;62,47
759,238;62,46
759,469;62,48
759,699;62,54
759,93;62,49
760,161;62,43
760,392;62,49
760,623;62,52
760,854;62,56
761,084;62,59
761,315;62,57
761,546;62,56
761,776;62,6
762,007;62,59
762,238;62,6
762,468;62,57
762,699;62,63
762,93;62,64
763,16;62,67
763,391;62,68
763,621;62,65
763,852;62,71
764,083;62,69
764,313;62,69
764,543;62,67
764,774;62,66
765,004;62,68
765,235;62,67
765,465;62,65
765,696;62,66
765,926;62,66
766,156;62,66
766,387;62,73
766,617;62,73
766,847;62,73
767,077;62,73
767,308;62,69
767,538;62,67
767,768;62,66
767,998;62,69
768,228;62,69
768,459;62,67
768,689;62,67
768,919;62,72
769,149;62,76
769,379;62,77
769,609;62,85
769,839;62,88
770,069;62,9
770,299;62,88
770,529;62,85
770,759;62,82
770,989;62,8
771,219;62,77
771,449;62,77
771,678;62,84
771,908;62,83
772,138;62,88
772,368;62,87
772,598;62,9
772,827;62,95
773,057;62,91
773,287;62,96
773,517;62,99
773,746;62,95
773,976;62,96
774,206;63
774,435;62,98
774,665;62,99
774,894;62,98
775,124;63,06
775,354;63,1
775,583;63,18
775,813;63,25
776,042;63,24
776,272;63,21
776,501;63,18
776,73;63,24
776,96;63,25
777,189;63,27
777,419;63,29
777,648;63,24
777,877;63,27
778,107;63,24
778,336;63,26
778,565;63,26
778,794;63,25
779,024;63,23
779,253;63,22
779,482;63,19
779,711;63,22
779,94;63,23
780,17;63,22
780,399;63,16
780,628;63,16
780,857;63,2
781,086;63,28
781,315;63,32
781,544;63,35
781,773;63,34
782,002;63,37
782,231;63,37
782,46;63,36
782,689;63,36
782,918;63,41
783,147;63,36
783,375;63,38
783,604;63,45
783,833;63,47
784,062;63,48
784,291;63,51
784,519;63,54
784,748;63,5
784,977;63,56
785,206;63,57
785,434;63,55
785,663;63,54
785,892;63,49
786,12;63,45
786,349;63,45
786,577;63,45
786,806;63,43
787,034;63,44
787,263;63,46
787,492;63,48
787,72;63,47
787,948;63,49
788,177;63,48
788,405;63,46
788,634;63,45
788,862;63,46
789,09;63,41
789,319;63,42
789,547;63,43
789,775;63,4
790,004;63,44
790,232;63,48
790,46;63,46
790,688;63,48
790,917;63,5
791,145;63,45
791,373;63,45
791,601;63,47
791,829;63,45
792,057;63,43
792,286;63,41
792,514;63,42
792,742;63,38
792,97;63,42
793,198;63,41
793,426;63,39
793,654;63,43
793,882;63,44
794,109;63,45
794,337;63,52
794,565;63,48
794,793;63,48
795,021;63,47
795,249;63,47
795,477;63,44
795,704;63,42
795,932;63,42
796,16;63,45
796,388;63,36
796,615;63,34
796,843;63,35
797,071;63,37
797,298;63,34
797,526;63,33
797,754;63,33
797,981;63,29
798,209;63,25
798,436;63,17
798,664;63,16
798,891;63,1
799,119;63,02
799,346;62,99
799,574;62,95
799,801;62,92
800,029;62,91
800,256;62,96
800,483;62,95
800,711;62,93
800,938;62,83
801,165;62,86
801,393;62,82
801,62;62,83
801,847;62,86
802,074;62,8
802,302;62,81
802,529;62,78
802,756;62,8
802,983;62,82
803,21;62,88
803,437;62,93
803,665;62,99
803,892;63
804,119;63,01
804,346;63,03
804,573;63,03
804,8;63,03
805,027;63,01
805,254;62,97
805,481;62,96
805,708;63
805,934;63
806,161;63,02
806,388;63,05
806,615;63,02
806,842;63,07
807,069;63,13
807,295;63,12
807,522;63,09
807,749;63,11
807,976;63,03
808,202;63,02
808,429;62,97
808,656;62,98
808,882;63,03
809,109;62,96
809,335;62,93
809,562;62,96
809,789;62,94
810,015;62,94
810,242;62,95
810,468;63
810,695;63,02
810,921;63,02
811,147;62,97
811,374;62,98
811,6;62,96
811,827;62,91
812,053;62,87
812,279;62,86
812,506;62,86
812,732;62,89
812,958;62,83
813,185;62,74
813,411;62,73
813,637;62,74
813,863;62,8
814,089;62,86
814,315;62,8
814,542;62,83
814,768;62,83
814,994;62,83
815,22;62,78
815,446;62,74
815,672;62,79
815,898;62,8
816,124;62,75
816,35;62,71
816,576;62,68
816,802;62,69
817,028;62,7
817,254;62,71
817,48;62,67
817,705;62,69
817,931;62,76
818,157;62,72
818,383;62,67
818,609;62,64
818,834;62,61
819,06;62,56
819,286;62,5
819,512;62,57
819,737;62,57
819,963;62,58
820,189;62,58
820,414;62,57
820,64;62,55
820,865;62,61
821,091;62,58
821,316;62,52
821,542;62,54
821,767;62,57
821,993;62,56
822,218;62,53
822,444;62,48
822,669;62,47
822,895;62,49
823,12;62,48
823,345;62,43
823,571;62,29
823,796;62,3
824,021;62,26
824,247;62,3
824,472;62,24
824,697;62,23
824,922;62,22
825,147;62,18
825,373;62,2
825,598;62,14
825,823;62,22
826,048;62,28
826,273;62,26
826,498;62,29
826,723;62,19
826,948;62,23
827,173;62,23
827,398;62,18
827,623;62,17
827,848;62,16
828,073;62,15
828,298;62,23
828,523;62,31
828,748;62,3
828,973;62,14
829,197;62,2
829,422;62,1
829,647;62,06
829,872;62,02
830,097;61,97
830,321;61,97
830,546;61,94
830,771;61,89
830,995;61,93
831,22;61,83
831,445;61,84
831,669;61,8
831,894;61,81
832,118;61,88
832,343;61,86
832,567;61,86
832,792;61,9
833,016;61,92
833,241;61,85
833,465;61,88
833,69;61,97
833,914;61,95
834,139;62
834,363;61,99
834,587;61,99
834,812;61,98
835,036;62,01
835,26;62,06
835,485;62,11
835,709;62,07
835,933;62,06
836,157;62,06
836,381;62,12
836,606;62,1
836,83;62
837,054;61,94
837,278;61,87
837,502;61,85
837,726;61,79
837,95;61,79
838,174;61,83
838,398;61,81
838,622;61,81
838,846;61,83
839,07;61,86
839,294;61,82
839,518;61,81
839,742;61,8
839,966;61,73
840,189;61,63
840,413;61,66
840,637;61,68
840,861;61,72
841,085;61,66
841,308;61,61
841,532;61,72
841,756;61,78
841,979;61,81
842,203;61,84
842,427;61,86
842,65;61,82
842,874;61,82
843,098;61,72
843,321;61,68
843,545;61,66
843,768;61,62
843,992;61,62
844,215;61,57
844,439;61,51
844,662;61,48
844,886;61,52
845,109;61,52
845,332;61,47
845,556;61,38
845,779;61,34
846,002;61,45
846,226;61,41
846,449;61,24
846,672;61,19
846,895;61,16
847,119;61,1
847,342;61,1
847,565;61,01
847,788;61,01
848,011;61,02
848,234;61,04
848,457;61,04
848,681;61,05
848,904;61,12
849,127;61,09
849,35;61,14
849,573;61,12
849,796;61,07
850,019;61,06
850,241;61,14
850,464;61,24
850,687;61,32
850,91;61,27
851,133;61,44
851,356;61,51
851,579;61,49
851,801;61,5
852,024;61,56
852,247;61,6
852,47;61,61
852,692;61,48
852,915;61,47
853,138;61,44
853,36;61,42
853,583;61,32
853,806;61,3
854,028;61,19
854,251;61,24
854,473;61,27
854,696;61,28
854,918;61,23
855,141;61,09
855,363;61
855,586;61,08
855,808;61
856,031;60,88
856,253;60,96
856,475;61,01
856,698;60,89
856,92;60,86
857,142;60,84
857,365;60,94
857,587;60,85
857,809;60,86
858,031;60,88
858,253;60,87
858,476;60,88
858,698;60,89
858,92;60,81
859,142;60,8
859,364;60,77
859,586;60,75
859,808;60,8
860,03;60,67
860,252;60,58
860,474;60,63
860,696;60,75
860,918;60,59
861,14;60,57
861,362;60,62
861,584;60,55
861,806;60,56
862,028;60,48
862,25;60,52
862,471;60,43
862,693;60,42
862,915;60,41
863,137;60,27
863,358;60,36
863,58;60,36
863,802;60,27
864,024;60,26
864,245;60,19
864,467;60,18
864,688;60,18
864,91;60,25
865,132;60,2
865,353;60,19
865,575;60,27
865,796;60,2
866,018;60,17
866,239;60,18
866,461;60,1
866,682;60,13
866,903;60,12
867,125;60,09
867,346;60,05
867,567;60,12
867,789;60,28
868,01;60,23
868,231;60,17
868,453;60,22
868,674;60,25
868,895;60,3
869,116;60,26
869,337;60,29
869,559;60,16
869,78;60,15
870,001;60,06
870,222;60,06
870,443;60,06
870,664;60
870,885;60,11
871,106;60,12
871,327;60,11
871,548;60,1
871,769;60,09
871,99;60,08
872,211;60,03
872,432;59,95
872,653;59,86
872,874;59,93
873,094;59,9
873,315;59,87
873,536;59,81
873,757;59,9
873,978;59,91
874,198;59,85
874,419;59,84
874,64;59,91
874,86;59,89
875,081;59,94
875,302;60,02
875,522;59,94
875,743;59,97
875,963;59,94
876,184;59,92
876,404;59,9
876,625;59,93
876,845;59,96
877,066;59,97
877,286;60,01
877,507;59,98
877,727;59,93
877,947;59,89
878,168;59,91
878,388;59,93
878,609;59,9
878,829;59,98
879,049;59,99
879,269;60,01
879,49;60
879,71;59,94
879,93;59,97
880,15;59,91
880,37;59,87
880,59;59,86
880,811;59,84
881,031;59,89
881,251;59,79
881,471;59,89
881,691;59,9
881,911;59,78
882,131;59,78
882,351;59,8
882,571;59,86
882,791;59,89
883,011;59,8
883,23;59,79
883,45;59,74
883,67;59,72
883,89;59,53
884,11;59,43
884,33;59,34
884,549;59,35
884,769;59,45
884,989;59,5
885,209;59,61
885,428;59,76
885,648;59,71
885,868;59,7
886,087;59,57
886,307;59,57
886,526;59,75
886,746;59,7
886,965;59,61
887,185;59,61
887,404;59,64
887,624;59,68
887,843;59,71
888,063;59,74
888,282;59,74
888,502;59,77
888,721;59,84
888,94;59,98
889,16;59,91
889,379;59,81
889,598;59,85
889,818;59,82
890,037;59,71
890,256;59,73
890,475;59,8
890,694;59,77
890,914;59,69
891,133;59,51
891,352;59,55
891,571;59,6
891,79;59,53
892,009;59,44
892,228;59,39
892,447;59,28
892,666;59,36
892,885;59,35
893,104;59,35
893,323;59,37
893,542;59,41
893,761;59,44
893,98;59,4
894,199;59,32
894,417;59,27
894,636;59,28
894,855;59,26
895,074;59,25
895,293;59,25
895,511;59,26
895,73;59,27
895,949;59,16
896,167;59,17
896,386;59,23
896,605;59,26
896,823;59,3
897,042;59,31
897,26;59,27
897,479;59,31
897,697;59,37
897,916;59,3
898,134;59,14
898,353;59,09
898,571;59,16
898,79;59,22
899,008;59,15
899,227;59,1
899,445;59,14
899,663;59,19
899,882;59,21
900,1;59,36
900,318;59,43
900,536;59,51
900,755;59,63
900,973;59,48
901,191;59,44
901,409;59,36
901,627;59,38
901,846;59,41
902,064;59,42
902,282;59,39
902,5;59,4
902,718;59,45
902,936;59,54
903,154;59,49
903,372;59,45
903,59;59,48
903,808;59,42
904,026;59,41
904,244;59,29
904,462;59,16
904,679;59,04
904,897;59,11
905,115;59,07
905,333;59,02
905,551;59,15
905,768;59,09
905,986;59,18
906,204;59,16
906,422;59,03
906,639;59
906,857;59,01
907,074;59,01
907,292;59,08
907,51;58,93
907,727;58,92
907,945;58,95
908,162;58,95
908,38;59,06
908,597;59,01
908,815;59,2
909,032;59,19
909,25;59,27
909,467;58,99
909,684;58,99
909,902;58,86
910,119;58,89
910,337;59,05
910,554;59
910,771;58,92
910,988;58,98
911,206;59,03
911,423;59,04
911,64;59,04
911,857;58,92
912,074;58,99
912,291;58,93
912,509;59,01
912,726;59,1
912,943;59,1
913,16;59,18
913,377;59,16
913,594;59,33
913,811;59,29
914,028;59,66
914,245;59,68
914,462;59,72
914,679;59,68
914,896;59,68
915,112;59,56
915,329;59,63
915,546;59,64
915,763;59,63
915,98;59,52
916,196;59,4
916,413;59,47
916,63;59,52
916,847;59,66
917,063;59,63
917,28;59,46
917,497;59,44
917,713;59,37
917,93;59,33
918,146;59,29
918,363;59,3
918,579;59,09
918,796;59,13
919,012;59,19
919,229;59,14
919,445;59,06
919,662;59,13
919,878;59,08
920,095;59,18
920,311;59,06
920,527;59,01
920,744;59,29
920,96;59,39
921,176;59,19
921,392;59,07
921,609;58,97
921,825;59,09
922,041;59,11
922,257;59,19
922,473;59,31
922,69;59,3
922,906;59,24
923,122;59,37
923,338;59,47
923,554;59,4
923,77;59,42
923,986;59,48
924,202;59,49
924,418;59,64
924,634;59,63
924,85;59,81
925,066;59,96
925,282;59,71
925,497;59,54
925,713;59,6
925,929;59,76
926,145;59,75
926,361;59,73
926,576;59,77
926,792;59,62
927,008;59,39
927,224;59,37
927,439;59,41
927,655;59,36
927,871;59,26
928,086;59,35
928,302;59,3
928,517;59,34
928,733;59,37
928,948;59,29
929,164;59,24
929,379;59,15
929,595;59,09
929,81;59,14
930,026;59,22
930,241;59,23
930,456;59,07
930,672;59,07
930,887;59,19
931,102;59,08
931,318;59,21
931,533;59,22
931,748;59,24
931,964;59,09
932,179;58,98
932,394;58,93
932,609;58,79
932,824;58,86
933,039;58,71
933,255;58,57
933,47;58,43
933,685;58,28
933,9;58,23
934,115;58,19
934,33;58,29
934,545;58,17
934,76;58,18
934,975;58,24
935,19;58,25
935,404;57,95
935,619;58,07
935,834;58,14
936,049;58,21
936,264;58,17
936,479;58,37
936,693;58,62
936,908;58,89
937,123;59,03
937,338;59,06
937,552;59,22
937,767;59,49
937,982;60,06
938,196;60,4
938,411;60,59
938,625;61,01
938,84;60,91
939,055;60,87
939,269;60,88
939,484;60,93
939,698;60,97
939,912;61,41
940,127;61,37
940,341;60,99
940,556;61,1
940,77;61,48
940,984;61,43
941,199;61,42
941,413;61,2
941,627;61,22
941,842;61,29
942,056;61,05
942,27;61,06
942,484;61,34
942,699;61,57
942,913;61,8
943,127;61,22
943,341;61,68
943,555;62,05
943,769;62,54
943,983;62,47
944,197;62,62
944,411;62,22
944,625;61,88
944,839;62,31
945,053;62,32
945,267;61,96
945,481;61,9
945,695;61,88
945,909;61,91
946,123;62,24
946,336;62,26
946,55;62,61
946,764;62,51
946,978;61,82
947,192;61,19
947,405;60,63
947,619;61,33
947,833;61,28
948,046;62,13
948,26;61,91
948,474;62,26
948,687;62,44
948,901;62,91
949,114;63,16
949,328;63,37
949,541;63,13
949,755;63,09
949,968;62,97
950,182;62,96
950,395;62,9
950,609;62,73
950,822;62,6
951,035;62,64
951,249;62,6
951,462;62,52
951,675;62,94
951,889;62,8
952,102;62,46
952,315;62,4
952,528;61,81
952,741;61,22
952,955;61,06
953,168;60,67
953,381;60,43
953,594;60,75
953,807;60,43
954,02;60,63
954,233;60,43
954,446;60,43
954,659;60,51
954,872;60,39
955,085;60,3
955,298;60,43
955,511;60,12
955,724;59,84
955,937;60,09
956,15;60,04
956,362;60,06
956,575;60,17
956,788;60,27
957,001;60,11
957,214;60,4
957,426;60,19
957,639;60,5
957,852;60,32
958,064;59,8
958,277;59,8
958,49;60,07
958,702;60,45
958,915;60,29
959,127;60,31
959,34;60,3
959,552;60,27
959,765;60,2
959,977;60,44
960,19;60,74
960,402;60,61
960,615;60,56
960,827;60,51
961,039;60,13
961,252;59,71
961,464;59,55
961,676;59,66
961,889;59,88
962,101;59,58
962,313;59,96
962,525;60,1
962,738;60,01
962,95;59,97
963,162;59,68
963,374;59,65
963,586;59,51
963,798;60,04
964,01;59,8
964,222;59,77
964,434;59,87
964,646;59,77
964,858;59,56
965,07;59,62
965,282;59,5
965,494;60,02
965,706;60,08
965,918;60,34
966,13;60,46
966,342;60,17
966,553;60,41
966,765;60,2
966,977;60,59
967,189;60,66
967,401;60,43
967,612;60,15
967,824;60,63
968,036;60,57
968,247;60,05
968,459;60,08
968,67;60,24
968,882;59,82
969,094;59,81
969,305;59,97
969,517;59,77
969,728;60,47
969,94;60,2
970,151;60,16
970,362;60,24
970,574;60,44
970,785;60,68
970,997;60,52
971,208;60,33
971,419;60,17
971,631;60,66
971,842;60,71
972,053;61,27
972,264;61,32
972,476;61,22
972,687;61,18
972,898;61,54
973,109;61,17
973,32;61,84
973,531;61,86
973,742;61,97
973,954;62,05
974,165;62,09
974,376;62,34
974,587;62,94
974,798;62,83
975,009;62,81
975,22;63,01
975,43;63,27
975,641;63,5
975,852;63,3
976,063;63,09
976,274;62,9
976,485;62,94
976,695;62,72
976,906;62,81
977,117;63,45
977,328;63,37
977,538;63,32
977,749;62,74
977,96;63,23
978,17;62,83
978,381;62,55
978,592;62,23
978,802;62,21
979,013;61,98
979,223;62,08
979,434;62,07
979,644;61,97
979,855;61,91
980,065;62,32
980,276;62,6
980,486;62,82
980,696;62,95
980,907;62,93
981,117;63,15
981,327;63,56
981,538;63,32
981,748;63,28
981,958;63,47
982,169;63,93
982,379;63,58
982,589;63,6
982,799;64,18
983,009;64,39
983,219;64,51
983,43;63,85
983,64;63,59
983,85;63,38
984,06;63,43
984,27;63,1
984,48;63
984,69;62,85
984,9;62,21
985,11;62,74
985,32;62,25
985,529;62,13
985,739;61,46
985,949;61,52
986,159;61,6
986,369;61,75
986,579;62,24
986,788;62,45
986,998;63,01
987,208;62,57
987,417;62,07
987,627;61,39
987,837;61,78
988,046;61,79
988,256;61,68
988,466;61,37
988,675;61,46
988,885;61,4
989,094;61,92
989,304;62,06
989,513;61,75
989,723;62,54
989,932;62,55
990,142;63,08
990,351;62,74
990,56;62,76
990,77;62,96
990,979;61,97
991,188;61,92
991,398;61,65
991,607;62,06
991,816;63,03
992,025;63,61
992,235;63,84
992,444;64,71
992,653;65,27
992,862;65,28
993,071;66
993,28;66,04
993,489;65,59
993,698;65,67
993,908;65,72
994,117;65,46
994,326;65,82
994,534;65,42
994,743;65,74
994,952;66,3
995,161;65,85
995,37;66,77
995,579;67,12
995,788;66,94
995,997;66,74
996,205;66,26
996,414;66,66
996,623;66,73
996,832;66,54
997,04;66,44
997,249;66,49
997,458;65,71
997,666;65,43
997,875;65,97
998,084;65,59
998,292;65,34
998,501;65,45
998,709;64,25
998,918;64,34
999,126;64,03
999,335;63,85
999,543;64,11
999,752;63,28
999,96;62,58
1000,169;62,47
1000,377;62,47
1000,585;61,84
1000,794;61,48
1001,002;61,31
1001,21;60,94
1001,418;60,61
1001,627;60,96
1001,835;61,69
1002,043;62,29
1002,251;61,95
1002,459;62,76
1002,668;63,17
1002,876;63,02
1003,084;63,38
1003,292;63,52
1003,5;63,7
1003,708;63,52
1003,916;62,89
1004,124;63,26
1004,332;63,6
1004,54;64,4
1004,748;64,56
1004,956;65,39
1005,163;64,83
1005,371;64,18
1005,579;64,78
1005,787;64,69
1005,995;65,42
1006,202;65,63
1006,41;65,44
1006,618;65,42
1006,826;65,17
1007,033;64,7
1007,241;64,78
1007,449;65,04
1007,656;65,35
1007,864;65,87
1008,071;66,93
1008,279;68,28
1008,486;68,54
1008,694;68,64
1008,901;68,32
1009,109;67,94
1009,316;67,73
1009,524;67,49
1009,731;68,56
1009,938;68,47
1010,146;68,54
1010,353;68,5
1010,56;67,17
1010,768;66,92
1010,975;67,13
1011,182;67,05
1011,389;66,57
1011,597;66,75
1011,804;67,29
1012,011;67,46
1012,218;66,54
1012,425;66,33
1012,632;65,54
1012,839;65,15
1013,046;64,2
1013,253;65,28
1013,46;66,55
1013,667;66,2
1013,874;67,44
1014,081;68,37
1014,288;67,99
1014,495;68,09
1014,702;66,75
1014,909;67,83
1015,116;67,66
1015,323;67,79
1015,529;68,62
1015,736;69,73
1015,943;70,15
1016,15;69,45
1016,356;70,27
1016,563;71,09
1016,77;69,67
1016,976;70,64
1017,183;70,91
1017,389;72,13
1017,596;71,31
1017,803;70,13
1018,009;70,8
1018,216;69,97
1018,422;68,96
1018,629;68,79
1018,835;69,44
1019,041;70,69
1019,248;70,78
1019,454;70,95
1019,661;69,49
1019,867;68,95
1020,073;69,34
1020,279;69,24
1020,486;69,01
1020,692;67,4
1020,898;66,31
1021,104;67,07
1021,311;65,92
1021,517;64,74
1021,723;65,89
1021,929;65,49
1022,135;66,89
1022,341;65,83
1022,547;66,84
1022,753;67,45
1022,959;67,67
1023,165;68
1023,371;68,52
1023,577;67,79
1023,783;65,64
1023,989;66,42
1024,195;67,02
1024,401;66,67
1024,607;66,07
1024,812;67,17
1025,018;67,11
1025,224;67,97
1025,43;67,9
1025,635;67,32
1025,841;69,84
1026,047;67,95
1026,252;69,67
1026,458;69,13
1026,664;72,69
1026,869;72,3
1027,075;72,52
1027,28;70,87
1027,486;70,32
1027,691;69,27
1027,897;70,56
1028,102;72,24
1028,308;71,9
1028,513;71,58
1028,719;70,63
1028,924;70,4
1029,129;70,82
1029,335;70,46
1029,54;70,49
1029,745;69,65
1029,95;69,52
1030,156;69,88
1030,361;69,42
1030,566;69,51
1030,771;69,37
1030,976;67,26
1031,182;66,77
1031,387;64,18
1031,592;67,37
1031,797;67,23
1032,002;67,18
1032,207;67,21
1032,412;68,4
1032,617;69,79
1032,822;68,67
1033,027;70,38
1033,232;71,18
1033,437;70,28
1033,642;73,09
1033,846;72,84
1034,051;74
1034,256;76,73
1034,461;73,28
1034,666;74,49
1034,87;72,62
1035,075;71,38
1035,28;71,45
1035,484;72,42
1035,689;72,11
1035,894;70,1
1036,098;69,12
1036,303;68,9
1036,507;68,82
1036,712;67,71
1036,917;67,08
1037,121;69,48
1037,325;67,37
1037,53;67,67
1037,734;67,77
1037,939;67,4
1038,143;68,62
1038,348;69,59
1038,552;69,77
1038,756;70,8
1038,961;70,1
1039,165;68,58
1039,369;69,52
1039,573;69,22
1039,778;68,44
1039,982;69,04
1040,186;69,5
1040,39;71,05
1040,594;71,45
1040,798;69,21
1041,002;71,21
1041,206;71,34
1041,41;70,33
1041,614;72
1041,818;70,15
1042,022;68,82
1042,226;68,14
1042,43;67,07
1042,634;65,54
1042,838;65,05
1043,042;65,02
1043,246;67,3
1043,45;69,55
1043,653;71,09
1043,857;70,37
1044,061;70,72
1044,265;71,59
1044,468;73,16
1044,672;73,44
1044,876;72,57
1045,079;75,94
1045,283;76,6
1045,487;73,42
1045,69;72,67
1045,894;71,1
1046,097;75,28
1046,301;77,06
1046,504;78,69
1046,708;79,01
1046,911;82,21
1047,115;82,27
1047,318;82,76
1047,522;82,63
1047,725;78,3
1047,928;74,61
1048,132;73,64
1048,335;70,18
1048,538;70,87
1048,741;68,89
1048,945;68,06
1049,148;70,39
1049,351;67,61
1049,554;65,72
1049,757;69,35
1049,96;67,56
1050,163;69,11
1050,367;66,89
1050,57;65,63
1050,773;61,5
1050,976;61,39
1051,179;57,22
1051,382;59,55
1051,585;61,8
1051,787;62,32
1051,99;67,45
1052,193;69,32
1052,396;71,73
1052,599;75,83
1052,802;80,12
1053,005;79,08
1053,207;79,17
1053,41;76,93
1053,613;77,05
1053,815;78,23
1054,018;77,19
1054,221;79,83
1054,423;80,58
1054,626;78,75
1054,829;81,45
1055,031;84
1055,234;85,6
1055,436;89,51
1055,639;85,81
1055,841;81,37
1056,044;79,76
1056,246;76,54
