Data from cinnabarWhite_Reflection__0__15.txt Node;
"Date: Wed Sep 10 11:46:58 CEST 2025 User: sycur Spectrometer: SR400348 Trigger mode: 0 Integration Time (sec): 1,000000E-2 Scans to average: 10 Electric dark correction enabled: true Nonlinearity correction enabled: false Boxcar width: 10 XAxis mode: Wavelengths Number of Pixels in Spectrum: 3648 >>>>>Begin Spectral Data<<<<<";
186,01;84,74
186,281;69,97
186,552;88,47
186,822;74,37
187,093;-333,33
187,364;192,72
187,635;39,48
187,905;23,66
188,176;55,51
188,447;52,23
188,717;33
188,988;33,78
189,258;33,32
189,529;31,69
189,8;29,52
190,07;33,32
190,341;33,01
190,611;28,97
190,882;28,79
191,152;30,9
191,423;29,84
191,693;28,56
191,964;27,55
192,234;29,63
192,505;30,13
192,775;29,92
193,045;30,3
193,316;28,97
193,586;29,02
193,856;28,15
194,127;28,02
194,397;30,29
194,667;30,91
194,938;31,11
195,208;31,36
195,478;32,4
195,748;31,73
196,019;30,92
196,289;32,67
196,559;32,43
196,829;30,29
197,099;30,8
197,37;30,29
197,64;31,7
197,91;30,89
198,18;30,41
198,45;31,62
198,72;30,78
198,99;31,31
199,26;31,14
199,53;30,61
199,8;30,55
200,07;30,56
200,34;30,94
200,61;30,21
200,88;30,04
201,15;29,82
201,42;29,35
201,69;29,22
201,96;28,62
202,23;28,94
202,499;30,18
202,769;29,49
203,039;28,49
203,309;27,21
203,579;26,86
203,849;27,32
204,118;26,72
204,388;26,77
204,658;26,69
204,927;26,41
205,197;26,14
205,467;25,95
205,736;25,82
206,006;24,92
206,276;24,76
206,545;24,74
206,815;24,43
207,085;24,44
207,354;24,34
207,624;23,92
207,893;23,53
208,163;23,03
208,432;23,08
208,702;23,32
208,971;23,35
209,241;23,39
209,51;23,28
209,78;22,99
210,049;22,79
210,318;22,5
210,588;22,87
210,857;22,79
211,127;22,89
211,396;22,38
211,665;22,37
211,935;22,41
212,204;22,32
212,473;22,37
212,742;22,34
213,012;22,33
213,281;22,39
213,55;22,46
213,819;22,55
214,088;22,48
214,358;22,41
214,627;22,57
214,896;22,47
215,165;22,37
215,434;22,46
215,703;22,47
215,972;22,58
216,241;22,33
216,51;22,33
216,779;22,1
217,048;22,17
217,317;22,07
217,586;22,14
217,855;22,21
218,124;22,31
218,393;22,18
218,662;22,25
218,931;22,18
219,2;21,95
219,469;21,85
219,738;21,85
220,006;22
220,275;21,87
220,544;21,9
220,813;21,87
221,082;21,86
221,35;21,84
221,619;21,79
221,888;21,82
222,157;21,87
222,425;21,86
222,694;21,72
222,963;21,84
223,231;21,77
223,5;21,66
223,769;21,52
224,037;21,58
224,306;21,47
224,574;21,4
224,843;21,48
225,111;21,39
225,38;21,23
225,648;21,11
225,917;21,04
226,185;20,97
226,454;20,92
226,722;20,9
226,991;20,79
227,259;20,73
227,528;20,61
227,796;20,54
228,064;20,47
228,333;20,53
228,601;20,41
228,869;20,4
229,138;20,33
229,406;20,3
229,674;20,27
229,942;20,17
230,211;20,2
230,479;20,17
230,747;20,15
231,015;20,17
231,283;20,13
231,552;20,09
231,82;20
232,088;19,96
232,356;19,91
232,624;19,9
232,892;19,86
233,16;19,85
233,428;19,83
233,696;19,79
233,964;19,76
234,232;19,78
234,5;19,72
234,768;19,67
235,036;19,6
235,304;19,57
235,572;19,61
235,84;19,52
236,108;19,42
236,376;19,39
236,644;19,34
236,912;19,33
237,179;19,31
237,447;19,32
237,715;19,29
237,983;19,22
238,251;19,19
238,518;19,16
238,786;19,12
239,054;19,06
239,322;19,04
239,589;18,97
239,857;18,91
240,125;18,9
240,392;18,93
240,66;18,95
240,927;18,87
241,195;18,85
241,463;18,88
241,73;18,92
241,998;18,92
242,265;18,91
242,533;18,94
242,8;18,92
243,068;18,89
243,335;18,84
243,603;18,84
243,87;18,83
244,138;18,85
244,405;18,83
244,672;18,83
244,94;18,81
245,207;18,83
245,474;18,84
245,742;18,78
246,009;18,74
246,276;18,73
246,544;18,71
246,811;18,69
247,078;18,69
247,345;18,67
247,613;18,63
247,88;18,57
248,147;18,48
248,414;18,41
248,681;18,4
248,948;18,44
249,215;18,41
249,483;18,37
249,75;18,33
250,017;18,29
250,284;18,26
250,551;18,27
250,818;18,23
251,085;18,17
251,352;18,2
251,619;18,2
251,886;18,15
252,153;18,12
252,42;18,08
252,687;17,98
252,953;17,96
253,22;17,95
253,487;17,99
253,754;17,98
254,021;17,99
254,288;17,95
254,555;17,91
254,821;17,92
255,088;17,88
255,355;17,82
255,622;17,8
255,888;17,76
256,155;17,71
256,422;17,68
256,688;17,67
256,955;17,63
257,222;17,57
257,488;17,55
257,755;17,53
258,022;17,47
258,288;17,45
258,555;17,4
258,821;17,35
259,088;17,32
259,354;17,29
259,621;17,27
259,887;17,29
260,154;17,24
260,42;17,22
260,687;17,2
260,953;17,2
261,219;17,2
261,486;17,16
261,752;17,15
262,019;17,14
262,285;17,09
262,551;17,03
262,818;17,02
263,084;16,99
263,35;16,98
263,616;16,98
263,883;16,99
264,149;17
264,415;16,97
264,681;16,96
264,947;16,95
265,214;16,95
265,48;16,89
265,746;16,91
266,012;16,9
266,278;16,86
266,544;16,83
266,81;16,8
267,076;16,81
267,342;16,79
267,608;16,79
267,874;16,78
268,14;16,8
268,406;16,78
268,672;16,77
268,938;16,77
269,204;16,75
269,47;16,72
269,736;16,68
270,002;16,69
270,268;16,66
270,533;16,65
270,799;16,65
271,065;16,64
271,331;16,62
271,597;16,63
271,862;16,64
272,128;16,67
272,394;16,66
272,66;16,65
272,925;16,66
273,191;16,64
273,457;16,64
273,722;16,63
273,988;16,62
274,254;16,64
274,519;16,62
274,785;16,64
275,05;16,61
275,316;16,62
275,582;16,61
275,847;16,62
276,113;16,58
276,378;16,54
276,644;16,54
276,909;16,5
277,174;16,45
277,44;16,46
277,705;16,43
277,971;16,43
278,236;16,44
278,501;16,42
278,767;16,45
279,032;16,45
279,297;16,44
279,563;16,41
279,828;16,37
280,093;16,33
280,358;16,28
280,624;16,27
280,889;16,25
281,154;16,25
281,419;16,22
281,684;16,23
281,95;16,21
282,215;16,21
282,48;16,21
282,745;16,24
283,01;16,21
283,275;16,18
283,54;16,14
283,805;16,11
284,07;16,11
284,335;16,05
284,6;16,02
284,865;15,99
285,13;16
285,395;15,98
285,66;15,99
285,925;16,03
286,19;16,04
286,455;16,04
286,72;16,01
286,985;15,98
287,249;15,95
287,514;15,96
287,779;15,93
288,044;15,92
288,309;15,87
288,573;15,84
288,838;15,89
289,103;15,89
289,367;15,86
289,632;15,84
289,897;15,82
290,161;15,83
290,426;15,82
290,691;15,83
290,955;15,8
291,22;15,76
291,484;15,71
291,749;15,7
292,014;15,68
292,278;15,68
292,543;15,7
292,807;15,69
293,072;15,64
293,336;15,61
293,6;15,58
293,865;15,54
294,129;15,53
294,394;15,47
294,658;15,45
294,922;15,45
295,187;15,43
295,451;15,44
295,715;15,39
295,98;15,37
296,244;15,34
296,508;15,32
296,773;15,34
297,037;15,33
297,301;15,28
297,565;15,27
297,829;15,24
298,094;15,22
298,358;15,18
298,622;15,17
298,886;15,18
299,15;15,18
299,414;15,19
299,678;15,2
299,942;15,18
300,206;15,15
300,47;15,13
300,734;15,1
300,998;15,04
301,262;15,05
301,526;14,99
301,79;14,95
302,054;14,95
302,318;14,91
302,582;14,91
302,846;14,89
303,11;14,88
303,374;14,84
303,637;14,82
303,901;14,83
304,165;14,82
304,429;14,81
304,693;14,75
304,956;14,75
305,22;14,72
305,484;14,73
305,747;14,73
306,011;14,71
306,275;14,68
306,538;14,68
306,802;14,69
307,066;14,71
307,329;14,71
307,593;14,69
307,856;14,67
308,12;14,66
308,384;14,65
308,647;14,62
308,911;14,65
309,174;14,61
309,438;14,56
309,701;14,51
309,964;14,47
310,228;14,5
310,491;14,45
310,755;14,43
311,018;14,39
311,281;14,39
311,545;14,4
311,808;14,38
312,071;14,37
312,335;14,32
312,598;14,27
312,861;14,28
313,124;14,27
313,388;14,31
313,651;14,27
313,914;14,23
314,177;14,2
314,44;14,16
314,704;14,16
314,967;14,18
315,23;14,21
315,493;14,19
315,756;14,14
316,019;14,12
316,282;14,11
316,545;14,07
316,808;14,06
317,071;14,04
317,334;14
317,597;13,99
317,86;13,98
318,123;14
318,386;13,95
318,649;13,91
318,912;13,87
319,175;13,87
319,437;13,86
319,7;13,86
319,963;13,84
320,226;13,81
320,489;13,75
320,751;13,7
321,014;13,67
321,277;13,66
321,54;13,6
321,802;13,58
322,065;13,58
322,328;13,54
322,59;13,51
322,853;13,53
323,116;13,5
323,378;13,48
323,641;13,42
323,903;13,42
324,166;13,43
324,428;13,35
324,691;13,31
324,953;13,29
325,216;13,26
325,478;13,22
325,741;13,18
326,003;13,18
326,266;13,16
326,528;13,15
326,791;13,11
327,053;13,16
327,315;13,11
327,578;13,12
327,84;13,09
328,102;13,04
328,365;13,02
328,627;12,98
328,889;12,97
329,151;12,99
329,414;12,96
329,676;12,9
329,938;12,94
330,2;12,9
330,462;12,88
330,725;12,86
330,987;12,88
331,249;12,91
331,511;12,85
331,773;12,85
332,035;12,85
332,297;12,88
332,559;12,82
332,821;12,8
333,083;12,76
333,345;12,75
333,607;12,77
333,869;12,75
334,131;12,79
334,393;12,78
334,655;12,71
334,917;12,69
335,179;12,7
335,44;12,67
335,702;12,68
335,964;12,68
336,226;12,69
336,488;12,65
336,749;12,61
337,011;12,64
337,273;12,65
337,535;12,64
337,796;12,59
338,058;12,64
338,32;12,6
338,581;12,59
338,843;12,57
339,105;12,56
339,366;12,53
339,628;12,5
339,889;12,51
340,151;12,51
340,412;12,48
340,674;12,49
340,935;12,48
341,197;12,49
341,458;12,47
341,72;12,47
341,981;12,45
342,243;12,44
342,504;12,43
342,766;12,38
343,027;12,36
343,288;12,38
343,55;12,37
343,811;12,39
344,072;12,34
344,334;12,34
344,595;12,32
344,856;12,31
345,117;12,32
345,379;12,3
345,64;12,32
345,901;12,33
346,162;12,29
346,423;12,3
346,684;12,27
346,946;12,27
347,207;12,25
347,468;12,27
347,729;12,22
347,99;12,23
348,251;12,22
348,512;12,2
348,773;12,18
349,034;12,13
349,295;12,13
349,556;12,16
349,817;12,14
350,078;12,09
350,339;12,08
350,6;12,06
350,86;12,06
351,121;12,03
351,382;12,01
351,643;11,99
351,904;11,93
352,165;11,88
352,425;11,85
352,686;11,83
352,947;11,79
353,208;11,8
353,468;11,76
353,729;11,73
353,99;11,74
354,25;11,71
354,511;11,69
354,772;11,68
355,032;11,67
355,293;11,66
355,553;11,63
355,814;11,62
356,074;11,58
356,335;11,54
356,596;11,53
356,856;11,48
357,116;11,45
357,377;11,51
357,637;11,53
357,898;11,53
358,158;11,52
358,419;11,49
358,679;11,5
358,939;11,48
359,2;11,45
359,46;11,4
359,72;11,4
359,981;11,36
360,241;11,32
360,501;11,26
360,761;11,23
361,022;11,24
361,282;11,2
361,542;11,21
361,802;11,16
362,062;11,13
362,323;11,13
362,583;11,17
362,843;11,11
363,103;11,09
363,363;11,08
363,623;11,05
363,883;11,09
364,143;11,08
364,403;11,07
364,663;11,08
364,923;11,16
365,183;11,19
365,443;11,21
365,703;11,19
365,963;11,22
366,223;11,25
366,483;11,25
366,743;11,24
367,002;11,26
367,262;11,26
367,522;11,23
367,782;11,24
368,042;11,22
368,301;11,23
368,561;11,22
368,821;11,19
369,081;11,21
369,34;11,16
369,6;11,14
369,86;11,1
370,119;11,14
370,379;11,08
370,638;11,04
370,898;11,02
371,158;11,03
371,417;11,01
371,677;10,96
371,936;10,97
372,196;11
372,455;10,98
372,715;10,96
372,974;11,01
373,234;10,99
373,493;10,97
373,753;10,99
374,012;10,98
374,271;11,01
374,531;10,98
374,79;11,03
375,049;11,07
375,309;11,06
375,568;11,02
375,827;10,97
376,086;10,95
376,346;10,92
376,605;10,92
376,864;10,91
377,123;10,94
377,383;10,92
377,642;10,89
377,901;10,88
378,16;10,89
378,419;10,84
378,678;10,8
378,937;10,8
379,196;10,75
379,455;10,78
379,714;10,72
379,973;10,73
380,232;10,71
380,491;10,65
380,75;10,67
381,009;10,65
381,268;10,7
381,527;10,69
381,786;10,71
382,045;10,69
382,304;10,69
382,563;10,67
382,821;10,69
383,08;10,69
383,339;10,66
383,598;10,67
383,857;10,67
384,115;10,69
384,374;10,66
384,633;10,67
384,891;10,63
385,15;10,58
385,409;10,59
385,667;10,55
385,926;10,5
386,185;10,47
386,443;10,46
386,702;10,41
386,96;10,39
387,219;10,39
387,477;10,45
387,736;10,41
387,994;10,41
388,253;10,39
388,511;10,35
388,77;10,37
389,028;10,34
389,287;10,32
389,545;10,33
389,803;10,34
390,062;10,33
390,32;10,32
390,578;10,36
390,837;10,34
391,095;10,35
391,353;10,38
391,612;10,42
391,87;10,42
392,128;10,43
392,386;10,44
392,644;10,42
392,903;10,36
393,161;10,34
393,419;10,3
393,677;10,27
393,935;10,29
394,193;10,26
394,451;10,25
394,709;10,24
394,967;10,27
395,225;10,25
395,483;10,29
395,741;10,3
395,999;10,32
396,257;10,32
396,515;10,28
396,773;10,25
397,031;10,23
397,289;10,24
397,547;10,19
397,805;10,17
398,062;10,19
398,32;10,16
398,578;10,19
398,836;10,2
399,094;10,16
399,351;10,15
399,609;10,17
399,867;10,15
400,124;10,22
400,382;10,17
400,64;10,19
400,897;10,12
401,155;10,11
401,413;10,09
401,67;10,1
401,928;10,15
402,185;10,16
402,443;10,11
402,701;10,11
402,958;10,14
403,216;10,13
403,473;10,09
403,73;10,13
403,988;10,13
404,245;10,15
404,503;10,15
404,76;10,13
405,018;10,11
405,275;10,15
405,532;10,13
405,79;10,13
406,047;10,12
406,304;10,16
406,561;10,14
406,819;10,2
407,076;10,19
407,333;10,19
407,59;10,2
407,848;10,23
408,105;10,17
408,362;10,23
408,619;10,27
408,876;10,29
409,133;10,24
409,39;10,26
409,647;10,29
409,904;10,28
410,161;10,28
410,418;10,27
410,675;10,26
410,932;10,2
411,189;10,17
411,446;10,12
411,703;10,12
411,96;10,13
412,217;10,07
412,474;10,02
412,731;10,02
412,988;10,03
413,245;10,08
413,501;10,12
413,758;10,05
414,015;10
414,272;10,01
414,529;10,09
414,785;10,05
415,042;10,05
415,299;10,11
415,555;10,09
415,812;10,03
416,069;10,03
416,325;10,03
416,582;10,12
416,838;10,15
417,095;10,12
417,352;10,07
417,608;10,06
417,865;10,08
418,121;10,05
418,378;10,05
418,634;10
418,891;10
419,147;10,02
419,403;10,04
419,66;9,98
419,916;9,94
420,173;9,91
420,429;9,86
420,685;9,84
420,942;9,84
421,198;9,9
421,454;9,9
421,711;9,88
421,967;9,81
422,223;9,83
422,479;9,84
422,735;9,88
422,992;9,92
423,248;9,87
423,504;9,86
423,76;9,88
424,016;9,88
424,272;9,87
424,528;9,88
424,784;9,83
425,041;9,86
425,297;9,84
425,553;9,94
425,809;9,89
426,065;9,84
426,32;9,87
426,576;9,85
426,832;9,82
427,088;9,8
427,344;9,82
427,6;9,87
427,856;9,84
428,112;9,82
428,368;9,79
428,623;9,81
428,879;9,83
429,135;9,81
429,391;9,79
429,646;9,83
429,902;9,79
430,158;9,86
430,414;9,83
430,669;9,84
430,925;9,77
431,181;9,83
431,436;9,91
431,692;9,88
431,947;9,89
432,203;9,87
432,458;9,89
432,714;9,88
432,97;9,86
433,225;9,89
433,481;9,9
433,736;9,89
433,991;9,91
434,247;9,87
434,502;9,88
434,758;9,9
435,013;9,83
435,268;9,82
435,524;9,8
435,779;9,79
436,034;9,79
436,29;9,79
436,545;9,76
436,8;9,71
437,056;9,75
437,311;9,74
437,566;9,74
437,821;9,73
438,076;9,74
438,331;9,71
438,587;9,72
438,842;9,72
439,097;9,73
439,352;9,74
439,607;9,73
439,862;9,68
440,117;9,67
440,372;9,68
440,627;9,7
440,882;9,68
441,137;9,69
441,392;9,69
441,647;9,7
441,902;9,73
442,157;9,73
442,412;9,71
442,667;9,7
442,921;9,7
443,176;9,75
443,431;9,74
443,686;9,73
443,941;9,7
444,195;9,71
444,45;9,68
444,705;9,69
444,96;9,71
445,214;9,72
445,469;9,7
445,724;9,68
445,978;9,69
446,233;9,72
446,487;9,76
446,742;9,75
446,997;9,74
447,251;9,74
447,506;9,74
447,76;9,75
448,015;9,75
448,269;9,82
448,524;9,81
448,778;9,78
449,033;9,75
449,287;9,74
449,541;9,73
449,796;9,77
450,05;9,8
450,305;9,82
450,559;9,83
450,813;9,89
451,067;9,86
451,322;9,86
451,576;9,81
451,83;9,78
452,084;9,79
452,339;9,83
452,593;9,81
452,847;9,82
453,101;9,81
453,355;9,82
453,609;9,77
453,864;9,74
454,118;9,73
454,372;9,78
454,626;9,78
454,88;9,81
455,134;9,81
455,388;9,76
455,642;9,76
455,896;9,73
456,15;9,67
456,404;9,72
456,658;9,66
456,912;9,69
457,165;9,65
457,419;9,64
457,673;9,57
457,927;9,51
458,181;9,5
458,435;9,46
458,688;9,41
458,942;9,41
459,196;9,41
459,45;9,41
459,703;9,41
459,957;9,43
460,211;9,36
460,464;9,35
460,718;9,36
460,972;9,35
461,225;9,35
461,479;9,38
461,732;9,35
461,986;9,35
462,239;9,38
462,493;9,41
462,746;9,45
463;9,44
463,253;9,51
463,507;9,46
463,76;9,5
464,014;9,56
464,267;9,55
464,52;9,56
464,774;9,58
465,027;9,56
465,28;9,57
465,534;9,58
465,787;9,57
466,04;9,56
466,294;9,57
466,547;9,56
466,8;9,54
467,053;9,54
467,306;9,55
467,56;9,57
467,813;9,53
468,066;9,5
468,319;9,53
468,572;9,47
468,825;9,54
469,078;9,56
469,331;9,53
469,584;9,53
469,837;9,54
470,09;9,57
470,343;9,55
470,596;9,55
470,849;9,59
471,102;9,56
471,355;9,58
471,608;9,58
471,861;9,62
472,114;9,65
472,367;9,64
472,619;9,68
472,872;9,64
473,125;9,67
473,378;9,66
473,631;9,7
473,883;9,71
474,136;9,68
474,389;9,7
474,641;9,7
474,894;9,69
475,147;9,69
475,399;9,67
475,652;9,68
475,905;9,7
476,157;9,68
476,41;9,75
476,662;9,76
476,915;9,77
477,167;9,77
477,42;9,79
477,672;9,83
477,925;9,82
478,177;9,86
478,43;9,88
478,682;9,88
478,934;9,86
479,187;9,88
479,439;9,88
479,691;9,87
479,944;9,9
480,196;9,95
480,448;9,98
480,701;10,01
480,953;10,03
481,205;10,02
481,457;10,03
481,709;10
481,962;10,01
482,214;10,05
482,466;10,08
482,718;10,13
482,97;10,18
483,222;10,27
483,474;10,32
483,726;10,36
483,978;10,42
484,23;10,48
484,482;10,49
484,734;10,52
484,986;10,53
485,238;10,53
485,49;10,53
485,742;10,53
485,994;10,52
486,246;10,52
486,498;10,52
486,75;10,53
487,001;10,56
487,253;10,56
487,505;10,54
487,757;10,54
488,009;10,52
488,26;10,5
488,512;10,48
488,764;10,43
489,015;10,41
489,267;10,38
489,519;10,32
489,77;10,33
490,022;10,33
490,274;10,34
490,525;10,35
490,777;10,35
491,028;10,38
491,28;10,42
491,531;10,43
491,783;10,47
492,034;10,5
492,286;10,51
492,537;10,58
492,789;10,59
493,04;10,61
493,291;10,61
493,543;10,63
493,794;10,6
494,045;10,65
494,297;10,66
494,548;10,7
494,799;10,73
495,051;10,76
495,302;10,82
495,553;10,83
495,804;10,85
496,056;10,88
496,307;10,87
496,558;10,9
496,809;10,93
497,06;10,96
497,311;10,95
497,562;10,98
497,813;10,96
498,064;11,01
498,316;11,04
498,567;11,1
498,818;11,1
499,069;11,15
499,319;11,18
499,57;11,21
499,821;11,24
500,072;11,27
500,323;11,3
500,574;11,3
500,825;11,35
501,076;11,4
501,327;11,44
501,577;11,5
501,828;11,53
502,079;11,57
502,33;11,62
502,58;11,69
502,831;11,75
503,082;11,81
503,333;11,87
503,583;11,88
503,834;11,94
504,084;12,02
504,335;12,08
504,586;12,14
504,836;12,23
505,087;12,28
505,337;12,37
505,588;12,45
505,838;12,54
506,089;12,62
506,339;12,69
506,59;12,8
506,84;12,88
507,091;12,98
507,341;13,05
507,591;13,13
507,842;13,21
508,092;13,3
508,343;13,37
508,593;13,45
508,843;13,54
509,093;13,59
509,344;13,68
509,594;13,79
509,844;13,87
510,094;13,94
510,345;14,06
510,595;14,13
510,845;14,21
511,095;14,28
511,345;14,34
511,595;14,44
511,845;14,5
512,095;14,57
512,345;14,61
512,595;14,7
512,845;14,76
513,095;14,86
513,345;14,92
513,595;15
513,845;15,04
514,095;15,13
514,345;15,22
514,595;15,28
514,845;15,3
515,095;15,35
515,345;15,38
515,594;15,41
515,844;15,45
516,094;15,51
516,344;15,56
516,593;15,61
516,843;15,62
517,093;15,66
517,343;15,68
517,592;15,75
517,842;15,78
518,092;15,84
518,341;15,85
518,591;15,89
518,84;15,91
519,09;15,97
519,34;16,02
519,589;16,03
519,839;16,04
520,088;16,11
520,338;16,16
520,587;16,2
520,836;16,23
521,086;16,27
521,335;16,3
521,585;16,34
521,834;16,38
522,083;16,41
522,333;16,45
522,582;16,51
522,831;16,56
523,081;16,58
523,33;16,6
523,579;16,63
523,828;16,69
524,078;16,72
524,327;16,73
524,576;16,75
524,825;16,78
525,074;16,84
525,323;16,86
525,573;16,86
525,822;16,9
526,071;16,93
526,32;16,96
526,569;17
526,818;17,03
527,067;17,05
527,316;17,08
527,565;17,11
527,814;17,13
528,063;17,15
528,312;17,18
528,56;17,18
528,809;17,18
529,058;17,19
529,307;17,22
529,556;17,25
529,805;17,26
530,053;17,29
530,302;17,31
530,551;17,36
530,8;17,39
531,048;17,4
531,297;17,42
531,546;17,42
531,794;17,42
532,043;17,41
532,292;17,45
532,54;17,46
532,789;17,46
533,037;17,48
533,286;17,47
533,535;17,48
533,783;17,51
534,032;17,56
534,28;17,54
534,528;17,55
534,777;17,57
535,025;17,59
535,274;17,63
535,522;17,66
535,771;17,66
536,019;17,69
536,267;17,71
536,516;17,74
536,764;17,8
537,012;17,82
537,26;17,83
537,509;17,85
537,757;17,88
538,005;17,89
538,253;17,91
538,501;17,96
538,75;17,95
538,998;17,99
539,246;17,98
539,494;18,02
539,742;18,04
539,99;18,1
540,238;18,1
540,486;18,12
540,734;18,08
540,982;18,11
541,23;18,13
541,478;18,15
541,726;18,16
541,974;18,17
542,222;18,2
542,47;18,24
542,718;18,26
542,966;18,29
543,213;18,29
543,461;18,33
543,709;18,34
543,957;18,4
544,205;18,4
544,452;18,44
544,7;18,47
544,948;18,52
545,196;18,5
545,443;18,55
545,691;18,56
545,939;18,62
546,186;18,62
546,434;18,65
546,681;18,65
546,929;18,68
547,176;18,69
547,424;18,72
547,671;18,73
547,919;18,75
548,166;18,77
548,414;18,81
548,661;18,83
548,909;18,84
549,156;18,86
549,404;18,89
549,651;18,9
549,898;18,93
550,146;18,93
550,393;18,98
550,64;19
550,888;19,03
551,135;19,06
551,382;19,1
551,629;19,11
551,876;19,17
552,124;19,22
552,371;19,27
552,618;19,27
552,865;19,32
553,112;19,35
553,359;19,4
553,606;19,44
553,854;19,47
554,101;19,5
554,348;19,55
554,595;19,59
554,842;19,62
555,089;19,64
555,336;19,69
555,582;19,73
555,829;19,75
556,076;19,79
556,323;19,81
556,57;19,83
556,817;19,9
557,064;19,92
557,311;19,94
557,557;19,96
557,804;20,04
558,051;20,05
558,298;20,1
558,544;20,13
558,791;20,15
559,038;20,17
559,284;20,22
559,531;20,27
559,778;20,3
560,024;20,36
560,271;20,42
560,517;20,47
560,764;20,5
561,011;20,56
561,257;20,59
561,504;20,63
561,75;20,69
561,997;20,69
562,243;20,76
562,489;20,8
562,736;20,85
562,982;20,89
563,229;20,95
563,475;21,01
563,721;21,07
563,968;21,16
564,214;21,25
564,46;21,3
564,707;21,37
564,953;21,45
565,199;21,53
565,445;21,59
565,691;21,66
565,938;21,72
566,184;21,81
566,43;21,92
566,676;22,02
566,922;22,1
567,168;22,22
567,414;22,31
567,66;22,41
567,906;22,51
568,152;22,62
568,398;22,75
568,644;22,88
568,89;22,94
569,136;23,03
569,382;23,11
569,628;23,2
569,874;23,28
570,12;23,37
570,366;23,47
570,612;23,59
570,857;23,68
571,103;23,79
571,349;23,88
571,595;23,98
571,84;24,08
572,086;24,18
572,332;24,3
572,578;24,39
572,823;24,48
573,069;24,56
573,315;24,65
573,56;24,74
573,806;24,82
574,051;24,94
574,297;25,06
574,542;25,19
574,788;25,3
575,034;25,44
575,279;25,57
575,524;25,68
575,77;25,77
576,015;25,88
576,261;25,99
576,506;26,13
576,752;26,23
576,997;26,35
577,242;26,47
577,488;26,59
577,733;26,72
577,978;26,88
578,223;27,02
578,469;27,17
578,714;27,31
578,959;27,46
579,204;27,6
579,45;27,72
579,695;27,83
579,94;27,98
580,185;28,1
580,43;28,22
580,675;28,37
580,92;28,51
581,165;28,66
581,41;28,83
581,655;28,96
581,9;29,12
582,145;29,28
582,39;29,44
582,635;29,59
582,88;29,75
583,125;29,9
583,37;30,07
583,615;30,24
583,86;30,43
584,105;30,61
584,349;30,8
584,594;30,99
584,839;31,22
585,084;31,43
585,328;31,63
585,573;31,84
585,818;32,03
586,063;32,21
586,307;32,41
586,552;32,57
586,797;32,78
587,041;32,96
587,286;33,15
587,53;33,36
587,775;33,56
588,019;33,75
588,264;33,96
588,508;34,15
588,753;34,37
588,997;34,58
589,242;34,8
589,486;35,03
589,731;35,28
589,975;35,5
590,22;35,75
590,464;36
590,708;36,27
590,953;36,53
591,197;36,79
591,441;37,02
591,685;37,3
591,93;37,52
592,174;37,81
592,418;38,08
592,662;38,34
592,907;38,57
593,151;38,84
593,395;39,08
593,639;39,34
593,883;39,58
594,127;39,81
594,371;40,06
594,615;40,3
594,859;40,56
595,103;40,85
595,347;41,13
595,591;41,41
595,835;41,66
596,079;41,97
596,323;42,25
596,567;42,56
596,811;42,85
597,055;43,14
597,299;43,42
597,542;43,72
597,786;44,01
598,03;44,29
598,274;44,59
598,518;44,89
598,761;45,18
599,005;45,46
599,249;45,79
599,492;46,07
599,736;46,39
599,98;46,7
600,223;46,99
600,467;47,29
600,711;47,58
600,954;47,88
601,198;48,16
601,441;48,46
601,685;48,74
601,928;49,03
602,172;49,34
602,415;49,65
602,659;49,95
602,902;50,23
603,145;50,54
603,389;50,84
603,632;51,15
603,876;51,44
604,119;51,73
604,362;52,02
604,606;52,3
604,849;52,59
605,092;52,85
605,335;53,14
605,579;53,39
605,822;53,68
606,065;53,95
606,308;54,23
606,551;54,51
606,794;54,79
607,037;55,06
607,281;55,31
607,524;55,58
607,767;55,84
608,01;56,12
608,253;56,38
608,496;56,62
608,739;56,89
608,982;57,14
609,225;57,38
609,468;57,62
609,711;57,84
609,953;58,09
610,196;58,35
610,439;58,57
610,682;58,8
610,925;59,01
611,168;59,23
611,41;59,45
611,653;59,66
611,896;59,91
612,139;60,1
612,381;60,33
612,624;60,52
612,867;60,74
613,109;60,93
613,352;61,15
613,595;61,37
613,837;61,55
614,08;61,75
614,322;61,95
614,565;62,17
614,807;62,38
615,05;62,52
615,292;62,65
615,535;62,83
615,777;63,01
616,02;63,2
616,262;63,38
616,505;63,56
616,747;63,78
616,989;63,92
617,232;64,09
617,474;64,25
617,716;64,42
617,959;64,55
618,201;64,7
618,443;64,84
618,685;64,96
618,927;65,11
619,17;65,26
619,412;65,41
619,654;65,53
619,896;65,68
620,138;65,84
620,38;66,01
620,622;66,15
620,864;66,28
621,107;66,38
621,349;66,49
621,591;66,61
621,833;66,72
622,075;66,83
622,316;66,96
622,558;67,12
622,8;67,23
623,042;67,37
623,284;67,49
623,526;67,61
623,768;67,71
624,01;67,83
624,251;67,93
624,493;68,02
624,735;68,11
624,977;68,24
625,218;68,34
625,46;68,44
625,702;68,53
625,943;68,62
626,185;68,71
626,427;68,8
626,668;68,87
626,91;68,96
627,152;69,05
627,393;69,12
627,635;69,16
627,876;69,22
628,118;69,29
628,359;69,37
628,601;69,47
628,842;69,56
629,084;69,61
629,325;69,64
629,566;69,7
629,808;69,77
630,049;69,82
630,29;69,91
630,532;69,97
630,773;70,05
631,014;70,11
631,256;70,21
631,497;70,3
631,738;70,38
631,979;70,43
632,22;70,48
632,462;70,55
632,703;70,6
632,944;70,71
633,185;70,78
633,426;70,83
633,667;70,87
633,908;70,93
634,149;71
634,39;71,11
634,631;71,2
634,872;71,28
635,113;71,36
635,354;71,38
635,595;71,43
635,836;71,49
636,077;71,55
636,318;71,61
636,559;71,66
636,8;71,69
637,04;71,75
637,281;71,78
637,522;71,85
637,763;71,89
638,003;71,89
638,244;71,91
638,485;71,95
638,726;71,97
638,966;72,02
639,207;72,05
639,448;72,09
639,688;72,14
639,929;72,17
640,169;72,17
640,41;72,21
640,65;72,27
640,891;72,26
641,131;72,29
641,372;72,35
641,612;72,36
641,853;72,43
642,093;72,49
642,334;72,56
642,574;72,59
642,814;72,63
643,055;72,69
643,295;72,75
643,535;72,8
643,776;72,86
644,016;72,87
644,256;72,9
644,496;72,93
644,737;72,96
644,977;73
645,217;73,06
645,457;73,08
645,697;73,09
645,938;73,12
646,178;73,19
646,418;73,22
646,658;73,28
646,898;73,26
647,138;73,28
647,378;73,28
647,618;73,32
647,858;73,37
648,098;73,42
648,338;73,47
648,578;73,52
648,818;73,57
649,057;73,62
649,297;73,64
649,537;73,68
649,777;73,71
650,017;73,75
650,257;73,75
650,496;73,82
650,736;73,89
650,976;73,94
661,028;74,25
661,267;74,31
661,506;74,38
661,744;74,43
661,983;74,53
662,222;74,57
662,461;74,6
662,7;74,57
662,939;74,6
663,177;74,64
663,416;74,65
663,655;74,62
663,894;74,6
664,132;74,64
664,371;74,71
664,61;74,74
664,848;74,8
665,087;74,85
665,326;74,88
665,564;74,87
665,803;74,88
666,041;74,94
666,28;74,98
666,518;75
666,757;75,04
666,995;75,01
667,234;75,03
667,472;75,07
667,711;75,08
667,949;75,12
668,187;75,13
668,426;75,17
668,664;75,22
668,902;75,23
669,141;75,21
669,379;75,18
669,617;75,19
669,856;75,18
670,094;75,15
670,332;75,14
670,57;75,16
670,808;75,18
671,046;75,13
671,285;75,18
671,523;75,2
671,761;75,26
671,999;75,29
672,237;75,35
672,475;75,37
672,713;75,42
672,951;75,4
673,189;75,39
673,427;75,4
673,665;75,37
673,903;75,4
674,141;75,44
674,379;75,5
674,617;75,47
674,854;75,49
675,092;75,51
675,33;75,55
675,568;75,58
675,806;75,63
676,043;75,64
676,281;75,67
676,519;75,71
676,756;75,67
676,994;75,67
677,232;75,62
677,469;75,65
677,707;75,66
677,945;75,65
678,182;75,69
678,42;75,69
678,657;75,74
678,895;75,71
679,132;75,73
679,37;75,71
679,607;75,73
679,845;75,73
680,082;75,77
680,32;75,75
680,557;75,71
680,794;75,69
681,032;75,69
681,269;75,66
681,507;75,67
681,744;75,68
681,981;75,7
682,218;75,69
682,456;75,62
682,693;75,63
682,93;75,63
683,167;75,61
683,404;75,62
683,642;75,66
683,879;75,67
684,116;75,69
684,353;75,68
684,59;75,68
684,827;75,71
685,064;75,68
685,301;75,67
685,538;75,7
685,775;75,67
686,012;75,71
686,249;75,73
686,486;75,73
686,723;75,76
686,96;75,75
687,197;75,75
687,433;75,81
687,67;75,86
687,907;75,91
688,144;75,93
688,381;75,94
688,617;75,84
688,854;75,87
689,091;75,85
689,327;75,84
689,564;75,84
689,801;75,8
690,037;75,78
690,274;75,82
690,511;75,84
690,747;75,89
690,984;75,9
691,22;75,86
691,457;75,83
691,693;75,83
691,93;75,81
692,166;75,83
692,403;75,85
692,639;75,8
692,876;75,77
693,112;75,8
693,348;75,81
693,585;75,85
693,821;75,87
694,057;75,89
694,294;75,92
694,53;75,94
694,766;75,95
695,002;76,01
695,239;76,01
695,475;76,01
695,711;75,97
695,947;75,97
696,183;75,99
696,419;76,03
696,656;76,05
696,892;76,06
697,128;76,05
697,364;76,03
697,6;76,06
697,836;76,1
698,072;76,06
698,308;76,06
698,544;76,05
698,78;76,05
699,016;76,02
699,251;76,04
699,487;76,04
699,723;76,09
699,959;76,09
700,195;76,08
700,431;76,1
700,666;76,1
700,902;76,08
701,138;76,11
701,374;76,11
701,609;76,1
701,845;76,13
702,081;76,15
702,316;76,12
702,552;76,09
702,788;76,1
703,023;76,12
703,259;76,13
703,494;76,2
703,73;76,19
703,965;76,22
704,201;76,2
704,436;76,18
704,672;76,08
704,907;76,05
705,143;76,01
705,378;75,99
705,613;76,01
705,849;76,02
706,084;75,98
706,319;75,95
706,555;75,91
706,79;75,89
707,025;75,9
707,26;75,94
707,496;75,96
707,731;75,92
707,966;75,92
708,201;75,9
708,436;75,89
708,671;75,88
708,907;75,87
709,142;75,89
709,377;75,9
709,612;75,96
709,847;75,98
710,082;76,03
710,317;76,03
710,552;76,09
710,787;76,1
711,022;76,14
711,257;76,15
711,492;76,19
711,726;76,19
711,961;76,22
712,196;76,21
712,431;76,21
712,666;76,24
712,901;76,26
713,135;76,25
713,37;76,28
713,605;76,29
713,839;76,31
714,074;76,32
714,309;76,32
714,543;76,29
714,778;76,31
715,013;76,29
715,247;76,33
715,482;76,31
715,716;76,29
715,951;76,32
716,185;76,34
716,42;76,33
716,654;76,35
716,889;76,33
717,123;76,35
717,358;76,34
717,592;76,32
717,827;76,28
718,061;76,29
718,295;76,26
718,53;76,22
718,764;76,21
718,998;76,19
719,232;76,23
719,467;76,26
719,701;76,2
719,935;76,2
720,169;76,19
720,403;76,19
720,638;76,2
720,872;76,17
721,106;76,17
721,34;76,16
721,574;76,16
721,808;76,17
722,042;76,14
722,276;76,12
722,51;76,12
722,744;76,14
722,978;76,1
723,212;76,07
723,446;76,1
723,68;76,12
723,914;76,13
724,147;76,13
724,381;76,13
724,615;76,21
724,849;76,2
725,083;76,19
725,316;76,14
725,55;76,14
725,784;76,16
726,018;76,16
726,251;76,18
726,485;76,16
726,719;76,17
726,952;76,14
727,186;76,19
727,419;76,18
727,653;76,2
727,887;76,27
728,12;76,33
728,354;76,35
728,587;76,32
728,821;76,3
729,054;76,3
729,287;76,31
729,521;76,29
729,754;76,33
729,988;76,32
730,221;76,38
730,454;76,38
730,688;76,36
730,921;76,37
731,154;76,39
731,387;76,38
731,621;76,38
731,854;76,43
732,087;76,44
732,32;76,45
732,553;76,46
732,787;76,45
733,02;76,43
733,253;76,42
733,486;76,4
733,719;76,44
733,952;76,48
734,185;76,46
734,418;76,43
734,651;76,41
734,884;76,44
735,117;76,42
735,35;76,4
735,583;76,4
735,816;76,39
736,049;76,37
736,281;76,42
736,514;76,38
736,747;76,37
736,98;76,34
737,213;76,36
737,445;76,32
737,678;76,34
737,911;76,35
738,144;76,29
738,376;76,34
738,609;76,32
738,842;76,27
739,074;76,28
739,307;76,34
739,539;76,39
739,772;76,43
740,004;76,42
740,237;76,45
740,469;76,45
740,702;76,44
740,934;76,48
741,167;76,43
741,399;76,44
741,632;76,45
741,864;76,5
742,096;76,53
742,329;76,53
742,561;76,49
742,793;76,47
743,026;76,53
743,258;76,56
743,49;76,53
743,723;76,57
743,955;76,54
744,187;76,49
744,419;76,44
744,651;76,4
744,883;76,39
745,115;76,36
745,348;76,35
745,58;76,38
745,812;76,36
746,044;76,43
746,276;76,39
746,508;76,42
746,74;76,41
746,972;76,45
747,204;76,48
747,436;76,49
747,667;76,49
747,899;76,51
748,131;76,47
748,363;76,5
748,595;76,51
748,827;76,54
749,058;76,57
749,29;76,53
749,522;76,49
749,754;76,51
749,985;76,51
750,217;76,49
750,449;76,45
750,68;76,42
750,912;76,43
751,144;76,53
751,375;76,51
751,607;76,47
751,838;76,42
752,07;76,43
752,301;76,43
752,533;76,43
752,764;76,41
752,996;76,4
753,227;76,36
753,459;76,31
753,69;76,3
753,921;76,31
754,153;76,33
754,384;76,41
754,615;76,4
754,847;76,45
755,078;76,52
755,309;76,56
755,54;76,6
755,772;76,53
756,003;76,47
756,234;76,43
756,465;76,45
756,696;76,4
756,927;76,4
757,159;76,41
757,39;76,39
757,621;76,45
757,852;76,41
758,083;76,47
758,314;76,49
758,545;76,49
758,776;76,5
759,007;76,48
759,238;76,48
759,469;76,5
759,699;76,49
759,93;76,43
760,161;76,44
760,392;76,43
760,623;76,44
760,854;76,44
761,084;76,46
761,315;76,46
761,546;76,46
761,776;76,45
762,007;76,43
762,238;76,46
762,468;76,38
762,699;76,46
762,93;76,46
763,16;76,44
763,391;76,39
763,621;76,36
763,852;76,43
764,083;76,35
764,313;76,34
764,543;76,27
764,774;76,26
765,004;76,19
765,235;76,21
765,465;76,19
765,696;76,2
765,926;76,21
766,156;76,18
766,387;76,22
766,617;76,24
766,847;76,26
767,077;76,24
767,308;76,27
767,538;76,26
767,768;76,24
767,998;76,22
768,228;76,25
768,459;76,26
768,689;76,24
768,919;76,32
769,149;76,32
769,379;76,4
769,609;76,41
769,839;76,45
770,069;76,4
770,299;76,43
770,529;76,43
770,759;76,43
770,989;76,46
771,219;76,4
771,449;76,37
771,678;76,39
771,908;76,41
772,138;76,45
772,368;76,41
772,598;76,39
772,827;76,48
773,057;76,46
773,287;76,49
773,517;76,5
773,746;76,46
773,976;76,49
774,206;76,46
774,435;76,46
774,665;76,51
774,894;76,5
775,124;76,47
775,354;76,43
775,583;76,4
775,813;76,39
776,042;76,45
776,272;76,46
776,501;76,43
776,73;76,46
776,96;76,41
777,189;76,42
777,419;76,48
777,648;76,42
777,877;76,45
778,107;76,37
778,336;76,39
778,565;76,37
778,794;76,32
779,024;76,35
779,253;76,39
779,482;76,33
779,711;76,35
779,94;76,42
780,17;76,44
780,399;76,45
780,628;76,46
780,857;76,45
781,086;76,46
781,315;76,46
781,544;76,42
781,773;76,38
782,002;76,37
782,231;76,36
782,46;76,36
782,689;76,33
782,918;76,4
783,147;76,32
783,375;76,34
783,604;76,42
783,833;76,4
784,062;76,38
784,291;76,41
784,519;76,45
784,748;76,38
784,977;76,45
785,206;76,44
785,434;76,43
785,663;76,44
785,892;76,41
786,12;76,43
786,349;76,48
786,577;76,53
786,806;76,57
787,034;76,57
787,263;76,57
787,492;76,57
787,72;76,57
787,948;76,65
788,177;76,64
788,405;76,6
788,634;76,55
788,862;76,54
789,09;76,48
789,319;76,42
789,547;76,46
789,775;76,4
790,004;76,42
790,232;76,45
790,46;76,45
790,688;76,4
790,917;76,4
791,145;76,38
791,373;76,37
791,601;76,37
791,829;76,36
792,057;76,32
792,286;76,33
792,514;76,34
792,742;76,34
792,97;76,35
793,198;76,29
793,426;76,33
793,654;76,31
793,882;76,32
794,109;76,38
794,337;76,36
794,565;76,39
794,793;76,42
795,021;76,36
795,249;76,36
795,477;76,41
795,704;76,45
795,932;76,39
796,16;76,41
796,388;76,36
796,615;76,35
796,843;76,36
797,071;76,33
797,298;76,31
797,526;76,29
797,754;76,24
797,981;76,27
798,209;76,27
798,436;76,29
798,664;76,27
798,891;76,23
799,119;76,21
799,346;76,15
799,574;76,13
799,801;76,19
800,029;76,1
800,256;76,13
800,483;76,09
800,711;76,14
800,938;76,08
801,165;76,07
801,393;76,03
801,62;76,04
801,847;76,09
802,074;76,03
802,302;75,98
802,529;76,04
802,756;76,07
802,983;76,1
803,21;76,07
803,437;76,13
803,665;76,2
803,892;76,26
804,119;76,3
804,346;76,29
804,573;76,32
804,8;76,37
805,027;76,28
805,254;76,22
805,481;76,16
805,708;76,14
805,934;76,09
806,161;76,1
806,388;76,13
806,615;76,05
806,842;76,12
807,069;76,19
807,295;76,18
807,522;76,17
807,749;76,2
807,976;76,22
808,202;76,24
808,429;76,22
808,656;76,21
808,882;76,22
809,109;76,17
809,335;76,12
809,562;76,15
809,789;76,22
810,015;76,3
810,242;76,36
810,468;76,45
810,695;76,5
810,921;76,55
811,147;76,53
811,374;76,62
811,6;76,63
811,827;76,57
812,053;76,53
812,279;76,5
812,506;76,41
812,732;76,43
812,958;76,37
813,185;76,28
813,411;76,27
813,637;76,26
813,863;76,32
814,089;76,33
814,315;76,29
814,542;76,27
814,768;76,23
814,994;76,19
815,22;76,15
815,446;76,15
815,672;76,11
815,898;76,05
816,124;76,01
816,35;75,88
816,576;75,95
816,802;75,96
817,028;75,98
817,254;76
817,48;75,91
817,705;75,91
817,931;75,95
818,157;75,92
818,383;75,88
818,609;75,8
818,834;75,75
819,06;75,68
819,286;75,64
819,512;75,65
819,737;75,59
819,963;75,52
820,189;75,47
820,414;75,49
820,64;75,42
820,865;75,46
821,091;75,48
821,316;75,38
821,542;75,31
821,767;75,28
821,993;75,25
822,218;75,34
822,444;75,27
822,669;75,33
822,895;75,29
823,12;75,3
823,345;75,34
823,571;75,27
823,796;75,37
824,021;75,36
824,247;75,36
824,472;75,39
824,697;75,45
824,922;75,5
825,147;75,45
825,373;75,59
825,598;75,57
825,823;75,54
826,048;75,54
826,273;75,61
826,498;75,66
826,723;75,64
826,948;75,53
827,173;75,5
827,398;75,43
827,623;75,41
827,848;75,37
828,073;75,34
828,298;75,42
828,523;75,35
828,748;75,36
828,973;75,29
829,197;75,32
829,422;75,25
829,647;75,18
829,872;75,18
830,097;75,11
830,321;75,13
830,546;75,18
830,771;75,24
830,995;75,24
831,22;75,17
831,445;75,18
831,669;75,25
831,894;75,29
832,118;75,31
832,343;75,32
832,567;75,35
832,792;75,39
833,016;75,38
833,241;75,36
833,465;75,31
833,69;75,36
833,914;75,31
834,139;75,37
834,363;75,41
834,587;75,42
834,812;75,51
835,036;75,44
835,26;75,45
835,485;75,4
835,709;75,36
835,933;75,3
836,157;75,31
836,381;75,27
836,606;75,3
836,83;75,24
837,054;75,3
837,278;75,25
837,502;75,23
837,726;75,2
837,95;75,23
838,174;75,25
838,398;75,17
838,622;75,18
838,846;75,14
839,07;75,06
839,294;75,05
839,518;74,97
839,742;74,99
839,966;74,94
840,189;74,95
840,413;74,95
840,637;74,97
840,861;74,99
841,085;74,88
841,308;74,84
841,532;74,85
841,756;74,8
841,979;74,8
842,203;74,79
842,427;74,79
842,65;74,72
842,874;74,63
843,098;74,64
843,321;74,62
843,545;74,6
843,768;74,62
843,992;74,59
844,215;74,6
844,439;74,56
844,662;74,49
844,886;74,44
845,109;74,5
845,332;74,47
845,556;74,42
845,779;74,48
846,002;74,44
846,226;74,46
846,449;74,41
846,672;74,38
846,895;74,29
847,119;74,3
847,342;74,32
847,565;74,35
847,788;74,32
848,011;74,32
848,234;74,29
848,457;74,28
848,681;74,21
848,904;74,19
849,127;74,24
849,35;74,39
849,573;74,4
849,796;74,37
850,019;74,4
850,241;74,4
850,464;74,43
850,687;74,56
850,91;74,52
851,133;74,51
851,356;74,51
851,579;74,61
851,801;74,61
852,024;74,66
852,247;74,73
852,47;74,79
852,692;74,73
852,915;74,8
853,138;74,8
853,36;74,83
853,583;74,78
853,806;74,78
854,028;74,66
854,251;74,69
854,473;74,67
854,696;74,67
854,918;74,66
855,141;74,74
855,363;74,64
855,586;74,65
855,808;74,64
856,031;74,63
856,253;74,59
856,475;74,55
856,698;74,53
856,92;74,53
857,142;74,49
857,365;74,59
857,587;74,49
857,809;74,57
858,031;74,57
858,253;74,55
858,476;74,54
858,698;74,56
858,92;74,52
859,142;74,56
859,364;74,45
859,586;74,46
859,808;74,36
860,03;74,3
860,252;74,34
860,474;74,4
860,696;74,46
860,918;74,33
861,14;74,42
861,362;74,35
861,584;74,3
861,806;74,25
862,028;74,25
862,25;74,29
862,471;74,2
862,693;74,22
862,915;74,29
863,137;74,22
863,358;74,29
863,58;74,23
863,802;74,11
864,024;74,17
864,245;74,18
864,467;74,21
864,688;74,26
864,91;74,21
865,132;74,16
865,353;74,08
865,575;74,18
865,796;74,05
866,018;74,1
866,239;74,03
866,461;74,04
866,682;73,94
866,903;73,86
867,125;73,91
867,346;73,93
867,567;73,82
867,789;73,85
868,01;73,83
868,231;73,84
868,453;73,91
868,674;73,91
868,895;73,83
869,116;73,82
869,337;73,82
869,559;73,83
869,78;73,84
870,001;73,83
870,222;73,9
870,443;73,97
870,664;73,83
870,885;73,89
871,106;73,82
871,327;73,85
871,548;73,9
871,769;73,85
871,99;73,86
872,211;73,85
872,432;73,81
872,653;73,66
872,874;73,73
873,094;73,67
873,315;73,81
873,536;73,86
873,757;73,77
873,978;73,75
874,198;73,57
874,419;73,51
874,64;73,47
874,86;73,45
875,081;73,41
875,302;73,67
875,522;73,67
875,743;73,69
875,963;73,71
876,184;73,65
876,404;73,59
876,625;73,49
876,845;73,52
877,066;73,5
877,286;73,58
877,507;73,41
877,727;73,37
877,947;73,22
878,168;73,11
878,388;73,23
878,609;73,21
878,829;73,29
879,049;73,26
879,269;73,41
879,49;73,33
879,71;73,32
879,93;73,11
880,15;73,1
880,37;73,13
880,59;73,02
880,811;73,12
881,031;73,11
881,251;73,04
881,471;73,06
881,691;73,02
881,911;72,97
882,131;73,03
882,351;73,03
882,571;73,07
882,791;73,08
883,011;72,88
883,23;72,88
883,45;72,97
883,67;73,04
883,89;72,86
884,11;72,83
884,33;72,77
884,549;72,88
884,769;72,89
884,989;72,83
885,209;72,91
885,428;72,89
885,648;72,73
885,868;72,86
886,087;72,83
886,307;72,88
886,526;72,85
886,746;72,88
886,965;72,84
887,185;72,84
887,404;72,95
887,624;73,03
887,843;73,02
888,063;73,03
888,282;72,99
888,502;73,06
888,721;73,13
888,94;73,14
889,16;73,08
889,379;73,03
889,598;73,12
889,818;73,07
890,037;73,08
890,256;73,21
890,475;73,21
890,694;73,19
890,914;73,16
891,133;73,04
891,352;73
891,571;73,02
891,79;72,97
892,009;72,84
892,228;72,84
892,447;72,75
892,666;72,74
892,885;72,81
893,104;72,87
893,323;72,86
893,542;72,91
893,761;72,93
893,98;72,9
894,199;72,81
894,417;72,83
894,636;72,78
894,855;72,85
895,074;72,66
895,293;72,74
895,511;72,67
895,73;72,73
895,949;72,62
896,167;72,58
896,386;72,6
896,605;72,64
896,823;72,67
897,042;72,74
897,26;72,73
897,479;72,69
897,697;72,66
897,916;72,61
898,134;72,48
898,353;72,54
898,571;72,72
898,79;72,79
899,008;72,79
899,227;72,72
899,445;72,69
899,663;72,89
899,882;72,87
900,1;72,92
900,318;73,11
900,536;73,29
900,755;73,35
900,973;73,22
901,191;73,25
901,409;73,21
901,627;73,19
901,846;73,19
902,064;73,12
902,282;73,1
902,5;73,1
902,718;73,18
902,936;73,15
903,154;72,97
903,372;72,93
903,59;72,93
903,808;72,87
904,026;72,8
904,244;72,69
904,462;72,52
904,679;72,6
904,897;72,54
905,115;72,44
905,333;72,4
905,551;72,5
905,768;72,45
905,986;72,57
906,204;72,54
906,422;72,54
906,639;72,54
906,857;72,71
907,074;72,61
907,292;72,61
907,51;72,45
907,727;72,54
907,945;72,66
908,162;72,68
908,38;72,74
908,597;72,77
908,815;72,82
909,032;72,96
909,25;72,84
909,467;72,68
909,684;72,63
909,902;72,72
910,119;72,91
910,337;72,97
910,554;72,83
910,771;72,83
910,988;72,75
911,206;72,72
911,423;72,55
911,64;72,61
911,857;72,51
912,074;72,6
912,291;72,44
912,509;72,4
912,726;72,34
912,943;72,44
913,16;72,53
913,377;72,56
913,594;72,59
913,811;72,56
914,028;72,69
914,245;72,62
914,462;72,53
914,679;72,41
914,896;72,45
915,112;72,36
915,329;72,39
915,546;72,4
915,763;72,49
915,98;72,4
916,196;72,3
916,413;72,32
916,63;72,39
916,847;72,51
917,063;72,31
917,28;72,12
917,497;72,13
917,713;72
917,93;72,05
918,146;71,92
918,363;72,09
918,579;71,95
918,796;72,05
919,012;72,11
919,229;72,02
919,445;72
919,662;72,06
919,878;71,97
920,095;72
920,311;71,95
920,527;72,01
920,744;72,17
920,96;72,3
921,176;72,12
921,392;71,95
921,609;71,95
921,825;72,32
922,041;72,29
922,257;72,31
922,473;72,31
922,69;72,44
922,906;72,18
923,122;72,33
923,338;72,31
923,554;72,17
923,77;72,14
923,986;72,12
924,202;72,15
924,418;72,28
924,634;72,22
924,85;72,22
925,066;72,2
925,282;72,15
925,497;71,97
925,713;72,03
925,929;72,25
926,145;72,18
926,361;72,03
926,576;72,02
926,792;72,02
927,008;72,01
927,224;71,99
927,439;72,18
927,655;72,17
927,871;72,3
928,086;72,46
928,302;72,45
928,517;72,45
928,733;72,5
928,948;72,53
929,164;72,62
929,379;72,67
929,595;72,75
929,81;72,74
930,026;72,8
930,241;72,9
930,456;72,74
930,672;72,93
930,887;72,97
931,102;72,94
931,318;73,01
931,533;72,91
931,748;72,86
931,964;72,66
932,179;72,5
932,394;72,42
932,609;72,4
932,824;72,52
933,039;72,45
933,255;72,28
933,47;72,11
933,685;72,05
933,9;71,98
934,115;71,83
934,33;71,94
934,545;71,88
934,76;71,79
934,975;71,89
935,19;71,82
935,404;71,65
935,619;71,83
935,834;71,75
936,049;71,91
936,264;71,99
936,479;72,2
936,693;72,41
936,908;72,5
937,123;72,43
937,338;72,48
937,552;72,5
937,767;72,65
937,982;72,91
938,196;73,02
938,411;73,1
938,625;73,2
938,84;72,84
939,055;72,94
939,269;73,1
939,484;73,02
939,698;73,09
939,912;73,38
940,127;73,12
940,341;72,86
940,556;72,56
940,77;72,72
940,984;72,8
941,199;73,2
941,413;73,37
941,627;73,24
941,842;72,76
942,056;72,6
942,27;73,04
942,484;73,19
942,699;72,72
942,913;72,4
943,127;72,57
943,341;73,02
943,555;73,15
943,769;73,51
943,983;73,72
944,197;73,19
944,411;72,74
944,625;72,61
944,839;73,28
945,053;73,56
945,267;73,95
945,481;74,09
945,695;74,21
945,909;73,73
946,123;74,27
946,336;74,23
946,55;74,9
946,764;74,5
946,978;74,18
947,192;74,3
947,405;74,38
947,619;74,3
947,833;74,12
948,046;74,46
948,26;74,31
948,474;74,19
948,687;75,17
948,901;75,37
949,114;75,31
949,328;75,03
949,541;74,75
949,755;74,11
949,968;73,51
950,182;72,89
950,395;72,81
950,609;72,32
950,822;72,31
951,035;72,01
951,249;71,85
951,462;72,17
951,675;72,31
951,889;71,72
952,102;72,24
952,315;72,78
952,528;72,6
952,741;72,23
952,955;72,17
953,168;71,77
953,381;72,05
953,594;72,23
953,807;72,21
954,02;72,12
954,233;72,09
954,446;72,29
954,659;72,54
954,872;72,64
955,085;72,98
955,298;73,14
955,511;72,89
955,724;72,78
955,937;72,82
956,15;72,88
956,362;73,39
956,575;73,19
956,788;72,88
957,001;72,49
957,214;72,53
957,426;72,81
957,639;73,03
957,852;72,21
958,064;72,09
958,277;71,95
958,49;72,32
958,702;72,31
958,915;72,24
959,127;71,94
959,34;71,93
959,552;71,55
959,765;71,7
959,977;71,87
960,19;71,96
960,402;71,43
960,615;71,44
960,827;71,29
961,039;70,83
961,252;70,82
961,464;70,92
961,676;71,12
961,889;70,7
962,101;70,61
962,313;71,38
962,525;71,45
962,738;71,37
962,95;71,53
963,162;71,5
963,374;71,96
963,586;71,96
963,798;72,27
964,01;72,36
964,222;72,31
964,434;72,43
964,646;72,42
964,858;72,36
965,07;72,46
965,282;72,75
965,494;72,86
965,706;72,95
965,918;73,04
966,13;72,88
966,342;72,98
966,553;72,67
966,765;72,56
966,977;72,49
967,189;72,55
967,401;72,04
967,612;71,83
967,824;71,74
968,036;71,91
968,247;71,52
968,459;71,5
968,67;71,54
968,882;70,96
969,094;70,95
969,305;71,13
969,517;70,92
969,728;71
969,94;71,33
970,151;71,14
970,362;71,35
970,574;71,61
970,785;71,67
970,997;71,65
971,208;71,44
971,419;71,61
971,631;71,85
971,842;72,22
972,053;72,86
972,264;72,6
972,476;72,66
972,687;72,71
972,898;72,71
973,109;72,67
973,32;73,06
973,531;73,25
973,742;73,38
973,954;73,42
974,165;73,49
974,376;73,22
974,587;73,41
974,798;73,38
975,009;73,33
975,22;73,57
975,43;73,9
975,641;74,29
975,852;73,93
976,063;73,98
976,274;73,42
976,485;73,08
976,695;73,22
976,906;73,6
977,117;74,13
977,328;74,61
977,538;74,61
977,749;74,51
977,96;75,02
978,17;74,75
978,381;75,01
978,592;74,92
978,802;74,96
979,013;75,17
979,223;75,48
979,434;75,73
979,644;75,61
979,855;75,97
980,065;76,1
980,276;76,42
980,486;76,29
980,696;76,33
980,907;76,13
981,117;76,29
981,327;76,3
981,538;75,61
981,748;75,21
981,958;74,75
982,169;74,91
982,379;74,18
982,589;74,78
982,799;74,74
983,009;74,46
983,219;74,7
983,43;74,33
983,64;73,76
983,85;73,81
984,06;73,61
984,27;73,1
984,48;72,98
984,69;72,98
984,9;72,65
985,11;73,44
985,32;73,18
985,529;73,08
985,739;72,74
985,949;73,34
986,159;73,26
986,369;73,74
986,579;74,38
986,788;75,06
986,998;74,9
987,208;74,44
987,417;74,26
987,627;73,81
987,837;73,92
988,046;73,57
988,256;73,18
988,466;73,34
988,675;73,4
988,885;73,57
989,094;73,45
989,304;74,29
989,513;74,21
989,723;75
989,932;74,71
990,142;74,65
990,351;73,88
990,56;74,22
990,77;74,35
990,979;73,92
991,188;73,58
991,398;73,75
991,607;74,23
991,816;74,91
992,025;75,16
992,235;75,16
992,444;75,81
992,653;76,13
992,862;76,21
993,071;75,98
993,28;76,12
993,489;76,72
993,698;76,05
993,908;75,89
994,117;75,11
994,326;75,12
994,534;74,98
994,743;75,94
994,952;75,68
995,161;75,19
995,37;75,63
995,579;75,4
995,788;75,31
995,997;74,99
996,205;75,06
996,414;75,7
996,623;76,06
996,832;75,94
997,04;76,04
997,249;75,62
997,458;75,88
997,666;75,93
997,875;75,69
998,084;75,32
998,292;75,47
998,501;76,78
998,709;76,57
998,918;76,68
999,126;76,08
999,335;76,09
999,543;76,47
999,752;76,03
999,96;75,75
1000,169;75,06
1000,377;74,95
1000,585;74,38
1000,794;74,57
1001,002;74,54
1001,21;74,8
1001,418;73,98
1001,627;74,53
1001,835;74,69
1002,043;74,75
1002,251;73,81
1002,459;74,91
1002,668;74,23
1002,876;73,36
1003,084;73,76
1003,292;73,61
1003,5;73,86
1003,708;74,61
1003,916;74,37
1004,124;74,43
1004,332;74,96
1004,54;76,25
1004,748;76,56
1004,956;76,69
1005,163;75,32
1005,371;74,62
1005,579;74,92
1005,787;75,04
1005,995;74,65
1006,202;74,58
1006,41;74,62
1006,618;74,99
1006,826;74,47
1007,033;74,8
1007,241;75,39
1007,449;75,06
1007,656;75,29
1007,864;75,19
1008,071;74,72
1008,279;75,33
1008,486;75,38
1008,694;75,67
1008,901;75,03
1009,109;75,79
1009,316;75,7
1009,524;75,95
1009,731;77,02
1009,938;77,49
1010,146;78,04
1010,353;78,97
1010,56;77,93
1010,768;77,27
1010,975;78,22
1011,182;78,55
1011,389;77,87
1011,597;77,32
1011,804;77,91
1012,011;78,17
1012,218;77,6
1012,425;77,72
1012,632;76,84
1012,839;75,86
1013,046;75,23
1013,253;76,11
1013,46;76
1013,667;75,92
1013,874;76,58
1014,081;76,58
1014,288;75,18
1014,495;74,57
1014,702;73,17
1014,909;74,23
1015,116;74,31
1015,323;74,35
1015,529;74,9
1015,736;76,49
1015,943;76,32
1016,15;76,15
1016,356;76,69
1016,563;77,11
1016,77;76,8
1016,976;78
1017,183;79,19
1017,389;79,42
1017,596;79,31
1017,803;78,8
1018,009;79,75
1018,216;80,31
1018,422;79,19
1018,629;80,31
1018,835;80,58
1019,041;82,01
1019,248;82,25
1019,454;81,56
1019,661;80,98
1019,867;80,44
1020,073;80,45
1020,279;81,23
1020,486;80,13
1020,692;79,95
1020,898;79,63
1021,104;79,41
1021,311;78,35
1021,517;77,39
1021,723;78,1
1021,929;77,28
1022,135;76,99
1022,341;76,53
1022,547;75,5
1022,753;77,01
1022,959;76,23
1023,165;77,08
1023,371;75,91
1023,577;75,27
1023,783;75,82
1023,989;75,78
1024,195;75,51
1024,401;75,55
1024,607;75,04
1024,812;77,29
1025,018;77,64
1025,224;77,54
1025,43;79,05
1025,635;77,53
1025,841;79,95
1026,047;78,75
1026,252;78,98
1026,458;79,45
1026,664;79,39
1026,869;78,57
1027,075;79,12
1027,28;79,01
1027,486;78,81
1027,691;79,77
1027,897;80,9
1028,102;78,46
1028,308;77,86
1028,513;76,9
1028,719;75,01
1028,924;75,29
1029,129;73,8
1029,335;72,91
1029,54;74,22
1029,745;72,22
1029,95;73,5
1030,156;72,01
1030,361;71,99
1030,566;71,18
1030,771;71,35
1030,976;71,25
1031,182;73,95
1031,387;71,43
1031,592;71,8
1031,797;72,22
1032,002;71,28
1032,207;71
1032,412;75,53
1032,617;76,48
1032,822;76,69
1033,027;78,07
1033,232;77,82
1033,437;77,83
1033,642;78,77
1033,846;78,05
1034,051;79,53
1034,256;81,99
1034,461;81,03
1034,666;82,01
1034,87;81,17
1035,075;77,99
1035,28;79,79
1035,484;76,05
1035,689;77,41
1035,894;77,88
1036,098;75,81
1036,303;76,63
1036,507;76,2
1036,712;74,51
1036,917;74,06
1037,121;78,52
1037,325;77,8
1037,53;78,94
1037,734;78,56
1037,939;76,76
1038,143;78,79
1038,348;78,12
1038,552;77,57
1038,756;78,7
1038,961;80,34
1039,165;82,24
1039,369;83,86
1039,573;82,85
1039,778;84,73
1039,982;84,29
1040,186;82,58
1040,39;84,91
1040,594;85,09
1040,798;84,32
1041,002;81,72
1041,206;81,67
1041,41;77,94
1041,614;79,06
1041,818;78,84
1042,022;79,62
1042,226;79,51
1042,43;75,99
1042,634;74,42
1042,838;72,23
1043,042;71,64
1043,246;67,71
1043,45;66,67
1043,653;68,43
1043,857;67,05
1044,061;67,07
1044,265;67,03
1044,468;67,72
1044,672;64,71
1044,876;64,03
1045,079;65,25
1045,283;69,49
1045,487;68,18
1045,69;69,11
1045,894;66,17
1046,097;67,44
1046,301;65,59
1046,504;67,63
1046,708;68,38
1046,911;73,57
1047,115;75,43
1047,318;75,84
1047,522;79,55
1047,725;78,06
1047,928;77,72
1048,132;78,62
1048,335;78,75
1048,538;76,96
1048,741;78,02
1048,945;80,33
1049,148;81,59
1049,351;80,3
1049,554;79,99
1049,757;85,11
1049,96;84,6
1050,163;87,91
1050,367;87,93
1050,57;90,49
1050,773;89,75
1050,976;92,44
1051,179;88,5
1051,382;88,07
1051,585;86,38
1051,787;88,18
1051,99;90,6
1052,193;88,63
1052,396;89,43
1052,599;85,03
1052,802;89,66
1053,005;86,75
1053,207;87,47
1053,41;84,31
1053,613;83,01
1053,815;81,66
1054,018;81,87
1054,221;81,66
1054,423;82,74
1054,626;78,9
1054,829;78,79
1055,031;78,76
1055,234;76,51
1055,436;76,95
1055,639;77,11
1055,841;78,13
1056,044;73,61
1056,246;71,96
