Data from cinnabarWhite_Reflection__1__16.txt Node;
"Date: Wed Sep 10 11:48:22 CEST 2025 User: sycur Spectrometer: SR400348 Trigger mode: 0 Integration Time (sec): 1,000000E-2 Scans to average: 10 Electric dark correction enabled: true Nonlinearity correction enabled: false Boxcar width: 10 XAxis mode: Wavelengths Number of Pixels in Spectrum: 3648 >>>>>Begin Spectral Data<<<<<";
186,01;-14,13
186,281;18,49
186,552;16,69
186,822;34,59
187,093;33,33
187,364;596,81
187,635;91,35
187,905;61,52
188,176;53,1
188,447;31,87
188,717;30,56
188,988;36,79
189,258;30,73
189,529;36,08
189,8;32,85
190,07;36,07
190,341;29,82
190,611;28,18
190,882;27,02
191,152;25,46
191,423;22,99
191,693;22,72
191,964;22,97
192,234;22,64
192,505;19,82
192,775;20,23
193,045;18,74
193,316;18,45
193,586;18,59
193,856;18,94
194,127;20,2
194,397;20,07
194,667;19,72
194,938;19,6
195,208;18,01
195,478;19,84
195,748;19,44
196,019;19,46
196,289;18,05
196,559;16,76
196,829;15,61
197,099;15,87
197,37;16,5
197,64;15,6
197,91;14,54
198,18;14,9
198,45;14,8
198,72;14,44
198,99;14,82
199,26;14,32
199,53;13,94
199,8;12,72
200,07;12,15
200,34;11,41
200,61;10,68
200,88;11,35
201,15;10,5
201,42;9,86
201,69;9,59
201,96;10,34
202,23;11,24
202,499;12,06
202,769;11,89
203,039;11,34
203,309;10,72
203,579;11,07
203,849;11,5
204,118;11,14
204,388;10,92
204,658;10,64
204,927;10,59
205,197;10,06
205,467;10,21
205,736;10,24
206,006;9,87
206,276;10,15
206,545;9,94
206,815;9,97
207,085;10,18
207,354;10,44
207,624;10,14
207,893;9,63
208,163;9,12
208,432;9,21
208,702;8,52
208,971;8,84
209,241;9,03
209,51;9,07
209,78;8,57
210,049;8,39
210,318;8,43
210,588;8,03
210,857;8,23
211,127;8,62
211,396;8,48
211,665;8,83
211,935;8,64
212,204;8,61
212,473;8,58
212,742;8,49
213,012;8,38
213,281;8,17
213,55;8,53
213,819;8,6
214,088;8,43
214,358;8,65
214,627;8,62
214,896;8,25
215,165;7,8
215,434;8,04
215,703;7,93
215,972;7,74
216,241;7,83
216,51;7,6
216,779;7,28
217,048;7,38
217,317;7,09
217,586;7,13
217,855;7,14
218,124;7,16
218,393;7,13
218,662;7,14
218,931;7,14
219,2;6,91
219,469;6,89
219,738;6,94
220,006;6,99
220,275;6,81
220,544;6,93
220,813;6,98
221,082;6,92
221,35;6,97
221,619;7,08
221,888;7,07
222,157;7,23
222,425;7,26
222,694;7,08
222,963;7,17
223,231;7,25
223,5;7,12
223,769;7,03
224,037;6,98
224,306;6,97
224,574;7,06
224,843;7,14
225,111;7,04
225,38;7,01
225,648;6,91
225,917;6,95
226,185;6,89
226,454;6,9
226,722;6,99
226,991;6,96
227,259;6,93
227,528;6,92
227,796;6,83
228,064;6,79
228,333;6,8
228,601;6,74
228,869;6,63
229,138;6,65
229,406;6,7
229,674;6,69
229,942;6,65
230,211;6,64
230,479;6,59
230,747;6,63
231,015;6,57
231,283;6,62
231,552;6,6
231,82;6,56
232,088;6,55
232,356;6,5
232,624;6,5
232,892;6,45
233,16;6,42
233,428;6,43
233,696;6,43
233,964;6,47
234,232;6,49
234,5;6,46
234,768;6,43
235,036;6,4
235,304;6,39
235,572;6,42
235,84;6,34
236,108;6,31
236,376;6,29
236,644;6,26
236,912;6,25
237,179;6,24
237,447;6,24
237,715;6,21
237,983;6,18
238,251;6,16
238,518;6,14
238,786;6,14
239,054;6,1
239,322;6,09
239,589;6,04
239,857;6,04
240,125;6,06
240,392;6,05
240,66;6,03
240,927;6,01
241,195;5,97
241,463;6,02
241,73;6,03
241,998;6,07
242,265;6,05
242,533;6,05
242,8;6,06
243,068;6,06
243,335;6,04
243,603;6,04
243,87;6,03
244,138;6,07
244,405;6,08
244,672;6,12
244,94;6,07
245,207;6,07
245,474;6,07
245,742;6,05
246,009;6,03
246,276;6,04
246,544;6,02
246,811;6,01
247,078;5,97
247,345;5,98
247,613;5,93
247,88;5,94
248,147;5,9
248,414;5,89
248,681;5,89
248,948;5,92
249,215;5,92
249,483;5,92
249,75;5,87
250,017;5,84
250,284;5,8
250,551;5,82
250,818;5,85
251,085;5,83
251,352;5,82
251,619;5,84
251,886;5,82
252,153;5,83
252,42;5,82
252,687;5,81
252,953;5,78
253,22;5,76
253,487;5,74
253,754;5,76
254,021;5,75
254,288;5,73
254,555;5,72
254,821;5,74
255,088;5,73
255,355;5,73
255,622;5,73
255,888;5,72
256,155;5,69
256,422;5,64
256,688;5,65
256,955;5,65
257,222;5,63
257,488;5,62
257,755;5,61
258,022;5,59
258,288;5,58
258,555;5,59
258,821;5,59
259,088;5,6
259,354;5,54
259,621;5,54
259,887;5,56
260,154;5,55
260,42;5,51
260,687;5,48
260,953;5,46
261,219;5,46
261,486;5,41
261,752;5,42
262,019;5,42
262,285;5,39
262,551;5,38
262,818;5,4
263,084;5,37
263,35;5,35
263,616;5,34
263,883;5,36
264,149;5,35
264,415;5,37
264,681;5,36
264,947;5,4
265,214;5,37
265,48;5,36
265,746;5,35
266,012;5,37
266,278;5,35
266,544;5,35
266,81;5,36
267,076;5,4
267,342;5,38
267,608;5,39
267,874;5,37
268,14;5,37
268,406;5,33
268,672;5,34
268,938;5,33
269,204;5,31
269,47;5,3
269,736;5,27
270,002;5,23
270,268;5,22
270,533;5,19
270,799;5,18
271,065;5,14
271,331;5,14
271,597;5,13
271,862;5,15
272,128;5,14
272,394;5,13
272,66;5,11
272,925;5,12
273,191;5,1
273,457;5,12
273,722;5,09
273,988;5,09
274,254;5,09
274,519;5,11
274,785;5,12
275,05;5,11
275,316;5,11
275,582;5,12
275,847;5,13
276,113;5,12
276,378;5,15
276,644;5,16
276,909;5,14
277,174;5,14
277,44;5,16
277,705;5,15
277,971;5,13
278,236;5,14
278,501;5,14
278,767;5,14
279,032;5,13
279,297;5,14
279,563;5,11
279,828;5,09
280,093;5,06
280,358;5,03
280,624;5,04
280,889;5,04
281,154;5
281,419;4,98
281,684;4,97
281,95;4,94
282,215;4,94
282,48;4,95
282,745;4,91
283,01;4,88
283,275;4,86
283,54;4,84
283,805;4,82
284,07;4,8
284,335;4,79
284,6;4,79
284,865;4,78
285,13;4,78
285,395;4,81
285,66;4,83
285,925;4,86
286,19;4,86
286,455;4,85
286,72;4,87
286,985;4,85
287,249;4,84
287,514;4,82
287,779;4,82
288,044;4,79
288,309;4,8
288,573;4,79
288,838;4,81
289,103;4,82
289,367;4,82
289,632;4,82
289,897;4,83
290,161;4,84
290,426;4,84
290,691;4,87
290,955;4,83
291,22;4,8
291,484;4,78
291,749;4,72
292,014;4,72
292,278;4,73
292,543;4,74
292,807;4,76
293,072;4,78
293,336;4,77
293,6;4,77
293,865;4,78
294,129;4,78
294,394;4,78
294,658;4,77
294,922;4,76
295,187;4,78
295,451;4,74
295,715;4,74
295,98;4,74
296,244;4,71
296,508;4,73
296,773;4,75
297,037;4,77
297,301;4,81
297,565;4,81
297,829;4,78
298,094;4,77
298,358;4,75
298,622;4,73
298,886;4,74
299,15;4,75
299,414;4,75
299,678;4,78
299,942;4,77
300,206;4,78
300,47;4,79
300,734;4,77
300,998;4,77
301,262;4,78
301,526;4,75
301,79;4,75
302,054;4,77
302,318;4,76
302,582;4,79
302,846;4,75
303,11;4,77
303,374;4,78
303,637;4,81
303,901;4,83
304,165;4,84
304,429;4,84
304,693;4,85
304,956;4,84
305,22;4,82
305,484;4,84
305,747;4,85
306,011;4,87
306,275;4,85
306,538;4,87
306,802;4,86
307,066;4,89
307,329;4,9
307,593;4,88
307,856;4,86
308,12;4,85
308,384;4,87
308,647;4,89
308,911;4,88
309,174;4,86
309,438;4,82
309,701;4,82
309,964;4,84
310,228;4,8
310,491;4,8
310,755;4,83
311,018;4,81
311,281;4,81
311,545;4,8
311,808;4,79
312,071;4,75
312,335;4,72
312,598;4,7
312,861;4,7
313,124;4,69
313,388;4,73
313,651;4,7
313,914;4,7
314,177;4,65
314,44;4,65
314,704;4,64
314,967;4,67
315,23;4,68
315,493;4,64
315,756;4,63
316,019;4,62
316,282;4,6
316,545;4,58
316,808;4,57
317,071;4,58
317,334;4,62
317,597;4,65
317,86;4,67
318,123;4,71
318,386;4,7
318,649;4,67
318,912;4,65
319,175;4,66
319,437;4,65
319,7;4,65
319,963;4,66
320,226;4,65
320,489;4,64
320,751;4,61
321,014;4,62
321,277;4,64
321,54;4,63
321,802;4,63
322,065;4,64
322,328;4,62
322,59;4,59
322,853;4,56
323,116;4,54
323,378;4,53
323,641;4,47
323,903;4,47
324,166;4,48
324,428;4,48
324,691;4,46
324,953;4,46
325,216;4,49
325,478;4,49
325,741;4,49
326,003;4,49
326,266;4,46
326,528;4,44
326,791;4,43
327,053;4,43
327,315;4,43
327,578;4,48
327,84;4,49
328,102;4,48
328,365;4,51
328,627;4,48
328,889;4,49
329,151;4,51
329,414;4,53
329,676;4,51
329,938;4,52
330,2;4,49
330,462;4,49
330,725;4,45
330,987;4,45
331,249;4,44
331,511;4,44
331,773;4,46
332,035;4,47
332,297;4,52
332,559;4,48
332,821;4,46
333,083;4,4
333,345;4,38
333,607;4,41
333,869;4,42
334,131;4,45
334,393;4,46
334,655;4,44
334,917;4,39
335,179;4,39
335,44;4,41
335,702;4,43
335,964;4,4
336,226;4,41
336,488;4,38
336,749;4,4
337,011;4,42
337,273;4,42
337,535;4,41
337,796;4,37
338,058;4,39
338,32;4,38
338,581;4,38
338,843;4,38
339,105;4,35
339,366;4,33
339,628;4,33
339,889;4,31
340,151;4,29
340,412;4,31
340,674;4,3
340,935;4,26
341,197;4,28
341,458;4,29
341,72;4,28
341,981;4,3
342,243;4,32
342,504;4,33
342,766;4,35
343,027;4,3
343,288;4,3
343,55;4,31
343,811;4,3
344,072;4,27
344,334;4,26
344,595;4,29
344,856;4,26
345,117;4,23
345,379;4,22
345,64;4,26
345,901;4,28
346,162;4,27
346,423;4,27
346,684;4,24
346,946;4,25
347,207;4,24
347,468;4,24
347,729;4,19
347,99;4,19
348,251;4,16
348,512;4,18
348,773;4,16
349,034;4,15
349,295;4,2
349,556;4,25
349,817;4,28
350,078;4,26
350,339;4,28
350,6;4,31
350,86;4,35
351,121;4,34
351,382;4,36
351,643;4,35
351,904;4,33
352,165;4,32
352,425;4,33
352,686;4,33
352,947;4,34
353,208;4,31
353,468;4,29
353,729;4,29
353,99;4,32
354,25;4,32
354,511;4,3
354,772;4,25
355,032;4,25
355,293;4,22
355,553;4,19
355,814;4,15
356,074;4,13
356,335;4,1
356,596;4,11
356,856;4,07
357,116;4,05
357,377;4,07
357,637;4,09
357,898;4,05
358,158;4,07
358,419;4,03
358,679;4,07
358,939;4,06
359,2;4,03
359,46;4,02
359,72;4
359,981;4,06
360,241;4,08
360,501;4,03
360,761;4,08
361,022;4,09
361,282;4,11
361,542;4,12
361,802;4,07
362,062;4,01
362,323;4,01
362,583;4,07
362,843;4,02
363,103;4,05
363,363;4,06
363,623;3,99
363,883;4,06
364,143;4,06
364,403;4,05
364,663;4,09
364,923;4,11
365,183;4,18
365,443;4,16
365,703;4,16
365,963;4,2
366,223;4,17
366,483;4,16
366,743;4,16
367,002;4,18
367,262;4,16
367,522;4,19
367,782;4,2
368,042;4,18
368,301;4,21
368,561;4,23
368,821;4,21
369,081;4,21
369,34;4,16
369,6;4,13
369,86;4,11
370,119;4,1
370,379;4,13
370,638;4,1
370,898;4,12
371,158;4,09
371,417;4,06
371,677;4,04
371,936;4,04
372,196;4,04
372,455;4,01
372,715;4,04
372,974;4,04
373,234;3,99
373,493;3,99
373,753;4
374,012;3,94
374,271;3,97
374,531;3,98
374,79;3,97
375,049;4,01
375,309;4,02
375,568;3,97
375,827;3,88
376,086;3,9
376,346;3,88
376,605;3,87
376,864;3,83
377,123;3,84
377,383;3,82
377,642;3,85
377,901;3,84
378,16;3,84
378,419;3,81
378,678;3,85
378,937;3,83
379,196;3,81
379,455;3,86
379,714;3,88
379,973;3,89
380,232;3,9
380,491;3,87
380,75;3,83
381,009;3,84
381,268;3,87
381,527;3,87
381,786;3,83
382,045;3,83
382,304;3,85
382,563;3,89
382,821;3,9
383,08;3,87
383,339;3,92
383,598;3,95
383,857;3,98
384,115;3,97
384,374;3,97
384,633;4,02
384,891;3,96
385,15;3,91
385,409;3,93
385,667;3,91
385,926;3,94
386,185;3,98
386,443;3,99
386,702;3,97
386,96;3,94
387,219;3,95
387,477;3,95
387,736;3,96
387,994;3,92
388,253;3,92
388,511;3,91
388,77;3,89
389,028;3,9
389,287;3,9
389,545;3,9
389,803;3,91
390,062;3,84
390,32;3,82
390,578;3,86
390,837;3,86
391,095;3,89
391,353;3,91
391,612;3,92
391,87;3,92
392,128;3,95
392,386;3,95
392,644;3,94
392,903;3,93
393,161;3,94
393,419;3,96
393,677;3,99
393,935;3,98
394,193;3,94
394,451;3,96
394,709;3,89
394,967;3,88
395,225;3,88
395,483;3,93
395,741;3,97
395,999;3,95
396,257;3,96
396,515;3,91
396,773;3,84
397,031;3,84
397,289;3,86
397,547;3,82
397,805;3,84
398,062;3,88
398,32;3,88
398,578;3,88
398,836;3,82
399,094;3,82
399,351;3,76
399,609;3,8
399,867;3,78
400,124;3,84
400,382;3,85
400,64;3,87
400,897;3,82
401,155;3,77
401,413;3,75
401,67;3,74
401,928;3,79
402,185;3,8
402,443;3,78
402,701;3,78
402,958;3,78
403,216;3,73
403,473;3,71
403,73;3,72
403,988;3,72
404,245;3,76
404,503;3,73
404,76;3,74
405,018;3,68
405,275;3,72
405,532;3,72
405,79;3,7
406,047;3,68
406,304;3,72
406,561;3,76
406,819;3,83
407,076;3,79
407,333;3,81
407,59;3,86
407,848;3,86
408,105;3,83
408,362;3,88
408,619;3,95
408,876;3,94
409,133;3,9
409,39;3,9
409,647;3,91
409,904;3,9
410,161;3,98
410,418;4,01
410,675;3,95
410,932;3,92
411,189;3,95
411,446;3,91
411,703;3,85
411,96;3,85
412,217;3,84
412,474;3,84
412,731;3,81
412,988;3,79
413,245;3,83
413,501;3,84
413,758;3,8
414,015;3,74
414,272;3,71
414,529;3,77
414,785;3,77
415,042;3,78
415,299;3,81
415,555;3,77
415,812;3,76
416,069;3,72
416,325;3,69
416,582;3,7
416,838;3,77
417,095;3,81
417,352;3,79
417,608;3,81
417,865;3,8
418,121;3,8
418,378;3,83
418,634;3,8
418,891;3,87
419,147;3,91
419,403;3,92
419,66;3,92
419,916;3,88
420,173;3,9
420,429;3,85
420,685;3,84
420,942;3,84
421,198;3,83
421,454;3,88
421,711;3,91
421,967;3,92
422,223;3,9
422,479;3,92
422,735;3,96
422,992;3,94
423,248;3,96
423,504;4
423,76;3,99
424,016;3,96
424,272;3,88
424,528;3,85
424,784;3,82
425,041;3,86
425,297;3,85
425,553;3,88
425,809;3,9
426,065;3,88
426,32;3,89
426,576;3,91
426,832;3,88
427,088;3,86
427,344;3,82
427,6;3,84
427,856;3,83
428,112;3,78
428,368;3,74
428,623;3,74
428,879;3,72
429,135;3,69
429,391;3,72
429,646;3,79
429,902;3,82
430,158;3,87
430,414;3,81
430,669;3,85
430,925;3,85
431,181;3,82
431,436;3,87
431,692;3,84
431,947;3,86
432,203;3,86
432,458;3,88
432,714;3,92
432,97;3,89
433,225;3,9
433,481;3,92
433,736;3,95
433,991;3,97
434,247;3,95
434,502;4,01
434,758;3,99
435,013;3,94
435,268;3,9
435,524;3,87
435,779;3,89
436,034;3,89
436,29;3,87
436,545;3,89
436,8;3,87
437,056;3,87
437,311;3,85
437,566;3,89
437,821;3,9
438,076;3,9
438,331;3,91
438,587;3,94
438,842;3,99
439,097;4,03
439,352;4,02
439,607;4
439,862;3,94
440,117;3,94
440,372;3,94
440,627;3,96
440,882;3,93
441,137;3,95
441,392;3,93
441,647;3,93
441,902;3,95
442,157;3,96
442,412;3,97
442,667;3,97
442,921;3,97
443,176;3,98
443,431;3,95
443,686;3,94
443,941;3,9
444,195;3,83
444,45;3,78
444,705;3,83
444,96;3,88
445,214;3,87
445,469;3,86
445,724;3,87
445,978;3,9
446,233;3,96
446,487;3,98
446,742;3,97
446,997;3,95
447,251;3,94
447,506;3,92
447,76;3,92
448,015;3,9
448,269;3,91
448,524;3,92
448,778;3,93
449,033;3,92
449,287;3,93
449,541;3,94
449,796;4
450,05;3,97
450,305;3,98
450,559;4
450,813;4,02
451,067;3,99
451,322;3,91
451,576;3,9
451,83;3,89
452,084;3,93
452,339;3,97
452,593;4,01
452,847;4,03
453,101;4,07
453,355;4,1
453,609;4,12
453,864;4,07
454,118;4,06
454,372;4,06
454,626;4,09
454,88;4,12
455,134;4,07
455,388;4,08
455,642;4,04
455,896;4,08
456,15;4,02
456,404;4,06
456,658;4,09
456,912;4,06
457,165;4,03
457,419;3,99
457,673;3,99
457,927;3,91
458,181;3,9
458,435;3,86
458,688;3,83
458,942;3,83
459,196;3,81
459,45;3,79
459,703;3,78
459,957;3,76
460,211;3,74
460,464;3,74
460,718;3,72
460,972;3,72
461,225;3,69
461,479;3,73
461,732;3,72
461,986;3,74
462,239;3,74
462,493;3,76
462,746;3,82
463;3,78
463,253;3,8
463,507;3,79
463,76;3,78
464,014;3,81
464,267;3,77
464,52;3,84
464,774;3,86
465,027;3,89
465,28;3,92
465,534;3,89
465,787;3,89
466,04;3,89
466,294;3,88
466,547;3,86
466,8;3,89
467,053;3,89
467,306;3,89
467,56;3,92
467,813;3,92
468,066;3,88
468,319;3,87
468,572;3,86
468,825;3,91
469,078;3,96
469,331;3,92
469,584;3,91
469,837;3,91
470,09;3,92
470,343;3,89
470,596;3,9
470,849;3,88
471,102;3,86
471,355;3,89
471,608;3,94
471,861;4
472,114;3,97
472,367;3,98
472,619;4
472,872;3,97
473,125;3,99
473,378;3,98
473,631;4,02
473,883;4
474,136;3,98
474,389;4
474,641;4,03
474,894;4,04
475,147;4,02
475,399;4,01
475,652;4
475,905;3,99
476,157;4,04
476,41;4,06
476,662;4,03
476,915;4,01
477,167;3,98
477,42;3,99
477,672;3,99
477,925;3,97
478,177;3,99
478,43;3,98
478,682;3,99
478,934;3,94
479,187;4
479,439;3,97
479,691;3,95
479,944;3,97
480,196;4
480,448;4,02
480,701;4,01
480,953;4,03
481,205;4,02
481,457;4,02
481,709;4,03
481,962;4,05
482,214;4,06
482,466;4,07
482,718;4,1
482,97;4,13
483,222;4,15
483,474;4,16
483,726;4,19
483,978;4,2
484,23;4,24
484,482;4,23
484,734;4,24
484,986;4,24
485,238;4,24
485,49;4,23
485,742;4,22
485,994;4,24
486,246;4,24
486,498;4,25
486,75;4,24
487,001;4,24
487,253;4,25
487,505;4,25
487,757;4,26
488,009;4,26
488,26;4,25
488,512;4,28
488,764;4,28
489,015;4,26
489,267;4,27
489,519;4,27
489,77;4,28
490,022;4,31
490,274;4,32
490,525;4,32
490,777;4,32
491,028;4,34
491,28;4,34
491,531;4,37
491,783;4,37
492,034;4,39
492,286;4,41
492,537;4,42
492,789;4,45
493,04;4,44
493,291;4,43
493,543;4,47
493,794;4,45
494,045;4,49
494,297;4,51
494,548;4,53
494,799;4,53
495,051;4,54
495,302;4,56
495,553;4,57
495,804;4,59
496,056;4,63
496,307;4,64
496,558;4,68
496,809;4,69
497,06;4,71
497,311;4,74
497,562;4,75
497,813;4,76
498,064;4,77
498,316;4,8
498,567;4,84
498,818;4,82
499,069;4,85
499,319;4,85
499,57;4,88
499,821;4,89
500,072;4,93
500,323;4,96
500,574;4,98
500,825;5,02
501,076;5,05
501,327;5,08
501,577;5,12
501,828;5,13
502,079;5,17
502,33;5,2
502,58;5,23
502,831;5,26
503,082;5,3
503,333;5,36
503,583;5,42
503,834;5,48
504,084;5,52
504,335;5,55
504,586;5,62
504,836;5,67
505,087;5,72
505,337;5,78
505,588;5,83
505,838;5,89
506,089;5,94
506,339;5,99
506,59;6,05
506,84;6,1
507,091;6,18
507,341;6,26
507,591;6,34
507,842;6,4
508,092;6,48
508,343;6,55
508,593;6,6
508,843;6,64
509,093;6,67
509,344;6,75
509,594;6,83
509,844;6,88
510,094;6,94
510,345;7,03
510,595;7,1
510,845;7,15
511,095;7,19
511,345;7,23
511,595;7,29
511,845;7,34
512,095;7,4
512,345;7,43
512,595;7,49
512,845;7,52
513,095;7,57
513,345;7,62
513,595;7,66
513,845;7,68
514,095;7,73
514,345;7,78
514,595;7,82
514,845;7,85
515,095;7,9
515,345;7,95
515,594;7,97
515,844;7,97
516,094;8,03
516,344;8,08
516,593;8,11
516,843;8,15
517,093;8,19
517,343;8,21
517,592;8,26
517,842;8,26
518,092;8,31
518,341;8,33
518,591;8,38
518,84;8,4
519,09;8,44
519,34;8,48
519,589;8,5
519,839;8,53
520,088;8,54
520,338;8,55
520,587;8,56
520,836;8,56
521,086;8,6
521,335;8,59
521,585;8,6
521,834;8,61
522,083;8,6
522,333;8,63
522,582;8,64
522,831;8,64
523,081;8,65
523,33;8,65
523,579;8,67
523,828;8,66
524,078;8,67
524,327;8,69
524,576;8,67
524,825;8,67
525,074;8,68
525,323;8,71
525,573;8,71
525,822;8,73
526,071;8,76
526,32;8,76
526,569;8,76
526,818;8,77
527,067;8,79
527,316;8,82
527,565;8,82
527,814;8,84
528,063;8,85
528,312;8,85
528,56;8,85
528,809;8,85
529,058;8,88
529,307;8,9
529,556;8,91
529,805;8,95
530,053;8,98
530,302;8,99
530,551;9,02
530,8;9
531,048;9,01
531,297;9,02
531,546;9,03
531,794;9,06
532,043;9,06
532,292;9,1
532,54;9,09
532,789;9,1
533,037;9,11
533,286;9,13
533,535;9,14
533,783;9,14
534,032;9,16
534,28;9,14
534,528;9,15
534,777;9,15
535,025;9,16
535,274;9,16
535,522;9,16
535,771;9,15
536,019;9,19
536,267;9,17
536,516;9,17
536,764;9,2
537,012;9,19
537,26;9,2
537,509;9,2
537,757;9,23
538,005;9,25
538,253;9,25
538,501;9,26
538,75;9,27
538,998;9,31
539,246;9,32
539,494;9,35
539,742;9,34
539,99;9,36
540,238;9,37
540,486;9,37
540,734;9,36
540,982;9,39
541,23;9,4
541,478;9,43
541,726;9,45
541,974;9,45
542,222;9,51
542,47;9,53
542,718;9,52
542,966;9,52
543,213;9,53
543,461;9,55
543,709;9,57
543,957;9,59
544,205;9,6
544,452;9,61
544,7;9,61
544,948;9,64
545,196;9,63
545,443;9,65
545,691;9,67
545,939;9,7
546,186;9,71
546,434;9,74
546,681;9,73
546,929;9,76
547,176;9,75
547,424;9,75
547,671;9,76
547,919;9,78
548,166;9,8
548,414;9,84
548,661;9,86
548,909;9,87
549,156;9,88
549,404;9,9
549,651;9,91
549,898;9,95
550,146;9,96
550,393;10
550,64;10,03
550,888;10,05
551,135;10,06
551,382;10,06
551,629;10,06
551,876;10,09
552,124;10,15
552,371;10,18
552,618;10,18
552,865;10,19
553,112;10,2
553,359;10,23
553,606;10,22
553,854;10,25
554,101;10,27
554,348;10,3
554,595;10,32
554,842;10,34
555,089;10,36
555,336;10,39
555,582;10,42
555,829;10,42
556,076;10,44
556,323;10,48
556,57;10,51
556,817;10,55
557,064;10,58
557,311;10,59
557,557;10,59
557,804;10,64
558,051;10,65
558,298;10,7
558,544;10,73
558,791;10,77
559,038;10,77
559,284;10,8
559,531;10,83
559,778;10,85
560,024;10,87
560,271;10,9
560,517;10,93
560,764;10,94
561,011;10,98
561,257;11,03
561,504;11,06
561,75;11,11
561,997;11,15
562,243;11,18
562,489;11,2
562,736;11,26
562,982;11,3
563,229;11,39
563,475;11,42
563,721;11,47
563,968;11,51
564,214;11,57
564,46;11,62
564,707;11,69
564,953;11,74
565,199;11,81
565,445;11,89
565,691;11,95
565,938;12,04
566,184;12,11
566,43;12,18
566,676;12,26
566,922;12,32
567,168;12,39
567,414;12,48
567,66;12,56
567,906;12,67
568,152;12,75
568,398;12,83
568,644;12,91
568,89;12,97
569,136;13,08
569,382;13,16
569,628;13,26
569,874;13,32
570,12;13,42
570,366;13,5
570,612;13,59
570,857;13,68
571,103;13,76
571,349;13,86
571,595;13,96
571,84;14,05
572,086;14,16
572,332;14,26
572,578;14,35
572,823;14,46
573,069;14,52
573,315;14,62
573,56;14,72
573,806;14,81
574,051;14,94
574,297;15,02
574,542;15,13
574,788;15,23
575,034;15,35
575,279;15,45
575,524;15,55
575,77;15,66
576,015;15,77
576,261;15,88
576,506;15,99
576,752;16,08
576,997;16,19
577,242;16,28
577,488;16,39
577,733;16,5
577,978;16,62
578,223;16,75
578,469;16,88
578,714;17,01
578,959;17,16
579,204;17,28
579,45;17,42
579,695;17,56
579,94;17,69
580,185;17,8
580,43;17,94
580,675;18,06
580,92;18,19
581,165;18,31
581,41;18,45
581,655;18,58
581,9;18,73
582,145;18,87
582,39;19,03
582,635;19,17
582,88;19,32
583,125;19,46
583,37;19,62
583,615;19,76
583,86;19,93
584,105;20,08
584,349;20,25
584,594;20,41
584,839;20,57
585,084;20,74
585,328;20,94
585,573;21,11
585,818;21,3
586,063;21,46
586,307;21,64
586,552;21,79
586,797;21,96
587,041;22,13
587,286;22,3
587,53;22,46
587,775;22,65
588,019;22,82
588,264;23
588,508;23,17
588,753;23,39
588,997;23,57
589,242;23,78
589,486;23,99
589,731;24,22
589,975;24,45
590,22;24,69
590,464;24,93
590,708;25,17
590,953;25,38
591,197;25,61
591,441;25,84
591,685;26,09
591,93;26,32
592,174;26,58
592,418;26,82
592,662;27,07
592,907;27,29
593,151;27,54
593,395;27,77
593,639;28
593,883;28,25
594,127;28,48
594,371;28,71
594,615;28,94
594,859;29,19
595,103;29,44
595,347;29,68
595,591;29,92
595,835;30,18
596,079;30,47
596,323;30,74
596,567;31,02
596,811;31,28
597,055;31,55
597,299;31,83
597,542;32,1
597,786;32,37
598,03;32,66
598,274;32,9
598,518;33,17
598,761;33,44
599,005;33,68
599,249;33,94
599,492;34,21
599,736;34,48
599,98;34,73
600,223;34,98
600,467;35,25
600,711;35,51
600,954;35,8
601,198;36,05
601,441;36,31
601,685;36,56
601,928;36,84
602,172;37,12
602,415;37,37
602,659;37,65
602,902;37,91
603,145;38,17
603,389;38,45
603,632;38,74
603,876;38,99
604,119;39,26
604,362;39,54
604,606;39,8
604,849;40,06
605,092;40,32
605,335;40,62
605,579;40,87
605,822;41,12
606,065;41,33
606,308;41,59
606,551;41,84
606,794;42,11
607,037;42,34
607,281;42,58
607,524;42,83
607,767;43,08
608,01;43,3
608,253;43,52
608,496;43,76
608,739;43,99
608,982;44,23
609,225;44,45
609,468;44,64
609,711;44,87
609,953;45,09
610,196;45,33
610,439;45,52
610,682;45,75
610,925;45,96
611,168;46,18
611,41;46,38
611,653;46,56
611,896;46,75
612,139;46,93
612,381;47,12
612,624;47,31
612,867;47,46
613,109;47,66
613,352;47,86
613,595;48,05
613,837;48,21
614,08;48,38
614,322;48,57
614,565;48,75
614,807;48,9
615,05;49,04
615,292;49,19
615,535;49,36
615,777;49,52
616,02;49,66
616,262;49,81
616,505;49,96
616,747;50,11
616,989;50,3
617,232;50,47
617,474;50,62
617,716;50,75
617,959;50,9
618,201;51,04
618,443;51,18
618,685;51,29
618,927;51,41
619,17;51,53
619,412;51,67
619,654;51,77
619,896;51,89
620,138;52,01
620,38;52,12
620,622;52,24
620,864;52,36
621,107;52,48
621,349;52,59
621,591;52,71
621,833;52,84
622,075;52,89
622,316;53,01
622,558;53,14
622,8;53,23
623,042;53,35
623,284;53,48
623,526;53,53
623,768;53,63
624,01;53,74
624,251;53,85
624,493;53,95
624,735;54,07
624,977;54,17
625,218;54,26
625,46;54,32
625,702;54,39
625,943;54,46
626,185;54,54
626,427;54,62
626,668;54,7
626,91;54,77
627,152;54,89
627,393;54,93
627,635;54,98
627,876;55,04
628,118;55,1
628,359;55,16
628,601;55,24
628,842;55,34
629,084;55,43
629,325;55,45
629,566;55,49
629,808;55,57
630,049;55,62
630,29;55,72
630,532;55,81
630,773;55,89
631,014;55,98
631,256;56,04
631,497;56,12
631,738;56,16
631,979;56,21
632,22;56,24
632,462;56,28
632,703;56,3
632,944;56,38
633,185;56,4
633,426;56,47
633,667;56,53
633,908;56,55
634,149;56,58
634,39;56,66
634,631;56,71
634,872;56,76
635,113;56,79
635,354;56,81
635,595;56,83
635,836;56,85
636,077;56,86
636,318;56,92
636,559;56,93
636,8;57,02
637,04;57,06
637,281;57,06
637,522;57,12
637,763;57,16
638,003;57,21
638,244;57,25
638,485;57,24
638,726;57,28
638,966;57,32
639,207;57,37
639,448;57,38
639,688;57,4
639,929;57,41
640,169;57,45
640,41;57,45
640,65;57,54
640,891;57,56
641,131;57,58
641,372;57,59
641,612;57,61
641,853;57,63
642,093;57,66
642,334;57,73
642,574;57,77
642,814;57,8
643,055;57,8
643,295;57,87
643,535;57,9
643,776;57,92
644,016;57,94
644,256;57,97
644,496;58,02
644,737;58,06
644,977;58,08
645,217;58,11
645,457;58,17
645,697;58,16
645,938;58,18
646,178;58,25
646,418;58,25
646,658;58,33
646,898;58,34
647,138;58,37
647,378;58,4
647,618;58,43
647,858;58,45
648,098;58,49
648,338;58,54
648,578;58,58
648,818;58,58
649,057;58,63
649,297;58,65
649,537;58,66
649,777;58,68
650,017;58,73
650,257;58,78
650,496;58,79
650,736;58,84
650,976;58,86
661,028;59,07
661,267;59,17
661,506;59,24
661,744;59,32
661,983;59,39
662,222;59,43
662,461;59,45
662,7;59,43
662,939;59,47
663,177;59,47
663,416;59,5
663,655;59,5
663,894;59,5
664,132;59,52
664,371;59,53
664,61;59,54
664,848;59,59
665,087;59,61
665,326;59,65
665,564;59,67
665,803;59,66
666,041;59,67
666,28;59,68
666,518;59,72
666,757;59,72
666,995;59,74
667,234;59,72
667,472;59,74
667,711;59,75
667,949;59,77
668,187;59,75
668,426;59,77
668,664;59,8
668,902;59,83
669,141;59,8
669,379;59,8
669,617;59,8
669,856;59,81
670,094;59,79
670,332;59,79
670,57;59,79
670,808;59,81
671,046;59,84
671,285;59,86
671,523;59,83
671,761;59,86
671,999;59,85
672,237;59,92
672,475;59,96
672,713;60
672,951;59,99
673,189;59,99
673,427;60
673,665;60
673,903;59,98
674,141;60,03
674,379;60,07
674,617;60,08
674,854;60,08
675,092;60,11
675,33;60,15
675,568;60,15
675,806;60,21
676,043;60,24
676,281;60,24
676,519;60,27
676,756;60,3
676,994;60,33
677,232;60,33
677,469;60,34
677,707;60,32
677,945;60,35
678,182;60,43
678,42;60,45
678,657;60,48
678,895;60,51
679,132;60,51
679,37;60,48
679,607;60,5
679,845;60,5
680,082;60,53
680,32;60,49
680,557;60,47
680,794;60,42
681,032;60,36
681,269;60,36
681,507;60,39
681,744;60,38
681,981;60,44
682,218;60,41
682,456;60,37
682,693;60,42
682,93;60,42
683,167;60,4
683,404;60,39
683,642;60,39
683,879;60,37
684,116;60,38
684,353;60,41
684,59;60,41
684,827;60,42
685,064;60,4
685,301;60,39
685,538;60,43
685,775;60,47
686,012;60,51
686,249;60,5
686,486;60,46
686,723;60,5
686,96;60,48
687,197;60,49
687,433;60,5
687,67;60,52
687,907;60,52
688,144;60,54
688,381;60,56
688,617;60,56
688,854;60,58
689,091;60,59
689,327;60,58
689,564;60,59
689,801;60,57
690,037;60,59
690,274;60,6
690,511;60,6
690,747;60,63
690,984;60,62
691,22;60,66
691,457;60,69
691,693;60,64
691,93;60,64
692,166;60,64
692,403;60,68
692,639;60,67
692,876;60,68
693,112;60,64
693,348;60,65
693,585;60,68
693,821;60,69
694,057;60,71
694,294;60,75
694,53;60,74
694,766;60,81
695,002;60,85
695,239;60,88
695,475;60,92
695,711;60,87
695,947;60,88
696,183;60,86
696,419;60,91
696,656;60,96
696,892;60,97
697,128;61
697,364;60,98
697,6;60,98
697,836;60,98
698,072;61,03
698,308;61,09
698,544;61,09
698,78;61,09
699,016;61,07
699,251;61,06
699,487;61,11
699,723;61,13
699,959;61,14
700,195;61,18
700,431;61,18
700,666;61,2
700,902;61,23
701,138;61,28
701,374;61,25
701,609;61,25
701,845;61,26
702,081;61,31
702,316;61,32
702,552;61,3
702,788;61,31
703,023;61,33
703,259;61,27
703,494;61,3
703,73;61,35
703,965;61,41
704,201;61,42
704,436;61,38
704,672;61,36
704,907;61,32
705,143;61,3
705,378;61,33
705,613;61,36
705,849;61,36
706,084;61,35
706,319;61,36
706,555;61,35
706,79;61,38
707,025;61,38
707,26;61,4
707,496;61,44
707,731;61,45
707,966;61,48
708,201;61,52
708,436;61,5
708,671;61,48
708,907;61,49
709,142;61,5
709,377;61,54
709,612;61,62
709,847;61,69
710,082;61,68
710,317;61,69
710,552;61,73
710,787;61,77
711,022;61,8
711,257;61,85
711,492;61,92
711,726;61,9
711,961;61,92
712,196;61,94
712,431;61,99
712,666;62,02
712,901;62
713,135;62,02
713,37;62,07
713,605;62,1
713,839;62,12
714,074;62,14
714,309;62,15
714,543;62,13
714,778;62,12
715,013;62,15
715,247;62,13
715,482;62,14
715,716;62,15
715,951;62,18
716,185;62,19
716,42;62,18
716,654;62,23
716,889;62,26
717,123;62,28
717,358;62,25
717,592;62,28
717,827;62,32
718,061;62,36
718,295;62,36
718,53;62,35
718,764;62,35
718,998;62,36
719,232;62,43
719,467;62,43
719,701;62,43
719,935;62,46
720,169;62,5
720,403;62,53
720,638;62,58
720,872;62,59
721,106;62,61
721,34;62,61
721,574;62,61
721,808;62,62
722,042;62,64
722,276;62,68
722,51;62,68
722,744;62,74
722,978;62,75
723,212;62,74
723,446;62,78
723,68;62,79
723,914;62,85
724,147;62,86
724,381;62,89
724,615;62,94
724,849;63
725,083;63,03
725,316;63,04
725,55;63,03
725,784;63,11
726,018;63,14
726,251;63,2
726,485;63,27
726,719;63,31
726,952;63,36
727,186;63,4
727,419;63,42
727,653;63,43
727,887;63,47
728,12;63,56
728,354;63,56
728,587;63,62
728,821;63,62
729,054;63,65
729,287;63,68
729,521;63,73
729,754;63,71
729,988;63,7
730,221;63,75
730,454;63,79
730,688;63,77
730,921;63,79
731,154;63,84
731,387;63,84
731,621;63,9
731,854;63,89
732,087;63,92
732,32;63,97
732,553;64,01
732,787;64,05
733,02;64,07
733,253;64,13
733,486;64,14
733,719;64,19
733,952;64,23
734,185;64,22
734,418;64,22
734,651;64,3
734,884;64,38
735,117;64,39
735,35;64,35
735,583;64,35
735,816;64,36
736,049;64,37
736,281;64,43
736,514;64,46
736,747;64,5
736,98;64,54
737,213;64,57
737,445;64,53
737,678;64,57
737,911;64,59
738,144;64,61
738,376;64,66
738,609;64,69
738,842;64,69
739,074;64,76
739,307;64,81
739,539;64,82
739,772;64,86
740,004;64,89
740,237;64,99
740,469;65,04
740,702;65,1
740,934;65,16
741,167;65,15
741,399;65,14
741,632;65,19
741,864;65,23
742,096;65,27
742,329;65,35
742,561;65,32
742,793;65,35
743,026;65,38
743,258;65,42
743,49;65,4
743,723;65,39
743,955;65,41
744,187;65,45
744,419;65,44
744,651;65,48
744,883;65,49
745,115;65,5
745,348;65,55
745,58;65,56
745,812;65,55
746,044;65,61
746,276;65,63
746,508;65,71
746,74;65,73
746,972;65,78
747,204;65,81
747,436;65,88
747,667;65,92
747,899;65,93
748,131;65,96
748,363;65,98
748,595;66,08
748,827;66,12
749,058;66,13
749,29;66,16
749,522;66,12
749,754;66,18
749,985;66,17
750,217;66,17
750,449;66,17
750,68;66,19
750,912;66,2
751,144;66,26
751,375;66,21
751,607;66,19
751,838;66,21
752,07;66,23
752,301;66,21
752,533;66,21
752,764;66,26
752,996;66,27
753,227;66,32
753,459;66,28
753,69;66,31
753,921;66,37
754,153;66,41
754,384;66,48
754,615;66,49
754,847;66,56
755,078;66,65
755,309;66,7
755,54;66,7
755,772;66,69
756,003;66,67
756,234;66,68
756,465;66,73
756,696;66,73
756,927;66,78
757,159;66,82
757,39;66,89
757,621;66,94
757,852;66,95
758,083;66,99
758,314;67,05
758,545;67,08
758,776;67,04
759,007;67,01
759,238;67,03
759,469;67,04
759,699;67,04
759,93;67,01
760,161;67,02
760,392;67,04
760,623;67,07
760,854;67,09
761,084;67,15
761,315;67,12
761,546;67,14
761,776;67,09
762,007;67,13
762,238;67,09
762,468;67,06
762,699;67,09
762,93;67,08
763,16;67,09
763,391;67,1
763,621;67,15
763,852;67,21
764,083;67,2
764,313;67,22
764,543;67,22
764,774;67,2
765,004;67,19
765,235;67,23
765,465;67,24
765,696;67,26
765,926;67,25
766,156;67,26
766,387;67,31
766,617;67,38
766,847;67,39
767,077;67,42
767,308;67,41
767,538;67,43
767,768;67,43
767,998;67,4
768,228;67,41
768,459;67,36
768,689;67,4
768,919;67,42
769,149;67,45
769,379;67,49
769,609;67,52
769,839;67,54
770,069;67,53
770,299;67,53
770,529;67,51
770,759;67,52
770,989;67,51
771,219;67,48
771,449;67,47
771,678;67,47
771,908;67,47
772,138;67,52
772,368;67,49
772,598;67,51
772,827;67,58
773,057;67,53
773,287;67,61
773,517;67,58
773,746;67,56
773,976;67,58
774,206;67,58
774,435;67,6
774,665;67,67
774,894;67,72
775,124;67,78
775,354;67,84
775,583;67,9
775,813;67,92
776,042;67,9
776,272;67,9
776,501;67,95
776,73;67,99
776,96;67,96
777,189;67,99
777,419;68,03
777,648;68
777,877;68,02
778,107;67,99
778,336;68,03
778,565;68,05
778,794;68,02
779,024;68,07
779,253;68,06
779,482;68,03
779,711;68,04
779,94;68
780,17;67,99
780,399;67,97
780,628;67,99
780,857;68,01
781,086;68,03
781,315;68,07
781,544;68,05
781,773;68,06
782,002;68,06
782,231;68,09
782,46;68,12
782,689;68,13
782,918;68,12
783,147;68,1
783,375;68,06
783,604;68,15
783,833;68,14
784,062;68,1
784,291;68,12
784,519;68,13
784,748;68,14
784,977;68,14
785,206;68,09
785,434;68,11
785,663;68,1
785,892;68,1
786,12;68,04
786,349;68,05
786,577;68,08
786,806;68,12
787,034;68,08
787,263;68,04
787,492;68,04
787,72;68,06
787,948;68,09
788,177;68,14
788,405;68,03
788,634;68,01
788,862;68,06
789,09;68,04
789,319;68
789,547;67,94
789,775;67,94
790,004;67,98
790,232;67,98
790,46;67,96
790,688;67,94
790,917;67,94
791,145;67,92
791,373;67,92
791,601;67,88
791,829;67,88
792,057;67,88
792,286;67,89
792,514;67,92
792,742;67,92
792,97;67,91
793,198;67,91
793,426;67,93
793,654;67,9
793,882;67,88
794,109;67,92
794,337;67,95
794,565;67,91
794,793;67,94
795,021;67,89
795,249;67,89
795,477;67,91
795,704;67,85
795,932;67,83
796,16;67,83
796,388;67,81
796,615;67,75
796,843;67,79
797,071;67,79
797,298;67,73
797,526;67,75
797,754;67,74
797,981;67,73
798,209;67,71
798,436;67,75
798,664;67,75
798,891;67,68
799,119;67,63
799,346;67,62
799,574;67,59
799,801;67,66
800,029;67,63
800,256;67,69
800,483;67,73
800,711;67,73
800,938;67,68
801,165;67,7
801,393;67,69
801,62;67,67
801,847;67,7
802,074;67,7
802,302;67,67
802,529;67,64
802,756;67,67
802,983;67,65
803,21;67,63
803,437;67,66
803,665;67,66
803,892;67,78
804,119;67,78
804,346;67,74
804,573;67,68
804,8;67,66
805,027;67,56
805,254;67,57
805,481;67,54
805,708;67,57
805,934;67,51
806,161;67,54
806,388;67,6
806,615;67,56
806,842;67,6
807,069;67,57
807,295;67,62
807,522;67,66
807,749;67,71
807,976;67,69
808,202;67,66
808,429;67,63
808,656;67,54
808,882;67,6
809,109;67,6
809,335;67,6
809,562;67,64
809,789;67,67
810,015;67,68
810,242;67,73
810,468;67,74
810,695;67,77
810,921;67,75
811,147;67,72
811,374;67,73
811,6;67,72
811,827;67,75
812,053;67,68
812,279;67,67
812,506;67,59
812,732;67,59
812,958;67,56
813,185;67,57
813,411;67,59
813,637;67,58
813,863;67,64
814,089;67,65
814,315;67,63
814,542;67,63
814,768;67,57
814,994;67,54
815,22;67,48
815,446;67,52
815,672;67,6
815,898;67,56
816,124;67,55
816,35;67,51
816,576;67,43
816,802;67,45
817,028;67,41
817,254;67,41
817,48;67,39
817,705;67,44
817,931;67,51
818,157;67,5
818,383;67,43
818,609;67,36
818,834;67,31
819,06;67,28
819,286;67,25
819,512;67,29
819,737;67,25
819,963;67,25
820,189;67,22
820,414;67,13
820,64;67,05
820,865;67,03
821,091;66,93
821,316;66,91
821,542;66,91
821,767;66,91
821,993;66,92
822,218;66,95
822,444;66,86
822,669;66,8
822,895;66,8
823,12;66,89
823,345;66,91
823,571;66,9
823,796;66,9
824,021;66,84
824,247;66,88
824,472;66,9
824,697;66,93
824,922;66,92
825,147;66,94
825,373;66,99
825,598;67,04
825,823;67,13
826,048;67,13
826,273;67,14
826,498;67,15
826,723;67,17
826,948;67,15
827,173;67,21
827,398;67,25
827,623;67,28
827,848;67,27
828,073;67,28
828,298;67,32
828,523;67,33
828,748;67,39
828,973;67,24
829,197;67,26
829,422;67,24
829,647;67,22
829,872;67,19
830,097;67,22
830,321;67,21
830,546;67,23
830,771;67,24
830,995;67,23
831,22;67,21
831,445;67,1
831,669;67,12
831,894;67,05
832,118;66,99
832,343;66,9
832,567;66,82
832,792;66,73
833,016;66,73
833,241;66,76
833,465;66,76
833,69;66,8
833,914;66,75
834,139;66,72
834,363;66,75
834,587;66,73
834,812;66,69
835,036;66,62
835,26;66,67
835,485;66,57
835,709;66,52
835,933;66,54
836,157;66,57
836,381;66,5
836,606;66,51
836,83;66,47
837,054;66,47
837,278;66,44
837,502;66,45
837,726;66,45
837,95;66,37
838,174;66,31
838,398;66,31
838,622;66,32
838,846;66,37
839,07;66,3
839,294;66,29
839,518;66,31
839,742;66,31
839,966;66,23
840,189;66,33
840,413;66,36
840,637;66,27
840,861;66,27
841,085;66,24
841,308;66,25
841,532;66,27
841,756;66,32
841,979;66,32
842,203;66,4
842,427;66,36
842,65;66,31
842,874;66,3
843,098;66,25
843,321;66,27
843,545;66,28
843,768;66,23
843,992;66,23
844,215;66,13
844,439;66,09
844,662;66,02
844,886;66
845,109;65,96
845,332;65,96
845,556;65,89
845,779;65,91
846,002;65,85
846,226;65,86
846,449;65,79
846,672;65,73
846,895;65,66
847,119;65,63
847,342;65,69
847,565;65,66
847,788;65,69
848,011;65,65
848,234;65,59
848,457;65,63
848,681;65,64
848,904;65,74
849,127;65,76
849,35;65,87
849,573;65,91
849,796;65,93
850,019;65,96
850,241;66,06
850,464;66,13
850,687;66,26
850,91;66,23
851,133;66,27
851,356;66,38
851,579;66,39
851,801;66,33
852,024;66,41
852,247;66,41
852,47;66,38
852,692;66,35
852,915;66,36
853,138;66,4
853,36;66,39
853,583;66,27
853,806;66,26
854,028;66,17
854,251;66,11
854,473;66,12
854,696;66,13
854,918;66,08
855,141;65,99
855,363;65,88
855,586;65,91
855,808;65,89
856,031;65,83
856,253;65,87
856,475;65,92
856,698;65,81
856,92;65,75
857,142;65,71
857,365;65,71
857,587;65,67
857,809;65,61
858,031;65,57
858,253;65,55
858,476;65,5
858,698;65,49
858,92;65,45
859,142;65,46
859,364;65,4
859,586;65,41
859,808;65,41
860,03;65,42
860,252;65,39
860,474;65,31
860,696;65,35
860,918;65,25
861,14;65,19
861,362;65,28
861,584;65,28
861,806;65,33
862,028;65,33
862,25;65,42
862,471;65,43
862,693;65,45
862,915;65,43
863,137;65,42
863,358;65,45
863,58;65,44
863,802;65,35
864,024;65,4
864,245;65,42
864,467;65,4
864,688;65,34
864,91;65,4
865,132;65,47
865,353;65,44
865,575;65,45
865,796;65,5
866,018;65,41
866,239;65,43
866,461;65,33
866,682;65,3
866,903;65,11
867,125;65,07
867,346;64,99
867,567;65,05
867,789;65,09
868,01;65,06
868,231;65,04
868,453;65,08
868,674;65,05
868,895;65,02
869,116;64,99
869,337;65,06
869,559;64,86
869,78;64,85
870,001;64,76
870,222;64,74
870,443;64,7
870,664;64,68
870,885;64,68
871,106;64,66
871,327;64,73
871,548;64,83
871,769;64,83
871,99;64,87
872,211;64,87
872,432;64,87
872,653;64,83
872,874;64,85
873,094;64,81
873,315;64,79
873,536;64,8
873,757;64,77
873,978;64,75
874,198;64,74
874,419;64,69
874,64;64,73
874,86;64,72
875,081;64,74
875,302;64,84
875,522;64,92
875,743;64,96
875,963;64,86
876,184;64,8
876,404;64,84
876,625;64,89
876,845;64,88
877,066;64,77
877,286;64,84
877,507;64,8
877,727;64,82
877,947;64,79
878,168;64,73
878,388;64,73
878,609;64,65
878,829;64,67
879,049;64,74
879,269;64,82
879,49;64,74
879,71;64,71
879,93;64,66
880,15;64,59
880,37;64,62
880,59;64,61
880,811;64,61
881,031;64,44
881,251;64,41
881,471;64,41
881,691;64,47
881,911;64,43
882,131;64,6
882,351;64,53
882,571;64,56
882,791;64,51
883,011;64,56
883,23;64,65
883,45;64,79
883,67;64,73
883,89;64,59
884,11;64,58
884,33;64,58
884,549;64,45
884,769;64,49
884,989;64,46
885,209;64,6
885,428;64,64
885,648;64,65
885,868;64,66
886,087;64,59
886,307;64,61
886,526;64,56
886,746;64,36
886,965;64,4
887,185;64,36
887,404;64,49
887,624;64,5
887,843;64,53
888,063;64,41
888,282;64,46
888,502;64,44
888,721;64,6
888,94;64,63
889,16;64,68
889,379;64,66
889,598;64,7
889,818;64,65
890,037;64,7
890,256;64,83
890,475;64,83
890,694;64,87
890,914;64,92
891,133;64,85
891,352;64,91
891,571;65
891,79;65,07
892,009;64,96
892,228;64,89
892,447;64,77
892,666;64,85
892,885;64,76
893,104;64,78
893,323;64,75
893,542;64,76
893,761;64,8
893,98;64,85
894,199;64,82
894,417;64,73
894,636;64,58
894,855;64,59
895,074;64,45
895,293;64,39
895,511;64,42
895,73;64,54
895,949;64,55
896,167;64,41
896,386;64,41
896,605;64,48
896,823;64,51
897,042;64,55
897,26;64,47
897,479;64,55
897,697;64,57
897,916;64,55
898,134;64,39
898,353;64,37
898,571;64,36
898,79;64,4
899,008;64,45
899,227;64,48
899,445;64,41
899,663;64,56
899,882;64,6
900,1;64,58
900,318;64,56
900,536;64,65
900,755;64,83
900,973;64,69
901,191;64,62
901,409;64,67
901,627;64,62
901,846;64,72
902,064;64,66
902,282;64,67
902,5;64,55
902,718;64,53
902,936;64,52
903,154;64,4
903,372;64,27
903,59;64,3
903,808;64,39
904,026;64,48
904,244;64,37
904,462;64,32
904,679;64,32
904,897;64,33
905,115;64,14
905,333;64,05
905,551;64,09
905,768;64,2
905,986;64,23
906,204;64,23
906,422;64,12
906,639;64,18
906,857;64,31
907,074;64,4
907,292;64,64
907,51;64,59
907,727;64,67
907,945;64,79
908,162;64,8
908,38;64,8
908,597;64,7
908,815;64,78
909,032;64,76
909,25;64,64
909,467;64,49
909,684;64,49
909,902;64,33
910,119;64,42
910,337;64,32
910,554;64,29
910,771;64,28
910,988;64,44
911,206;64,44
911,423;64,45
911,64;64,38
911,857;64,25
912,074;64,33
912,291;64,22
912,509;64,2
912,726;64,06
912,943;64,11
913,16;64,1
913,377;64,06
913,594;63,99
913,811;63,98
914,028;64,07
914,245;64,01
914,462;64,13
914,679;64,15
914,896;64,18
915,112;64,16
915,329;64,16
915,546;64,12
915,763;64,12
915,98;63,88
916,196;63,89
916,413;63,87
916,63;63,91
916,847;63,99
917,063;63,92
917,28;63,81
917,497;63,69
917,713;63,65
917,93;63,87
918,146;63,9
918,363;64,01
918,579;64
918,796;64,13
919,012;64,24
919,229;64,13
919,445;64,14
919,662;64,15
919,878;64,06
920,095;64,12
920,311;64,06
920,527;64,26
920,744;64,39
920,96;64,49
921,176;64,56
921,392;64,59
921,609;64,65
921,825;65,01
922,041;65,02
922,257;65,22
922,473;65,04
922,69;65,15
922,906;65,09
923,122;65,23
923,338;65,19
923,554;65,02
923,77;64,99
923,986;65,04
924,202;65,05
924,418;65,18
924,634;65,02
924,85;65,1
925,066;65,09
925,282;65,07
925,497;65
925,713;64,94
925,929;64,94
926,145;64,84
926,361;64,66
926,576;64,77
926,792;64,57
927,008;64,61
927,224;64,59
927,439;64,62
927,655;64,59
927,871;64,6
928,086;64,63
928,302;64,67
928,517;64,61
928,733;64,61
928,948;64,57
929,164;64,7
929,379;64,46
929,595;64,4
929,81;64,35
930,026;64,39
930,241;64,35
930,456;64,24
930,672;64,35
930,887;64,43
931,102;64,24
931,318;64,36
931,533;64,28
931,748;64,3
931,964;64,15
932,179;64,04
932,394;64,06
932,609;64,04
932,824;64,04
933,039;63,85
933,255;63,7
933,47;63,71
933,685;63,53
933,9;63,73
934,115;63,69
934,33;63,63
934,545;63,52
934,76;63,47
934,975;63,56
935,19;63,51
935,404;63,35
935,619;63,58
935,834;63,61
936,049;63,63
936,264;63,54
936,479;63,79
936,693;63,75
936,908;63,93
937,123;64,02
937,338;64,07
937,552;64,23
937,767;64,43
937,982;64,6
938,196;64,65
938,411;64,69
938,625;64,95
938,84;65,1
939,055;65,19
939,269;65,47
939,484;65,78
939,698;66,11
939,912;66,26
940,127;66,27
940,341;66,26
940,556;66,21
940,77;66,74
940,984;66,76
941,199;67,27
941,413;67,29
941,627;67,48
941,842;67,6
942,056;68,2
942,27;68,5
942,484;68,6
942,699;68,8
942,913;68,59
943,127;68,11
943,341;68,11
943,555;68,35
943,769;68,21
943,983;67,99
944,197;67,55
944,411;67,13
944,625;67,09
944,839;67,06
945,053;67,79
945,267;67,74
945,481;68,34
945,695;68,57
945,909;68,11
946,123;68,08
946,336;67,78
946,55;67,71
946,764;67,66
946,978;66,97
947,192;66,75
947,405;66,59
947,619;67,12
947,833;67,44
948,046;67,72
948,26;67,73
948,474;67,85
948,687;68,51
948,901;69,1
949,114;68,54
949,328;68,4
949,541;67,74
949,755;67,54
949,968;66,62
950,182;66,15
950,395;66,35
950,609;66,34
950,822;66,74
951,035;66,67
951,249;66,2
951,462;67,23
951,675;67,13
951,889;66,9
952,102;66,94
952,315;66,81
952,528;66,66
952,741;66,29
952,955;66,39
953,168;65,83
953,381;65,49
953,594;66,04
953,807;66,02
954,02;65,98
954,233;65,31
954,446;65,45
954,659;65,47
954,872;65,2
955,085;65,17
955,298;65,33
955,511;65,05
955,724;65,31
955,937;64,69
956,15;64,81
956,362;65,36
956,575;65,21
956,788;65,39
957,001;64,81
957,214;64,92
957,426;64,73
957,639;64,91
957,852;65,04
958,064;64,68
958,277;64,85
958,49;64,92
958,702;65,28
958,915;65,21
959,127;65,23
959,34;65,2
959,552;65,12
959,765;64,72
959,977;64,84
960,19;64,75
960,402;64,88
960,615;65
960,827;64,83
961,039;64,61
961,252;64,41
961,464;64,85
961,676;65
961,889;65,3
962,101;65,33
962,313;65,54
962,525;65,39
962,738;65,14
962,95;65,3
963,162;65,67
963,374;66,1
963,586;66,18
963,798;66,65
964,01;66,76
964,222;66,86
964,434;67,19
964,646;67,26
964,858;66,81
965,07;66,68
965,282;66,66
965,494;66,77
965,706;66,84
965,918;67,16
966,13;67,13
966,342;66,79
966,553;66,87
966,765;66,86
966,977;67,47
967,189;67,58
967,401;67,55
967,612;67,32
967,824;67,52
968,036;67,22
968,247;66,79
968,459;66,71
968,67;67,04
968,882;66,28
969,094;66,02
969,305;66,34
969,517;66,49
969,728;66,59
969,94;66,73
970,151;66,59
970,362;66,2
970,574;66,44
970,785;66,31
970,997;66,15
971,208;65,79
971,419;65,28
971,631;65,57
971,842;66,11
972,053;66,25
972,264;65,96
972,476;66,4
972,687;66,84
972,898;66,59
973,109;66,05
973,32;66,75
973,531;66,93
973,742;66,83
973,954;66,58
974,165;66,53
974,376;66,55
974,587;66,6
974,798;66,75
975,009;66,56
975,22;66,85
975,43;67,02
975,641;67,32
975,852;67,73
976,063;67,81
976,274;66,99
976,485;67,01
976,695;66,84
976,906;66,59
977,117;66,44
977,328;66,87
977,538;66,82
977,749;66,5
977,96;66,94
978,17;67,04
978,381;67,57
978,592;67,91
978,802;67,77
979,013;67,99
979,223;68,01
979,434;68,24
979,644;68,53
979,855;68,58
980,065;69,4
980,276;69,36
980,486;69,17
980,696;69,24
980,907;69,17
981,117;69,36
981,327;69,7
981,538;69,8
981,748;69,74
981,958;70,11
982,169;69,77
982,379;69,37
982,589;69,24
982,799;69,25
983,009;68,71
983,219;69,25
983,43;69,1
983,64;69,14
983,85;68,95
984,06;68,7
984,27;68,33
984,48;67,64
984,69;67,75
984,9;67,28
985,11;67,72
985,32;67,6
985,529;67,43
985,739;66,88
985,949;67,24
986,159;67,29
986,369;67,22
986,579;68,27
986,788;68,43
986,998;68,84
987,208;68,35
987,417;68,31
987,627;67,82
987,837;67,6
988,046;67,02
988,256;66,56
988,466;66,57
988,675;66,6
988,885;66,23
989,094;66,22
989,304;66,67
989,513;66,36
989,723;66,52
989,932;66,62
990,142;66,55
990,351;65,73
990,56;65,8
990,77;66,19
990,979;65,8
991,188;66,17
991,398;66,21
991,607;66,44
991,816;66,98
992,025;67,18
992,235;67,26
992,444;68,36
992,653;69,08
992,862;68,64
993,071;68,81
993,28;69,36
993,489;69,38
993,698;69,36
993,908;69,52
994,117;69,22
994,326;69,26
994,534;69,92
994,743;70,09
994,952;70,07
995,161;69,07
995,37;69,75
995,579;69,74
995,788;70,15
995,997;70,39
996,205;70,53
996,414;70,97
996,623;71,61
996,832;71,3
997,04;71,45
997,249;71,8
997,458;71,69
997,666;71,59
997,875;71,85
998,084;71,41
998,292;71,47
998,501;72,57
998,709;72,28
998,918;72,48
999,126;72,68
999,335;72,99
999,543;73,88
999,752;73,25
999,96;72,53
1000,169;71,62
1000,377;71,69
1000,585;71,37
1000,794;70,76
1001,002;70,61
1001,21;70,75
1001,418;70,31
1001,627;70,24
1001,835;70,53
1002,043;71,12
1002,251;70,06
1002,459;71,13
1002,668;70,49
1002,876;69,69
1003,084;69,94
1003,292;69,14
1003,5;68,83
1003,708;69,38
1003,916;68,79
1004,124;68,51
1004,332;68,37
1004,54;68,82
1004,748;68,46
1004,956;68,57
1005,163;67,91
1005,371;67,11
1005,579;67,1
1005,787;67,13
1005,995;67,09
1006,202;67,35
1006,41;66,86
1006,618;68,01
1006,826;67,68
1007,033;68,81
1007,241;68,33
1007,449;68,31
1007,656;69,27
1007,864;69,9
1008,071;68,54
1008,279;69,54
1008,486;69,97
1008,694;71,03
1008,901;72,08
1009,109;72,06
1009,316;72,35
1009,524;73,5
1009,731;74,03
1009,938;74,25
1010,146;74,14
1010,353;74,06
1010,56;72,36
1010,768;72,35
1010,975;72,32
1011,182;71,96
1011,389;70,92
1011,597;72,02
1011,804;72,45
1012,011;72,14
1012,218;72,2
1012,425;72,6
1012,632;72,1
1012,839;72,03
1013,046;71,82
1013,253;71,71
1013,46;72,32
1013,667;71,86
1013,874;71,45
1014,081;72,24
1014,288;71,75
1014,495;72,48
1014,702;73,01
1014,909;73,87
1015,116;73,85
1015,323;73,99
1015,529;74,12
1015,736;75,33
1015,943;74,74
1016,15;74,02
1016,356;74,67
1016,563;75,01
1016,77;74,38
1016,976;73,9
1017,183;73,85
1017,389;73,53
1017,596;73,22
1017,803;73,36
1018,009;73,69
1018,216;73,82
1018,422;72,58
1018,629;72,93
1018,835;71,75
1019,041;71,45
1019,248;72
1019,454;71,64
1019,661;70,96
1019,867;70,62
1020,073;69,97
1020,279;70,02
1020,486;70,19
1020,692;70
1020,898;69,05
1021,104;69,38
1021,311;69,4
1021,517;68,66
1021,723;69,08
1021,929;68,72
1022,135;68,41
1022,341;67,7
1022,547;68,36
1022,753;69,76
1022,959;68,15
1023,165;69,3
1023,371;70,13
1023,577;70,2
1023,783;70,1
1023,989;68,99
1024,195;70,35
1024,401;69,94
1024,607;70,18
1024,812;70,88
1025,018;70,31
1025,224;70,95
1025,43;70,85
1025,635;70,48
1025,841;71,88
1026,047;71,59
1026,252;71,23
1026,458;70,64
1026,664;72,18
1026,869;71,76
1027,075;71,02
1027,28;72,33
1027,486;71,89
1027,691;70,02
1027,897;70,06
1028,102;69,83
1028,308;71,17
1028,513;70,03
1028,719;71,06
1028,924;71,38
1029,129;71,86
1029,335;71,07
1029,54;70,68
1029,745;70,37
1029,95;70,48
1030,156;70,49
1030,361;69,56
1030,566;70,4
1030,771;70,59
1030,976;69,28
1031,182;69,72
1031,387;70,07
1031,592;70,88
1031,797;70,38
1032,002;71,8
1032,207;73,27
1032,412;75,19
1032,617;76,42
1032,822;75,88
1033,027;78,45
1033,232;77,65
1033,437;77,44
1033,642;77,77
1033,846;77,62
1034,051;78,21
1034,256;78,38
1034,461;75,93
1034,666;77,13
1034,87;75,62
1035,075;72,78
1035,28;73,82
1035,484;71,79
1035,689;69,58
1035,894;68,88
1036,098;68,13
1036,303;67,39
1036,507;67,3
1036,712;65,7
1036,917;64,12
1037,121;66,77
1037,325;61,89
1037,53;63,41
1037,734;62,69
1037,939;65,7
1038,143;66,39
1038,348;66,65
1038,552;68,68
1038,756;69,71
1038,961;69,03
1039,165;67,74
1039,369;71,1
1039,573;71,6
1039,778;72,84
1039,982;73,95
1040,186;73,36
1040,39;74,38
1040,594;74,24
1040,798;71,94
1041,002;72,87
1041,206;73,71
1041,41;71,83
1041,614;72,61
1041,818;71,29
1042,022;69,62
1042,226;66,1
1042,43;66,12
1042,634;67,52
1042,838;67,95
1043,042;68,04
1043,246;71,37
1043,45;72,93
1043,653;73,33
1043,857;73,38
1044,061;74,98
1044,265;75,48
1044,468;78,26
1044,672;79,53
1044,876;81,79
1045,079;81,25
1045,283;80,86
1045,487;78,96
1045,69;81,05
1045,894;81,68
1046,097;83,07
1046,301;84,68
1046,504;86,61
1046,708;86,53
1046,911;85,69
1047,115;86,55
1047,318;87,82
1047,522;85,71
1047,725;84,08
1047,928;83,99
1048,132;80,59
1048,335;80,01
1048,538;80,87
1048,741;77,86
1048,945;76,82
1049,148;80,29
1049,351;79,92
1049,554;81,57
1049,757;84,3
1049,96;80,14
1050,163;80,89
1050,367;80,92
1050,57;80,67
1050,773;79,76
1050,976;78,86
1051,179;79,26
1051,382;75,89
1051,585;76,33
1051,787;73,53
1051,99;76,23
1052,193;72,9
1052,396;73,16
1052,599;71,72
1052,802;72,51
1053,005;71,27
1053,207;75,13
1053,41;69,28
1053,613;72,26
1053,815;71,03
1054,018;69,64
1054,221;70,56
1054,423;69,6
1054,626;68,28
1054,829;68,39
1055,031;68,82
1055,234;69,55
1055,436;70,33
1055,639;70,92
1055,841;68,13
1056,044;71,85
1056,246;69,14
