Data from cinnabarWhite_Reflection__2__17.txt Node;
"Date: Wed Sep 10 11:49:56 CEST 2025 User: sycur Spectrometer: SR400348 Trigger mode: 0 Integration Time (sec): 1,000000E-2 Scans to average: 10 Electric dark correction enabled: true Nonlinearity correction enabled: false Boxcar width: 10 XAxis mode: Wavelengths Number of Pixels in Spectrum: 3648 >>>>>Begin Spectral Data<<<<<";
186,01;99,56
186,281;94,25
186,552;69,1
186,822;47,78
187,093;533,33
187,364;434,2
187,635;148,56
187,905;91,45
188,176;64,4
188,447;48,74
188,717;32,59
188,988;17,05
189,258;20,3
189,529;25,69
189,8;17,07
190,07;19,09
190,341;15,58
190,611;12,89
190,882;11,38
191,152;16,33
191,423;15,7
191,693;14,69
191,964;11,86
192,234;15,12
192,505;16,9
192,775;18,29
193,045;16,83
193,316;13,46
193,586;13,93
193,856;13,61
194,127;15,04
194,397;16,96
194,667;18,18
194,938;17,68
195,208;17,02
195,478;19,32
195,748;20,63
196,019;20,93
196,289;21,69
196,559;20,5
196,829;18,14
197,099;19,27
197,37;19,88
197,64;20,89
197,91;19,52
198,18;19,39
198,45;18,75
198,72;17,48
198,99;18,16
199,26;17,36
199,53;17,53
199,8;17,54
200,07;17,55
200,34;17,29
200,61;16,46
200,88;16,52
201,15;15,61
201,42;14,24
201,69;14,19
201,96;14,06
202,23;14,64
202,499;15,18
202,769;14,68
203,039;13,76
203,309;12,31
203,579;12,99
203,849;12,8
204,118;12,27
204,388;12,51
204,658;12,38
204,927;12,5
205,197;11,86
205,467;11,14
205,736;10,82
206,006;10,54
206,276;10,97
206,545;10,82
206,815;10,88
207,085;11,39
207,354;11,34
207,624;10,66
207,893;10,38
208,163;10,14
208,432;10,16
208,702;10,13
208,971;10,57
209,241;10,77
209,51;10,98
209,78;11,02
210,049;11,06
210,318;11,12
210,588;10,97
210,857;11,13
211,127;11,39
211,396;11,2
211,665;11,32
211,935;11,33
212,204;11,26
212,473;11,28
212,742;11,1
213,012;11,16
213,281;11,54
213,55;11,65
213,819;11,81
214,088;11,74
214,358;11,94
214,627;11,95
214,896;11,51
215,165;11,33
215,434;11,15
215,703;11,06
215,972;10,95
216,241;11
216,51;11,01
216,779;10,88
217,048;10,9
217,317;10,56
217,586;10,41
217,855;10,57
218,124;10,56
218,393;10,59
218,662;10,52
218,931;10,48
219,2;10,26
219,469;10,25
219,738;10,16
220,006;10,07
220,275;10,07
220,544;10,26
220,813;10,18
221,082;10,42
221,35;10,42
221,619;10,51
221,888;10,56
222,157;10,52
222,425;10,6
222,694;10,55
222,963;10,75
223,231;10,71
223,5;10,66
223,769;10,52
224,037;10,48
224,306;10,46
224,574;10,45
224,843;10,48
225,111;10,37
225,38;10,38
225,648;10,27
225,917;10,18
226,185;10,13
226,454;10,14
226,722;10,17
226,991;10,14
227,259;10,13
227,528;10,04
227,796;10,06
228,064;9,87
228,333;9,9
228,601;9,86
228,869;9,86
229,138;9,78
229,406;9,85
229,674;9,82
229,942;9,82
230,211;9,83
230,479;9,86
230,747;9,91
231,015;9,91
231,283;9,9
231,552;9,94
231,82;9,86
232,088;9,85
232,356;9,73
232,624;9,76
232,892;9,72
233,16;9,73
233,428;9,73
233,696;9,72
233,964;9,7
234,232;9,71
234,5;9,7
234,768;9,71
235,036;9,72
235,304;9,75
235,572;9,79
235,84;9,72
236,108;9,66
236,376;9,6
236,644;9,58
236,912;9,56
237,179;9,58
237,447;9,6
237,715;9,59
237,983;9,64
238,251;9,6
238,518;9,57
238,786;9,58
239,054;9,54
239,322;9,56
239,589;9,55
239,857;9,53
240,125;9,55
240,392;9,53
240,66;9,49
240,927;9,43
241,195;9,34
241,463;9,39
241,73;9,45
241,998;9,47
242,265;9,44
242,533;9,49
242,8;9,44
243,068;9,44
243,335;9,43
243,603;9,44
243,87;9,47
244,138;9,51
244,405;9,52
244,672;9,52
244,94;9,52
245,207;9,51
245,474;9,5
245,742;9,48
246,009;9,45
246,276;9,45
246,544;9,47
246,811;9,5
247,078;9,47
247,345;9,46
247,613;9,46
247,88;9,49
248,147;9,48
248,414;9,5
248,681;9,51
248,948;9,52
249,215;9,48
249,483;9,47
249,75;9,44
250,017;9,4
250,284;9,4
250,551;9,41
250,818;9,43
251,085;9,44
251,352;9,45
251,619;9,47
251,886;9,49
252,153;9,5
252,42;9,51
252,687;9,48
252,953;9,47
253,22;9,45
253,487;9,44
253,754;9,42
254,021;9,42
254,288;9,38
254,555;9,37
254,821;9,37
255,088;9,35
255,355;9,34
255,622;9,35
255,888;9,32
256,155;9,29
256,422;9,24
256,688;9,24
256,955;9,23
257,222;9,23
257,488;9,2
257,755;9,17
258,022;9,16
258,288;9,14
258,555;9,13
258,821;9,12
259,088;9,13
259,354;9,11
259,621;9,08
259,887;9,11
260,154;9,11
260,42;9,09
260,687;9,1
260,953;9,08
261,219;9,09
261,486;9,09
261,752;9,12
262,019;9,11
262,285;9,07
262,551;9,05
262,818;9,05
263,084;9,04
263,35;9,01
263,616;9
263,883;9
264,149;9,01
264,415;9
264,681;9
264,947;9,01
265,214;9,03
265,48;9,01
265,746;9,04
266,012;9,08
266,278;9,05
266,544;9,07
266,81;9,06
267,076;9,07
267,342;9,04
267,608;9,06
267,874;9,05
268,14;9,06
268,406;9,06
268,672;9,07
268,938;9,11
269,204;9,09
269,47;9,09
269,736;9,07
270,002;9,05
270,268;9,04
270,533;9,04
270,799;9,01
271,065;9,01
271,331;8,97
271,597;8,95
271,862;8,98
272,128;8,95
272,394;8,97
272,66;8,94
272,925;8,96
273,191;8,94
273,457;8,97
273,722;8,97
273,988;8,96
274,254;8,96
274,519;8,94
274,785;8,97
275,05;8,95
275,316;8,97
275,582;8,98
275,847;8,99
276,113;8,97
276,378;8,97
276,644;8,97
276,909;8,96
277,174;8,96
277,44;8,96
277,705;8,96
277,971;8,93
278,236;8,96
278,501;8,98
278,767;8,98
279,032;8,98
279,297;8,97
279,563;8,94
279,828;8,94
280,093;8,95
280,358;8,92
280,624;8,93
280,889;8,93
281,154;8,93
281,419;8,94
281,684;8,95
281,95;8,95
282,215;8,93
282,48;8,94
282,745;8,95
283,01;8,91
283,275;8,91
283,54;8,89
283,805;8,87
284,07;8,85
284,335;8,85
284,6;8,84
284,865;8,84
285,13;8,83
285,395;8,82
285,66;8,82
285,925;8,84
286,19;8,86
286,455;8,83
286,72;8,81
286,985;8,77
287,249;8,73
287,514;8,74
287,779;8,76
288,044;8,73
288,309;8,71
288,573;8,72
288,838;8,72
289,103;8,73
289,367;8,72
289,632;8,72
289,897;8,71
290,161;8,71
290,426;8,69
290,691;8,71
290,955;8,7
291,22;8,68
291,484;8,68
291,749;8,62
292,014;8,63
292,278;8,62
292,543;8,63
292,807;8,65
293,072;8,66
293,336;8,63
293,6;8,65
293,865;8,65
294,129;8,62
294,394;8,61
294,658;8,61
294,922;8,61
295,187;8,6
295,451;8,6
295,715;8,59
295,98;8,58
296,244;8,59
296,508;8,6
296,773;8,59
297,037;8,6
297,301;8,61
297,565;8,6
297,829;8,61
298,094;8,6
298,358;8,58
298,622;8,57
298,886;8,57
299,15;8,57
299,414;8,58
299,678;8,62
299,942;8,62
300,206;8,61
300,47;8,62
300,734;8,61
300,998;8,61
301,262;8,6
301,526;8,56
301,79;8,55
302,054;8,56
302,318;8,56
302,582;8,59
302,846;8,59
303,11;8,59
303,374;8,58
303,637;8,59
303,901;8,61
304,165;8,61
304,429;8,61
304,693;8,61
304,956;8,58
305,22;8,57
305,484;8,58
305,747;8,57
306,011;8,55
306,275;8,54
306,538;8,55
306,802;8,59
307,066;8,64
307,329;8,64
307,593;8,62
307,856;8,61
308,12;8,56
308,384;8,6
308,647;8,61
308,911;8,6
309,174;8,61
309,438;8,57
309,701;8,56
309,964;8,52
310,228;8,51
310,491;8,51
310,755;8,52
311,018;8,52
311,281;8,55
311,545;8,53
311,808;8,51
312,071;8,47
312,335;8,44
312,598;8,42
312,861;8,42
313,124;8,42
313,388;8,43
313,651;8,43
313,914;8,37
314,177;8,31
314,44;8,29
314,704;8,25
314,967;8,24
315,23;8,25
315,493;8,27
315,756;8,26
316,019;8,25
316,282;8,21
316,545;8,19
316,808;8,17
317,071;8,16
317,334;8,19
317,597;8,19
317,86;8,18
318,123;8,17
318,386;8,15
318,649;8,14
318,912;8,09
319,175;8,08
319,437;8,09
319,7;8,12
319,963;8,13
320,226;8,15
320,489;8,16
320,751;8,13
321,014;8,11
321,277;8,08
321,54;8,05
321,802;8,04
322,065;8,02
322,328;7,98
322,59;7,98
322,853;7,96
323,116;7,97
323,378;7,95
323,641;7,93
323,903;7,92
324,166;7,91
324,428;7,92
324,691;7,92
324,953;7,9
325,216;7,87
325,478;7,85
325,741;7,83
326,003;7,81
326,266;7,79
326,528;7,77
326,791;7,73
327,053;7,73
327,315;7,72
327,578;7,75
327,84;7,72
328,102;7,69
328,365;7,69
328,627;7,64
328,889;7,63
329,151;7,63
329,414;7,61
329,676;7,58
329,938;7,56
330,2;7,51
330,462;7,51
330,725;7,52
330,987;7,52
331,249;7,5
331,511;7,48
331,773;7,51
332,035;7,55
332,297;7,6
332,559;7,6
332,821;7,56
333,083;7,53
333,345;7,54
333,607;7,55
333,869;7,59
334,131;7,61
334,393;7,63
334,655;7,56
334,917;7,56
335,179;7,53
335,44;7,55
335,702;7,56
335,964;7,55
336,226;7,54
336,488;7,52
336,749;7,51
337,011;7,51
337,273;7,5
337,535;7,5
337,796;7,44
338,058;7,46
338,32;7,46
338,581;7,46
338,843;7,44
339,105;7,44
339,366;7,42
339,628;7,42
339,889;7,41
340,151;7,45
340,412;7,43
340,674;7,43
340,935;7,39
341,197;7,44
341,458;7,45
341,72;7,44
341,981;7,43
342,243;7,44
342,504;7,45
342,766;7,43
343,027;7,38
343,288;7,41
343,55;7,41
343,811;7,44
344,072;7,37
344,334;7,36
344,595;7,34
344,856;7,31
345,117;7,31
345,379;7,3
345,64;7,32
345,901;7,32
346,162;7,34
346,423;7,36
346,684;7,32
346,946;7,32
347,207;7,31
347,468;7,34
347,729;7,33
347,99;7,31
348,251;7,3
348,512;7,28
348,773;7,26
349,034;7,24
349,295;7,24
349,556;7,28
349,817;7,31
350,078;7,33
350,339;7,29
350,6;7,32
350,86;7,32
351,121;7,27
351,382;7,3
351,643;7,28
351,904;7,22
352,165;7,2
352,425;7,19
352,686;7,2
352,947;7,15
353,208;7,13
353,468;7,12
353,729;7,12
353,99;7,13
354,25;7,13
354,511;7,12
354,772;7,11
355,032;7,14
355,293;7,12
355,553;7,12
355,814;7,15
356,074;7,09
356,335;7,06
356,596;7,11
356,856;7,1
357,116;7,07
357,377;7,11
357,637;7,1
357,898;7,07
358,158;7,03
358,419;7,03
358,679;7,06
358,939;7,04
359,2;7,03
359,46;7,06
359,72;7,05
359,981;7,06
360,241;7,01
360,501;7
360,761;6,99
361,022;6,94
361,282;6,9
361,542;6,9
361,802;6,84
362,062;6,78
362,323;6,71
362,583;6,76
362,843;6,75
363,103;6,74
363,363;6,73
363,623;6,74
363,883;6,73
364,143;6,71
364,403;6,68
364,663;6,69
364,923;6,68
365,183;6,69
365,443;6,7
365,703;6,68
365,963;6,68
366,223;6,69
366,483;6,67
366,743;6,67
367,002;6,7
367,262;6,7
367,522;6,7
367,782;6,71
368,042;6,71
368,301;6,69
368,561;6,71
368,821;6,69
369,081;6,7
369,34;6,69
369,6;6,63
369,86;6,67
370,119;6,67
370,379;6,65
370,638;6,64
370,898;6,62
371,158;6,59
371,417;6,55
371,677;6,53
371,936;6,55
372,196;6,53
372,455;6,5
372,715;6,5
372,974;6,54
373,234;6,51
373,493;6,52
373,753;6,56
374,012;6,53
374,271;6,53
374,531;6,49
374,79;6,5
375,049;6,55
375,309;6,55
375,568;6,5
375,827;6,49
376,086;6,45
376,346;6,44
376,605;6,49
376,864;6,49
377,123;6,44
377,383;6,43
377,642;6,46
377,901;6,48
378,16;6,47
378,419;6,45
378,678;6,46
378,937;6,44
379,196;6,4
379,455;6,43
379,714;6,45
379,973;6,48
380,232;6,47
380,491;6,45
380,75;6,41
381,009;6,37
381,268;6,34
381,527;6,33
381,786;6,31
382,045;6,26
382,304;6,27
382,563;6,31
382,821;6,36
383,08;6,33
383,339;6,33
383,598;6,36
383,857;6,33
384,115;6,33
384,374;6,32
384,633;6,36
384,891;6,31
385,15;6,27
385,409;6,29
385,667;6,27
385,926;6,25
386,185;6,25
386,443;6,33
386,702;6,34
386,96;6,35
387,219;6,36
387,477;6,4
387,736;6,37
387,994;6,39
388,253;6,38
388,511;6,36
388,77;6,34
389,028;6,34
389,287;6,34
389,545;6,31
389,803;6,27
390,062;6,22
390,32;6,23
390,578;6,24
390,837;6,25
391,095;6,25
391,353;6,28
391,612;6,27
391,87;6,24
392,128;6,26
392,386;6,23
392,644;6,17
392,903;6,14
393,161;6,13
393,419;6,1
393,677;6,05
393,935;6,04
394,193;6
394,451;6
394,709;5,99
394,967;6,01
395,225;6,02
395,483;6,07
395,741;6,11
395,999;6,11
396,257;6,08
396,515;6,06
396,773;6,04
397,031;6,06
397,289;6,06
397,547;6,02
397,805;6,02
398,062;6,08
398,32;6,05
398,578;6,06
398,836;6,02
399,094;6,05
399,351;6
399,609;6,04
399,867;6,01
400,124;6,04
400,382;6,04
400,64;6,07
400,897;6
401,155;5,94
401,413;5,89
401,67;5,87
401,928;5,87
402,185;5,86
402,443;5,82
402,701;5,82
402,958;5,83
403,216;5,84
403,473;5,84
403,73;5,87
403,988;5,9
404,245;5,9
404,503;5,86
404,76;5,9
405,018;5,87
405,275;5,89
405,532;5,88
405,79;5,84
406,047;5,8
406,304;5,83
406,561;5,85
406,819;5,92
407,076;5,92
407,333;5,93
407,59;5,98
407,848;5,98
408,105;5,98
408,362;5,99
408,619;6,03
408,876;6,02
409,133;6,02
409,39;5,99
409,647;6,05
409,904;6,02
410,161;6,05
410,418;6,02
410,675;6
410,932;5,94
411,189;5,95
411,446;5,97
411,703;5,92
411,96;5,95
412,217;5,94
412,474;5,89
412,731;5,84
412,988;5,75
413,245;5,82
413,501;5,78
413,758;5,74
414,015;5,68
414,272;5,62
414,529;5,65
414,785;5,69
415,042;5,7
415,299;5,77
415,555;5,74
415,812;5,73
416,069;5,75
416,325;5,75
416,582;5,79
416,838;5,8
417,095;5,78
417,352;5,73
417,608;5,71
417,865;5,77
418,121;5,8
418,378;5,82
418,634;5,79
418,891;5,85
419,147;5,89
419,403;5,9
419,66;5,9
419,916;5,87
420,173;5,83
420,429;5,76
420,685;5,77
420,942;5,77
421,198;5,8
421,454;5,76
421,711;5,74
421,967;5,72
422,223;5,67
422,479;5,69
422,735;5,67
422,992;5,67
423,248;5,63
423,504;5,64
423,76;5,68
424,016;5,62
424,272;5,57
424,528;5,53
424,784;5,49
425,041;5,51
425,297;5,48
425,553;5,5
425,809;5,51
426,065;5,44
426,32;5,47
426,576;5,46
426,832;5,48
427,088;5,53
427,344;5,51
427,6;5,54
427,856;5,54
428,112;5,55
428,368;5,56
428,623;5,55
428,879;5,56
429,135;5,55
429,391;5,58
429,646;5,65
429,902;5,65
430,158;5,65
430,414;5,61
430,669;5,67
430,925;5,63
431,181;5,66
431,436;5,72
431,692;5,72
431,947;5,73
432,203;5,71
432,458;5,7
432,714;5,71
432,97;5,69
433,225;5,7
433,481;5,72
433,736;5,68
433,991;5,7
434,247;5,69
434,502;5,66
434,758;5,67
435,013;5,57
435,268;5,59
435,524;5,64
435,779;5,65
436,034;5,64
436,29;5,66
436,545;5,62
436,8;5,56
437,056;5,54
437,311;5,56
437,566;5,57
437,821;5,56
438,076;5,56
438,331;5,62
438,587;5,63
438,842;5,61
439,097;5,64
439,352;5,67
439,607;5,62
439,862;5,66
440,117;5,66
440,372;5,69
440,627;5,7
440,882;5,67
441,137;5,71
441,392;5,69
441,647;5,7
441,902;5,73
442,157;5,75
442,412;5,73
442,667;5,71
442,921;5,69
443,176;5,72
443,431;5,74
443,686;5,72
443,941;5,73
444,195;5,75
444,45;5,7
444,705;5,67
444,96;5,73
445,214;5,7
445,469;5,69
445,724;5,7
445,978;5,71
446,233;5,73
446,487;5,74
446,742;5,74
446,997;5,71
447,251;5,67
447,506;5,69
447,76;5,67
448,015;5,67
448,269;5,71
448,524;5,69
448,778;5,64
449,033;5,59
449,287;5,59
449,541;5,57
449,796;5,62
450,05;5,7
450,305;5,67
450,559;5,68
450,813;5,7
451,067;5,67
451,322;5,62
451,576;5,61
451,83;5,59
452,084;5,65
452,339;5,68
452,593;5,73
452,847;5,69
453,101;5,69
453,355;5,71
453,609;5,68
453,864;5,64
454,118;5,65
454,372;5,66
454,626;5,66
454,88;5,67
455,134;5,69
455,388;5,63
455,642;5,61
455,896;5,64
456,15;5,6
456,404;5,63
456,658;5,62
456,912;5,59
457,165;5,57
457,419;5,5
457,673;5,46
457,927;5,4
458,181;5,42
458,435;5,42
458,688;5,42
458,942;5,4
459,196;5,41
459,45;5,43
459,703;5,41
459,957;5,38
460,211;5,38
460,464;5,38
460,718;5,36
460,972;5,41
461,225;5,36
461,479;5,38
461,732;5,35
461,986;5,39
462,239;5,4
462,493;5,42
462,746;5,43
463;5,42
463,253;5,47
463,507;5,44
463,76;5,45
464,014;5,44
464,267;5,5
464,52;5,53
464,774;5,54
465,027;5,56
465,28;5,58
465,534;5,55
465,787;5,53
466,04;5,54
466,294;5,51
466,547;5,53
466,8;5,56
467,053;5,56
467,306;5,52
467,56;5,56
467,813;5,57
468,066;5,6
468,319;5,61
468,572;5,58
468,825;5,61
469,078;5,63
469,331;5,61
469,584;5,57
469,837;5,56
470,09;5,56
470,343;5,55
470,596;5,57
470,849;5,57
471,102;5,57
471,355;5,56
471,608;5,57
471,861;5,61
472,114;5,55
472,367;5,55
472,619;5,58
472,872;5,54
473,125;5,54
473,378;5,53
473,631;5,56
473,883;5,56
474,136;5,56
474,389;5,59
474,641;5,62
474,894;5,59
475,147;5,59
475,399;5,59
475,652;5,61
475,905;5,63
476,157;5,67
476,41;5,69
476,662;5,67
476,915;5,67
477,167;5,64
477,42;5,65
477,672;5,66
477,925;5,66
478,177;5,68
478,43;5,69
478,682;5,67
478,934;5,64
479,187;5,66
479,439;5,69
479,691;5,66
479,944;5,68
480,196;5,72
480,448;5,73
480,701;5,75
480,953;5,78
481,205;5,75
481,457;5,73
481,709;5,75
481,962;5,77
482,214;5,79
482,466;5,8
482,718;5,82
482,97;5,86
483,222;5,9
483,474;5,93
483,726;5,93
483,978;5,95
484,23;5,98
484,482;5,97
484,734;5,96
484,986;5,95
485,238;5,94
485,49;5,93
485,742;5,92
485,994;5,91
486,246;5,88
486,498;5,87
486,75;5,87
487,001;5,88
487,253;5,87
487,505;5,85
487,757;5,85
488,009;5,85
488,26;5,85
488,512;5,83
488,764;5,8
489,015;5,78
489,267;5,77
489,519;5,74
489,77;5,77
490,022;5,78
490,274;5,79
490,525;5,81
490,777;5,82
491,028;5,84
491,28;5,85
491,531;5,86
491,783;5,88
492,034;5,91
492,286;5,91
492,537;5,95
492,789;5,97
493,04;5,98
493,291;5,98
493,543;5,98
493,794;5,96
494,045;5,99
494,297;5,99
494,548;6,01
494,799;6,03
495,051;6,01
495,302;6,03
495,553;6,03
495,804;6,04
496,056;6,08
496,307;6,08
496,558;6,09
496,809;6,13
497,06;6,14
497,311;6,13
497,562;6,13
497,813;6,15
498,064;6,15
498,316;6,15
498,567;6,18
498,818;6,18
499,069;6,22
499,319;6,23
499,57;6,23
499,821;6,24
500,072;6,27
500,323;6,29
500,574;6,3
500,825;6,32
501,076;6,33
501,327;6,32
501,577;6,35
501,828;6,34
502,079;6,34
502,33;6,36
502,58;6,38
502,831;6,39
503,082;6,39
503,333;6,44
503,583;6,47
503,834;6,5
504,084;6,51
504,335;6,54
504,586;6,58
504,836;6,63
505,087;6,66
505,337;6,69
505,588;6,7
505,838;6,71
506,089;6,76
506,339;6,8
506,59;6,85
506,84;6,89
507,091;6,98
507,341;7,02
507,591;7,06
507,842;7,14
508,092;7,19
508,343;7,23
508,593;7,27
508,843;7,3
509,093;7,33
509,344;7,37
509,594;7,41
509,844;7,42
510,094;7,46
510,345;7,49
510,595;7,54
510,845;7,57
511,095;7,61
511,345;7,64
511,595;7,67
511,845;7,69
512,095;7,71
512,345;7,71
512,595;7,73
512,845;7,74
513,095;7,75
513,345;7,79
513,595;7,82
513,845;7,83
514,095;7,88
514,345;7,92
514,595;7,95
514,845;7,96
515,095;7,99
515,345;8,02
515,594;8,05
515,844;8,05
516,094;8,1
516,344;8,1
516,593;8,12
516,843;8,13
517,093;8,15
517,343;8,16
517,592;8,19
517,842;8,23
518,092;8,28
518,341;8,29
518,591;8,31
518,84;8,31
519,09;8,33
519,34;8,35
519,589;8,34
519,839;8,34
520,088;8,37
520,338;8,39
520,587;8,39
520,836;8,39
521,086;8,42
521,335;8,42
521,585;8,44
521,834;8,45
522,083;8,46
522,333;8,46
522,582;8,49
522,831;8,51
523,081;8,49
523,33;8,48
523,579;8,51
523,828;8,5
524,078;8,52
524,327;8,53
524,576;8,52
524,825;8,52
525,074;8,55
525,323;8,55
525,573;8,55
525,822;8,59
526,071;8,6
526,32;8,6
526,569;8,6
526,818;8,61
527,067;8,63
527,316;8,65
527,565;8,68
527,814;8,7
528,063;8,68
528,312;8,71
528,56;8,72
528,809;8,72
529,058;8,76
529,307;8,78
529,556;8,79
529,805;8,81
530,053;8,83
530,302;8,84
530,551;8,87
530,8;8,87
531,048;8,88
531,297;8,88
531,546;8,91
531,794;8,94
532,043;8,95
532,292;8,97
532,54;8,98
532,789;8,99
533,037;8,97
533,286;8,96
533,535;8,97
533,783;8,96
534,032;8,96
534,28;8,92
534,528;8,92
534,777;8,93
535,025;8,94
535,274;8,96
535,522;8,99
535,771;8,97
536,019;8,99
536,267;8,97
536,516;8,98
536,764;8,97
537,012;8,97
537,26;8,97
537,509;8,99
537,757;9
538,005;9
538,253;9,02
538,501;9,07
538,75;9,06
538,998;9,1
539,246;9,11
539,494;9,14
539,742;9,14
539,99;9,14
540,238;9,14
540,486;9,14
540,734;9,1
540,982;9,1
541,23;9,13
541,478;9,15
541,726;9,14
541,974;9,14
542,222;9,16
542,47;9,19
542,718;9,17
542,966;9,17
543,213;9,17
543,461;9,16
543,709;9,17
543,957;9,18
544,205;9,19
544,452;9,21
544,7;9,19
544,948;9,24
545,196;9,25
545,443;9,26
545,691;9,29
545,939;9,34
546,186;9,38
546,434;9,39
546,681;9,38
546,929;9,41
547,176;9,42
547,424;9,42
547,671;9,42
547,919;9,44
548,166;9,47
548,414;9,48
548,661;9,52
548,909;9,53
549,156;9,54
549,404;9,55
549,651;9,56
549,898;9,59
550,146;9,58
550,393;9,62
550,64;9,66
550,888;9,67
551,135;9,68
551,382;9,68
551,629;9,69
551,876;9,72
552,124;9,76
552,371;9,8
552,618;9,82
552,865;9,85
553,112;9,85
553,359;9,87
553,606;9,88
553,854;9,89
554,101;9,9
554,348;9,93
554,595;9,95
554,842;9,96
555,089;9,98
555,336;10,02
555,582;10,02
555,829;10,03
556,076;10,02
556,323;10,03
556,57;10,03
556,817;10,06
557,064;10,09
557,311;10,09
557,557;10,1
557,804;10,12
558,051;10,13
558,298;10,18
558,544;10,19
558,791;10,22
559,038;10,24
559,284;10,26
559,531;10,3
559,778;10,32
560,024;10,35
560,271;10,37
560,517;10,39
560,764;10,43
561,011;10,44
561,257;10,5
561,504;10,53
561,75;10,58
561,997;10,59
562,243;10,61
562,489;10,66
562,736;10,69
562,982;10,73
563,229;10,78
563,475;10,82
563,721;10,86
563,968;10,92
564,214;10,98
564,46;11,02
564,707;11,06
564,953;11,11
565,199;11,17
565,445;11,24
565,691;11,28
565,938;11,33
566,184;11,39
566,43;11,46
566,676;11,54
566,922;11,62
567,168;11,68
567,414;11,76
567,66;11,82
567,906;11,89
568,152;11,96
568,398;12,03
568,644;12,12
568,89;12,18
569,136;12,26
569,382;12,32
569,628;12,39
569,874;12,45
570,12;12,52
570,366;12,58
570,612;12,66
570,857;12,73
571,103;12,82
571,349;12,91
571,595;12,98
571,84;13,05
572,086;13,12
572,332;13,23
572,578;13,3
572,823;13,39
573,069;13,47
573,315;13,55
573,56;13,64
573,806;13,73
574,051;13,83
574,297;13,93
574,542;14,03
574,788;14,14
575,034;14,25
575,279;14,35
575,524;14,46
575,77;14,54
576,015;14,66
576,261;14,74
576,506;14,84
576,752;14,92
576,997;15,02
577,242;15,11
577,488;15,22
577,733;15,3
577,978;15,42
578,223;15,54
578,469;15,67
578,714;15,78
578,959;15,92
579,204;16,04
579,45;16,15
579,695;16,26
579,94;16,38
580,185;16,48
580,43;16,59
580,675;16,7
580,92;16,82
581,165;16,93
581,41;17,07
581,655;17,2
581,9;17,34
582,145;17,47
582,39;17,61
582,635;17,73
582,88;17,89
583,125;18,03
583,37;18,19
583,615;18,32
583,86;18,48
584,105;18,61
584,349;18,75
584,594;18,9
584,839;19,07
585,084;19,23
585,328;19,41
585,573;19,58
585,818;19,74
586,063;19,89
586,307;20,05
586,552;20,18
586,797;20,35
587,041;20,49
587,286;20,66
587,53;20,82
587,775;20,99
588,019;21,16
588,264;21,31
588,508;21,45
588,753;21,65
588,997;21,82
589,242;22,03
589,486;22,26
589,731;22,51
589,975;22,73
590,22;22,96
590,464;23,19
590,708;23,43
590,953;23,66
591,197;23,89
591,441;24,14
591,685;24,4
591,93;24,62
592,174;24,87
592,418;25,1
592,662;25,33
592,907;25,54
593,151;25,78
593,395;26
593,639;26,24
593,883;26,46
594,127;26,68
594,371;26,88
594,615;27,09
594,859;27,3
595,103;27,55
595,347;27,78
595,591;28,01
595,835;28,24
596,079;28,51
596,323;28,77
596,567;29,04
596,811;29,29
597,055;29,55
597,299;29,8
597,542;30,09
597,786;30,33
598,03;30,64
598,274;30,9
598,518;31,17
598,761;31,44
599,005;31,71
599,249;31,97
599,492;32,25
599,736;32,53
599,98;32,81
600,223;33,06
600,467;33,32
600,711;33,57
600,954;33,84
601,198;34,08
601,441;34,34
601,685;34,58
601,928;34,85
602,172;35,11
602,415;35,43
602,659;35,7
602,902;35,97
603,145;36,24
603,389;36,5
603,632;36,77
603,876;37,02
604,119;37,28
604,362;37,53
604,606;37,77
604,849;38,02
605,092;38,27
605,335;38,56
605,579;38,82
605,822;39,09
606,065;39,33
606,308;39,6
606,551;39,86
606,794;40,1
607,037;40,35
607,281;40,6
607,524;40,82
607,767;41,05
608,01;41,28
608,253;41,5
608,496;41,73
608,739;41,97
608,982;42,2
609,225;42,42
609,468;42,66
609,711;42,87
609,953;43,1
610,196;43,31
610,439;43,51
610,682;43,71
610,925;43,91
611,168;44,11
611,41;44,27
611,653;44,44
611,896;44,65
612,139;44,82
612,381;45,02
612,624;45,18
612,867;45,38
613,109;45,55
613,352;45,73
613,595;45,93
613,837;46,09
614,08;46,24
614,322;46,4
614,565;46,56
614,807;46,74
615,05;46,87
615,292;47,05
615,535;47,18
615,777;47,33
616,02;47,48
616,262;47,67
616,505;47,86
616,747;48,03
616,989;48,18
617,232;48,35
617,474;48,51
617,716;48,66
617,959;48,78
618,201;48,95
618,443;49,1
618,685;49,21
618,927;49,35
619,17;49,49
619,412;49,65
619,654;49,79
619,896;49,91
620,138;50,06
620,38;50,16
620,622;50,3
620,864;50,42
621,107;50,54
621,349;50,67
621,591;50,76
621,833;50,87
622,075;50,96
622,316;51,05
622,558;51,16
622,8;51,26
623,042;51,39
623,284;51,5
623,526;51,59
623,768;51,7
624,01;51,8
624,251;51,91
624,493;51,99
624,735;52,08
624,977;52,18
625,218;52,25
625,46;52,34
625,702;52,44
625,943;52,54
626,185;52,63
626,427;52,69
626,668;52,79
626,91;52,9
627,152;53,01
627,393;53,12
627,635;53,18
627,876;53,27
628,118;53,32
628,359;53,38
628,601;53,46
628,842;53,56
629,084;53,62
629,325;53,66
629,566;53,73
629,808;53,79
630,049;53,88
630,29;53,96
630,532;54,01
630,773;54,08
631,014;54,14
631,256;54,2
631,497;54,27
631,738;54,31
631,979;54,34
632,22;54,38
632,462;54,41
632,703;54,46
632,944;54,52
633,185;54,58
633,426;54,63
633,667;54,7
633,908;54,7
634,149;54,76
634,39;54,84
634,631;54,89
634,872;54,95
635,113;54,97
635,354;55,03
635,595;55,07
635,836;55,1
636,077;55,13
636,318;55,17
636,559;55,22
636,8;55,27
637,04;55,3
637,281;55,29
637,522;55,33
637,763;55,35
638,003;55,34
638,244;55,38
638,485;55,43
638,726;55,46
638,966;55,51
639,207;55,53
639,448;55,55
639,688;55,56
639,929;55,6
640,169;55,65
640,41;55,66
640,65;55,71
640,891;55,73
641,131;55,77
641,372;55,8
641,612;55,82
641,853;55,86
642,093;55,86
642,334;55,97
642,574;56,03
642,814;56,06
643,055;56,11
643,295;56,17
643,535;56,19
643,776;56,2
644,016;56,24
644,256;56,27
644,496;56,27
644,737;56,33
644,977;56,32
645,217;56,35
645,457;56,37
645,697;56,38
645,938;56,38
646,178;56,42
646,418;56,44
646,658;56,48
646,898;56,47
647,138;56,52
647,378;56,51
647,618;56,53
647,858;56,55
648,098;56,58
648,338;56,58
648,578;56,59
648,818;56,64
649,057;56,65
649,297;56,68
649,537;56,73
649,777;56,76
650,017;56,81
650,257;56,82
650,496;56,87
650,736;56,93
650,976;56,95
661,028;57,24
661,267;57,33
661,506;57,38
661,744;57,47
661,983;57,5
662,222;57,58
662,461;57,62
662,7;57,58
662,939;57,6
663,177;57,63
663,416;57,64
663,655;57,63
663,894;57,64
664,132;57,65
664,371;57,69
664,61;57,66
664,848;57,68
665,087;57,7
665,326;57,71
665,564;57,76
665,803;57,75
666,041;57,78
666,28;57,77
666,518;57,82
666,757;57,81
666,995;57,84
667,234;57,82
667,472;57,83
667,711;57,85
667,949;57,88
668,187;57,88
668,426;57,9
668,664;57,94
668,902;57,97
669,141;57,95
669,379;57,95
669,617;57,96
669,856;57,97
670,094;57,95
670,332;57,96
670,57;57,96
670,808;58
671,046;57,98
671,285;58,04
671,523;58,07
671,761;58,09
671,999;58,08
672,237;58,12
672,475;58,15
672,713;58,15
672,951;58,15
673,189;58,14
673,427;58,11
673,665;58,1
673,903;58,08
674,141;58,13
674,379;58,12
674,617;58,14
674,854;58,13
675,092;58,18
675,33;58,19
675,568;58,2
675,806;58,21
676,043;58,23
676,281;58,24
676,519;58,24
676,756;58,24
676,994;58,25
677,232;58,26
677,469;58,26
677,707;58,29
677,945;58,3
678,182;58,33
678,42;58,4
678,657;58,39
678,895;58,39
679,132;58,41
679,37;58,41
679,607;58,42
679,845;58,42
680,082;58,44
680,32;58,4
680,557;58,4
680,794;58,44
681,032;58,44
681,269;58,45
681,507;58,48
681,744;58,52
681,981;58,58
682,218;58,57
682,456;58,54
682,693;58,56
682,93;58,56
683,167;58,57
683,404;58,54
683,642;58,58
683,879;58,61
684,116;58,63
684,353;58,67
684,59;58,69
684,827;58,67
685,064;58,64
685,301;58,7
685,538;58,71
685,775;58,66
686,012;58,68
686,249;58,66
686,486;58,64
686,723;58,65
686,96;58,62
687,197;58,61
687,433;58,64
687,67;58,67
687,907;58,69
688,144;58,68
688,381;58,7
688,617;58,72
688,854;58,7
689,091;58,67
689,327;58,68
689,564;58,67
689,801;58,72
690,037;58,74
690,274;58,75
690,511;58,77
690,747;58,81
690,984;58,79
691,22;58,82
691,457;58,8
691,693;58,81
691,93;58,85
692,166;58,88
692,403;58,94
692,639;58,91
692,876;58,91
693,112;58,92
693,348;58,92
693,585;58,91
693,821;58,94
694,057;58,98
694,294;59,03
694,53;59,04
694,766;59,04
695,002;59,04
695,239;59,05
695,475;59,07
695,711;59,05
695,947;59,07
696,183;59,09
696,419;59,15
696,656;59,15
696,892;59,12
697,128;59,14
697,364;59,1
697,6;59,13
697,836;59,15
698,072;59,17
698,308;59,22
698,544;59,26
698,78;59,28
699,016;59,24
699,251;59,25
699,487;59,29
699,723;59,32
699,959;59,35
700,195;59,36
700,431;59,4
700,666;59,39
700,902;59,4
701,138;59,4
701,374;59,4
701,609;59,41
701,845;59,42
702,081;59,44
702,316;59,48
702,552;59,47
702,788;59,49
703,023;59,49
703,259;59,47
703,494;59,48
703,73;59,48
703,965;59,56
704,201;59,54
704,436;59,52
704,672;59,5
704,907;59,51
705,143;59,51
705,378;59,46
705,613;59,49
705,849;59,51
706,084;59,5
706,319;59,49
706,555;59,49
706,79;59,5
707,025;59,5
707,26;59,49
707,496;59,51
707,731;59,48
707,966;59,53
708,201;59,54
708,436;59,55
708,671;59,57
708,907;59,53
709,142;59,53
709,377;59,54
709,612;59,58
709,847;59,61
710,082;59,65
710,317;59,66
710,552;59,72
710,787;59,75
711,022;59,79
711,257;59,82
711,492;59,89
711,726;59,89
711,961;59,93
712,196;59,94
712,431;59,97
712,666;60,03
712,901;59,99
713,135;60,04
713,37;60,1
713,605;60,12
713,839;60,17
714,074;60,23
714,309;60,27
714,543;60,3
714,778;60,33
715,013;60,33
715,247;60,37
715,482;60,35
715,716;60,36
715,951;60,39
716,185;60,4
716,42;60,36
716,654;60,43
716,889;60,4
717,123;60,43
717,358;60,42
717,592;60,44
717,827;60,47
718,061;60,46
718,295;60,43
718,53;60,45
718,764;60,44
718,998;60,41
719,232;60,44
719,467;60,46
719,701;60,4
719,935;60,41
720,169;60,41
720,403;60,46
720,638;60,51
720,872;60,51
721,106;60,54
721,34;60,58
721,574;60,59
721,808;60,6
722,042;60,62
722,276;60,64
722,51;60,69
722,744;60,73
722,978;60,73
723,212;60,71
723,446;60,72
723,68;60,73
723,914;60,79
724,147;60,86
724,381;60,88
724,615;60,93
724,849;60,93
725,083;60,98
725,316;60,98
725,55;61
725,784;61,06
726,018;61,1
726,251;61,15
726,485;61,19
726,719;61,24
726,952;61,28
727,186;61,33
727,419;61,34
727,653;61,39
727,887;61,48
728,12;61,58
728,354;61,59
728,587;61,62
728,821;61,62
729,054;61,62
729,287;61,66
729,521;61,69
729,754;61,73
729,988;61,73
730,221;61,77
730,454;61,77
730,688;61,75
730,921;61,74
731,154;61,73
731,387;61,72
731,621;61,76
731,854;61,76
732,087;61,79
732,32;61,79
732,553;61,79
732,787;61,79
733,02;61,82
733,253;61,83
733,486;61,87
733,719;61,91
733,952;61,94
734,185;61,92
734,418;61,95
734,651;61,98
734,884;62,04
735,117;62,08
735,35;62,06
735,583;62,09
735,816;62,14
736,049;62,22
736,281;62,27
736,514;62,27
736,747;62,29
736,98;62,33
737,213;62,37
737,445;62,37
737,678;62,39
737,911;62,39
738,144;62,43
738,376;62,43
738,609;62,48
738,842;62,46
739,074;62,53
739,307;62,56
739,539;62,59
739,772;62,63
740,004;62,65
740,237;62,76
740,469;62,81
740,702;62,83
740,934;62,87
741,167;62,91
741,399;62,92
741,632;62,99
741,864;63
742,096;63,08
742,329;63,13
742,561;63,2
742,793;63,21
743,026;63,26
743,258;63,32
743,49;63,31
743,723;63,35
743,955;63,32
744,187;63,36
744,419;63,42
744,651;63,41
744,883;63,42
745,115;63,4
745,348;63,37
745,58;63,4
745,812;63,41
746,044;63,41
746,276;63,44
746,508;63,46
746,74;63,49
746,972;63,49
747,204;63,52
747,436;63,5
747,667;63,54
747,899;63,54
748,131;63,57
748,363;63,62
748,595;63,69
748,827;63,77
749,058;63,78
749,29;63,72
749,522;63,73
749,754;63,76
749,985;63,75
750,217;63,78
750,449;63,76
750,68;63,75
750,912;63,78
751,144;63,89
751,375;63,9
751,607;63,88
751,838;63,95
752,07;63,97
752,301;64,01
752,533;64,04
752,764;64,07
752,996;64,07
753,227;64,11
753,459;64,04
753,69;64,06
753,921;64,09
754,153;64,12
754,384;64,16
754,615;64,18
754,847;64,26
755,078;64,34
755,309;64,39
755,54;64,44
755,772;64,43
756,003;64,39
756,234;64,35
756,465;64,43
756,696;64,4
756,927;64,43
757,159;64,4
757,39;64,41
757,621;64,49
757,852;64,5
758,083;64,5
758,314;64,55
758,545;64,55
758,776;64,56
759,007;64,61
759,238;64,64
759,469;64,67
759,699;64,7
759,93;64,7
760,161;64,72
760,392;64,73
760,623;64,75
760,854;64,77
761,084;64,9
761,315;64,91
761,546;64,89
761,776;64,9
762,007;64,95
762,238;64,98
762,468;64,95
762,699;65
762,93;65,02
763,16;64,96
763,391;65
763,621;65,04
763,852;65,08
764,083;65,07
764,313;65,07
764,543;65,02
764,774;65,01
765,004;65,04
765,235;65,08
765,465;65,11
765,696;65,13
765,926;65,09
766,156;65,04
766,387;65,08
766,617;65,12
766,847;65,13
767,077;65,14
767,308;65,14
767,538;65,1
767,768;65,09
767,998;65,14
768,228;65,13
768,459;65,12
768,689;65,11
768,919;65,15
769,149;65,16
769,379;65,22
769,609;65,25
769,839;65,22
770,069;65,2
770,299;65,18
770,529;65,18
770,759;65,16
770,989;65,22
771,219;65,22
771,449;65,16
771,678;65,2
771,908;65,19
772,138;65,24
772,368;65,32
772,598;65,34
772,827;65,39
773,057;65,37
773,287;65,43
773,517;65,44
773,746;65,42
773,976;65,47
774,206;65,45
774,435;65,44
774,665;65,48
774,894;65,49
775,124;65,5
775,354;65,5
775,583;65,54
775,813;65,51
776,042;65,53
776,272;65,55
776,501;65,55
776,73;65,61
776,96;65,55
777,189;65,5
777,419;65,55
777,648;65,53
777,877;65,58
778,107;65,49
778,336;65,54
778,565;65,54
778,794;65,49
779,024;65,55
779,253;65,57
779,482;65,55
779,711;65,55
779,94;65,55
780,17;65,58
780,399;65,57
780,628;65,61
780,857;65,58
781,086;65,6
781,315;65,56
781,544;65,61
781,773;65,65
782,002;65,68
782,231;65,66
782,46;65,69
782,689;65,65
782,918;65,72
783,147;65,66
783,375;65,66
783,604;65,74
783,833;65,73
784,062;65,74
784,291;65,77
784,519;65,8
784,748;65,8
784,977;65,82
785,206;65,84
785,434;65,81
785,663;65,79
785,892;65,82
786,12;65,82
786,349;65,79
786,577;65,74
786,806;65,79
787,034;65,76
787,263;65,78
787,492;65,83
787,72;65,8
787,948;65,82
788,177;65,83
788,405;65,78
788,634;65,75
788,862;65,74
789,09;65,69
789,319;65,65
789,547;65,65
789,775;65,63
790,004;65,63
790,232;65,65
790,46;65,7
790,688;65,68
790,917;65,69
791,145;65,62
791,373;65,62
791,601;65,57
791,829;65,6
792,057;65,55
792,286;65,47
792,514;65,47
792,742;65,47
792,97;65,47
793,198;65,42
793,426;65,41
793,654;65,41
793,882;65,46
794,109;65,49
794,337;65,51
794,565;65,47
794,793;65,51
795,021;65,48
795,249;65,47
795,477;65,46
795,704;65,44
795,932;65,48
796,16;65,51
796,388;65,53
796,615;65,52
796,843;65,55
797,071;65,57
797,298;65,54
797,526;65,58
797,754;65,56
797,981;65,58
798,209;65,54
798,436;65,55
798,664;65,54
798,891;65,52
799,119;65,51
799,346;65,51
799,574;65,42
799,801;65,51
800,029;65,43
800,256;65,47
800,483;65,49
800,711;65,44
800,938;65,44
801,165;65,44
801,393;65,4
801,62;65,41
801,847;65,43
802,074;65,43
802,302;65,37
802,529;65,35
802,756;65,4
802,983;65,44
803,21;65,43
803,437;65,41
803,665;65,44
803,892;65,38
804,119;65,38
804,346;65,43
804,573;65,38
804,8;65,41
805,027;65,34
805,254;65,34
805,481;65,34
805,708;65,28
805,934;65,24
806,161;65,26
806,388;65,24
806,615;65,2
806,842;65,24
807,069;65,28
807,295;65,31
807,522;65,27
807,749;65,3
807,976;65,26
808,202;65,25
808,429;65,24
808,656;65,28
808,882;65,35
809,109;65,3
809,335;65,3
809,562;65,32
809,789;65,39
810,015;65,35
810,242;65,35
810,468;65,37
810,695;65,39
810,921;65,4
811,147;65,4
811,374;65,39
811,6;65,39
811,827;65,4
812,053;65,35
812,279;65,35
812,506;65,29
812,732;65,36
812,958;65,34
813,185;65,29
813,411;65,3
813,637;65,22
813,863;65,25
814,089;65,22
814,315;65,18
814,542;65,07
814,768;65,07
814,994;65,07
815,22;65,06
815,446;65,06
815,672;65,09
815,898;65,04
816,124;65,07
816,35;65
816,576;64,93
816,802;64,98
817,028;65
817,254;65,01
817,48;64,94
817,705;64,97
817,931;65,02
818,157;64,99
818,383;64,96
818,609;64,93
818,834;64,92
819,06;64,92
819,286;64,98
819,512;65,06
819,737;65
819,963;64,98
820,189;64,96
820,414;64,86
820,64;64,91
820,865;64,95
821,091;64,93
821,316;64,93
821,542;64,82
821,767;64,82
821,993;64,82
822,218;64,83
822,444;64,76
822,669;64,72
822,895;64,73
823,12;64,79
823,345;64,82
823,571;64,85
823,796;64,84
824,021;64,83
824,247;64,81
824,472;64,86
824,697;64,81
824,922;64,82
825,147;64,86
825,373;64,88
825,598;64,84
825,823;64,89
826,048;64,9
826,273;64,91
826,498;64,92
826,723;64,88
826,948;64,84
827,173;64,87
827,398;64,89
827,623;64,9
827,848;64,86
828,073;64,81
828,298;64,73
828,523;64,76
828,748;64,69
828,973;64,65
829,197;64,62
829,422;64,62
829,647;64,63
829,872;64,58
830,097;64,56
830,321;64,56
830,546;64,57
830,771;64,5
830,995;64,51
831,22;64,45
831,445;64,49
831,669;64,57
831,894;64,59
832,118;64,57
832,343;64,51
832,567;64,47
832,792;64,48
833,016;64,51
833,241;64,46
833,465;64,51
833,69;64,48
833,914;64,47
834,139;64,52
834,363;64,46
834,587;64,43
834,812;64,41
835,036;64,36
835,26;64,33
835,485;64,43
835,709;64,47
835,933;64,48
836,157;64,45
836,381;64,42
836,606;64,41
836,83;64,4
837,054;64,39
837,278;64,4
837,502;64,38
837,726;64,37
837,95;64,41
838,174;64,4
838,398;64,39
838,622;64,4
838,846;64,37
839,07;64,39
839,294;64,38
839,518;64,32
839,742;64,28
839,966;64,31
840,189;64,3
840,413;64,21
840,637;64,2
840,861;64,25
841,085;64,15
841,308;64,1
841,532;64,12
841,756;64,12
841,979;64,17
842,203;64,19
842,427;64,14
842,65;64,05
842,874;63,98
843,098;63,97
843,321;64,02
843,545;64,06
843,768;64,05
843,992;64,1
844,215;64,08
844,439;64,14
844,662;64,05
844,886;63,98
845,109;64,06
845,332;64,06
845,556;64,06
845,779;64,1
846,002;64,11
846,226;64,04
846,449;64,05
846,672;63,95
846,895;63,91
847,119;63,91
847,342;63,9
847,565;63,95
847,788;63,84
848,011;63,76
848,234;63,74
848,457;63,72
848,681;63,7
848,904;63,71
849,127;63,69
849,35;63,81
849,573;63,85
849,796;63,79
850,019;63,78
850,241;63,71
850,464;63,7
850,687;63,76
850,91;63,77
851,133;63,78
851,356;63,85
851,579;63,95
851,801;63,96
852,024;64,11
852,247;64,13
852,47;64,11
852,692;64,08
852,915;64,01
853,138;64,01
853,36;64,01
853,583;63,98
853,806;63,97
854,028;63,81
854,251;63,76
854,473;63,84
854,696;63,82
854,918;63,85
855,141;63,79
855,363;63,71
855,586;63,71
855,808;63,64
856,031;63,49
856,253;63,47
856,475;63,46
856,698;63,32
856,92;63,3
857,142;63,37
857,365;63,44
857,587;63,33
857,809;63,31
858,031;63,34
858,253;63,32
858,476;63,3
858,698;63,32
858,92;63,3
859,142;63,26
859,364;63,22
859,586;63,21
859,808;63,18
860,03;63,18
860,252;63,16
860,474;63,22
860,696;63,33
860,918;63,27
861,14;63,28
861,362;63,28
861,584;63,25
861,806;63,25
862,028;63,2
862,25;63,33
862,471;63,3
862,693;63,27
862,915;63,28
863,137;63,24
863,358;63,28
863,58;63,29
863,802;63,22
864,024;63,17
864,245;63,14
864,467;63,21
864,688;63,18
864,91;63,17
865,132;63,13
865,353;63,02
865,575;62,96
865,796;62,9
866,018;62,95
866,239;62,92
866,461;62,92
866,682;62,86
866,903;62,8
867,125;62,78
867,346;62,75
867,567;62,75
867,789;62,78
868,01;62,78
868,231;62,69
868,453;62,76
868,674;62,85
868,895;62,78
869,116;62,75
869,337;62,79
869,559;62,78
869,78;62,78
870,001;62,81
870,222;62,86
870,443;62,95
870,664;62,93
870,885;62,97
871,106;62,92
871,327;62,99
871,548;63,05
871,769;63,11
871,99;63,15
872,211;63,1
872,432;63,09
872,653;62,96
872,874;63,03
873,094;62,91
873,315;62,84
873,536;62,9
873,757;62,91
873,978;62,85
874,198;62,76
874,419;62,73
874,64;62,78
874,86;62,67
875,081;62,58
875,302;62,54
875,522;62,51
875,743;62,54
875,963;62,51
876,184;62,43
876,404;62,37
876,625;62,26
876,845;62,28
877,066;62,17
877,286;62,25
877,507;62,2
877,727;62,27
877,947;62,28
878,168;62,24
878,388;62,26
878,609;62,29
878,829;62,41
879,049;62,46
879,269;62,46
879,49;62,47
879,71;62,49
879,93;62,46
880,15;62,46
880,37;62,45
880,59;62,4
880,811;62,5
881,031;62,56
881,251;62,66
881,471;62,66
881,691;62,81
881,911;62,85
882,131;62,86
882,351;62,89
882,571;62,89
882,791;62,88
883,011;62,87
883,23;62,78
883,45;62,71
883,67;62,66
883,89;62,55
884,11;62,56
884,33;62,54
884,549;62,52
884,769;62,51
884,989;62,53
885,209;62,56
885,428;62,52
885,648;62,44
885,868;62,4
886,087;62,36
886,307;62,22
886,526;62,22
886,746;62,22
886,965;62,19
887,185;62,26
887,404;62,25
887,624;62,29
887,843;62,41
888,063;62,51
888,282;62,56
888,502;62,67
888,721;62,76
888,94;62,81
889,16;62,75
889,379;62,75
889,598;62,76
889,818;62,71
890,037;62,78
890,256;62,79
890,475;62,83
890,694;62,82
890,914;62,86
891,133;62,82
891,352;62,78
891,571;62,74
891,79;62,71
892,009;62,72
892,228;62,69
892,447;62,61
892,666;62,61
892,885;62,51
893,104;62,5
893,323;62,44
893,542;62,51
893,761;62,54
893,98;62,49
894,199;62,44
894,417;62,44
894,636;62,37
894,855;62,44
895,074;62,38
895,293;62,4
895,511;62,47
895,73;62,43
895,949;62,51
896,167;62,5
896,386;62,49
896,605;62,54
896,823;62,48
897,042;62,5
897,26;62,33
897,479;62,39
897,697;62,28
897,916;62,34
898,134;62,23
898,353;62,26
898,571;62,32
898,79;62,35
899,008;62,33
899,227;62,19
899,445;62,18
899,663;62,27
899,882;62,27
900,1;62,18
900,318;62,26
900,536;62,25
900,755;62,25
900,973;62,14
901,191;62,06
901,409;62,12
901,627;62,06
901,846;62,22
902,064;62,19
902,282;62,25
902,5;62,27
902,718;62,21
902,936;62,24
903,154;62,27
903,372;62,2
903,59;62,28
903,808;62,42
904,026;62,39
904,244;62,17
904,462;62,15
904,679;62,2
904,897;62,2
905,115;62,14
905,333;62,15
905,551;62,18
905,768;62,18
905,986;62,24
906,204;62,23
906,422;62,21
906,639;62,23
906,857;62,28
907,074;62,09
907,292;62,17
907,51;62,2
907,727;62,13
907,945;62,18
908,162;62,17
908,38;62,14
908,597;62,2
908,815;62,38
909,032;62,35
909,25;62,32
909,467;62,13
909,684;62,09
909,902;62,21
910,119;62,35
910,337;62,43
910,554;62,29
910,771;62,38
910,988;62,29
911,206;62,26
911,423;62,29
911,64;62,35
911,857;62,38
912,074;62,32
912,291;62,29
912,509;62,31
912,726;62,32
912,943;62,41
913,16;62,45
913,377;62,31
913,594;62,34
913,811;62,41
914,028;62,57
914,245;62,67
914,462;62,5
914,679;62,43
914,896;62,22
915,112;62,17
915,329;62,19
915,546;62,16
915,763;62,16
915,98;62
916,196;62,05
916,413;62,08
916,63;62,13
916,847;62,2
917,063;62,17
917,28;62,03
917,497;62,05
917,713;61,81
917,93;62
918,146;61,98
918,363;62,04
918,579;62,04
918,796;61,99
919,012;62,19
919,229;62,22
919,445;62,49
919,662;62,53
919,878;62,42
920,095;62,51
920,311;62,57
920,527;62,73
920,744;62,84
920,96;62,68
921,176;62,72
921,392;62,57
921,609;62,6
921,825;62,75
922,041;62,64
922,257;62,75
922,473;62,7
922,69;62,81
922,906;62,79
923,122;62,74
923,338;62,75
923,554;62,62
923,77;62,52
923,986;62,47
924,202;62,62
924,418;62,78
924,634;62,73
924,85;62,65
925,066;62,67
925,282;62,55
925,497;62,58
925,713;62,55
925,929;62,71
926,145;62,6
926,361;62,54
926,576;62,58
926,792;62,52
927,008;62,46
927,224;62,46
927,439;62,34
927,655;62,39
927,871;62,46
928,086;62,49
928,302;62,59
928,517;62,52
928,733;62,42
928,948;62,35
929,164;62,29
929,379;62,31
929,595;62,24
929,81;62,29
930,026;62,18
930,241;62,16
930,456;62,01
930,672;62,06
930,887;62,15
931,102;62,14
931,318;62,15
931,533;62,1
931,748;62,14
931,964;62,21
932,179;62,1
932,394;62,01
932,609;61,88
932,824;61,88
933,039;61,75
933,255;61,67
933,47;61,63
933,685;61,54
933,9;61,67
934,115;61,66
934,33;61,79
934,545;61,97
934,76;61,95
934,975;62,04
935,19;61,96
935,404;61,75
935,619;61,71
935,834;61,83
936,049;61,9
936,264;61,84
936,479;61,79
936,693;61,82
936,908;61,92
937,123;62,05
937,338;62,14
937,552;62,21
937,767;62,4
937,982;62,63
938,196;62,85
938,411;62,42
938,625;62,42
938,84;62,18
939,055;62,05
939,269;62,17
939,484;62,51
939,698;63,19
939,912;63,56
940,127;63,65
940,341;63,39
940,556;63,38
940,77;63,68
940,984;63,68
941,199;64,01
941,413;64,18
941,627;64,28
941,842;64,22
942,056;64,53
942,27;64,91
942,484;64,73
942,699;65,26
942,913;65,9
943,127;66,16
943,341;66,72
943,555;66,32
943,769;66,17
943,983;66,24
944,197;65,74
944,411;65,57
944,625;65,34
944,839;65,76
945,053;66,6
945,267;66,48
945,481;66,48
945,695;66,52
945,909;66,02
946,123;65,98
946,336;65,98
946,55;66,27
946,764;66,03
946,978;66,18
947,192;66,04
947,405;65,57
947,619;65,69
947,833;65,12
948,046;65,81
948,26;66,11
948,474;65,68
948,687;65,95
948,901;66,37
949,114;66,75
949,328;66,42
949,541;65,49
949,755;65,21
949,968;64,85
950,182;64,54
950,395;64,89
950,609;64,87
950,822;64,52
951,035;64,48
951,249;64,4
951,462;64,69
951,675;64,59
951,889;64,63
952,102;64,34
952,315;64,65
952,528;64,42
952,741;64,34
952,955;64,72
953,168;64,31
953,381;63,97
953,594;63,67
953,807;63,79
954,02;64,18
954,233;63,95
954,446;64,34
954,659;64,71
954,872;64,3
955,085;64,47
955,298;64,59
955,511;64,18
955,724;63,55
955,937;63,54
956,15;63,27
956,362;63,47
956,575;63,75
956,788;63,65
957,001;64,04
957,214;63,98
957,426;63,89
957,639;64,07
957,852;64,12
958,064;64,17
958,277;63,91
958,49;63,86
958,702;63,86
958,915;64,09
959,127;63,91
959,34;64,04
959,552;63,57
959,765;63,7
959,977;63,92
960,19;64,44
960,402;63,88
960,615;64,17
960,827;64,39
961,039;63,96
961,252;63,62
961,464;63,4
961,676;63,56
961,889;63,48
962,101;63,3
962,313;63,71
962,525;63,82
962,738;63,93
962,95;63,83
963,162;64,19
963,374;64,03
963,586;64,01
963,798;64,62
964,01;64,9
964,222;64,94
964,434;65,18
964,646;64,86
964,858;64,87
965,07;65,02
965,282;64,73
965,494;64,9
965,706;65,08
965,918;65,18
966,13;64,97
966,342;65,06
966,553;65,19
966,765;64,93
966,977;65,24
967,189;65,34
967,401;65,32
967,612;65,15
967,824;65,02
968,036;64,98
968,247;64,19
968,459;64,34
968,67;64,26
968,882;64,04
969,094;64,16
969,305;64,39
969,517;63,94
969,728;64,3
969,94;64,67
970,151;64,73
970,362;64,9
970,574;65,01
970,785;65,03
970,997;64,9
971,208;64,66
971,419;64,12
971,631;64,16
971,842;64,65
972,053;64,73
972,264;64,88
972,476;65,13
972,687;65,49
972,898;65,48
973,109;65,33
973,32;65,74
973,531;65,91
973,742;66,14
973,954;66,18
974,165;66
974,376;65,53
974,587;65,51
974,798;65,06
975,009;65,06
975,22;65,01
975,43;64,97
975,641;65,2
975,852;65,46
976,063;65,47
976,274;65,15
976,485;65,42
976,695;65,36
976,906;65,51
977,117;65,9
977,328;65,93
977,538;65,89
977,749;65,56
977,96;65,86
978,17;65,73
978,381;66,01
978,592;65,75
978,802;65,84
979,013;65,85
979,223;66,2
979,434;66,25
979,644;66,39
979,855;66,86
980,065;67,27
980,276;67,59
980,486;67,79
980,696;67,92
980,907;67,61
981,117;67,81
981,327;67,55
981,538;67,21
981,748;67,15
981,958;67,54
982,169;67,58
982,379;67,31
982,589;67,34
982,799;67,14
983,009;67,4
983,219;67,56
983,43;67,41
983,64;67,19
983,85;67,31
984,06;67,2
984,27;66,77
984,48;66,34
984,69;66,07
984,9;65,4
985,11;65,49
985,32;65,73
985,529;65,73
985,739;65,54
985,949;65,63
986,159;65,48
986,369;65,62
986,579;66,1
986,788;66,38
986,998;66,65
987,208;66,45
987,417;66,25
987,627;66,15
987,837;66,14
988,046;66,13
988,256;65,93
988,466;65,81
988,675;65,78
988,885;65,75
989,094;65,94
989,304;66,52
989,513;66,03
989,723;65,84
989,932;65,74
990,142;65,73
990,351;65,6
990,56;65,72
990,77;65,47
990,979;64,74
991,188;64,49
991,398;64,22
991,607;64,68
991,816;64,95
992,025;65,17
992,235;65,91
992,444;66,23
992,653;66,54
992,862;66,21
993,071;66,68
993,28;66,91
993,489;67,07
993,698;66,86
993,908;67,06
994,117;66,96
994,326;66,88
994,534;66,85
994,743;66,95
994,952;66,89
995,161;66,99
995,37;67,39
995,579;67,76
995,788;67,45
995,997;67,48
996,205;67,58
996,414;68,39
996,623;67,76
996,832;68,03
997,04;67,89
997,249;67,91
997,458;67,58
997,666;67,83
997,875;68,02
998,084;67,95
998,292;68,14
998,501;68,63
998,709;68
998,918;68,42
999,126;68
999,335;68,37
999,543;67,86
999,752;67,69
999,96;67,48
1000,169;67,08
1000,377;66,91
1000,585;66,88
1000,794;66,13
1001,002;66,05
1001,21;65,82
1001,418;65,8
1001,627;66,28
1001,835;66,46
1002,043;65,95
1002,251;65,56
1002,459;66,06
1002,668;65,98
1002,876;65,4
1003,084;66,06
1003,292;65,56
1003,5;65,81
1003,708;65,41
1003,916;65,75
1004,124;65,93
1004,332;65,52
1004,54;66,54
1004,748;66,95
1004,956;66,72
1005,163;66,18
1005,371;65,99
1005,579;66,05
1005,787;65,97
1005,995;66,25
1006,202;66,89
1006,41;67,66
1006,618;67,56
1006,826;67,94
1007,033;68,15
1007,241;69,05
1007,449;69,15
1007,656;69,99
1007,864;70,7
1008,071;71,24
1008,279;71,5
1008,486;71,84
1008,694;72,55
1008,901;72,4
1009,109;72,43
1009,316;72,56
1009,524;73,13
1009,731;74,23
1009,938;74,59
1010,146;74,73
1010,353;75,31
1010,56;74,64
1010,768;74,39
1010,975;74,86
1011,182;74,36
1011,389;72,69
1011,597;72,33
1011,804;72,75
1012,011;72,95
1012,218;72,36
1012,425;72,25
1012,632;72,33
1012,839;71,66
1013,046;71,22
1013,253;71,3
1013,46;70,97
1013,667;70,82
1013,874;70,41
1014,081;70,13
1014,288;68,32
1014,495;67,94
1014,702;66,84
1014,909;66,92
1015,116;66,45
1015,323;66,72
1015,529;67,47
1015,736;69,57
1015,943;69,58
1016,15;68,16
1016,356;67,66
1016,563;68,74
1016,77;68,44
1016,976;68,29
1017,183;68,69
1017,389;69,08
1017,596;69,2
1017,803;68,8
1018,009;69,86
1018,216;69,54
1018,422;69,28
1018,629;71,15
1018,835;71,29
1019,041;72,38
1019,248;71,78
1019,454;71,94
1019,661;72,31
1019,867;72,05
1020,073;72,11
1020,279;72,9
1020,486;72,86
1020,692;73,62
1020,898;71,65
1021,104;71,3
1021,311;70,32
1021,517;69,41
1021,723;70,11
1021,929;69,87
1022,135;71,46
1022,341;70,18
1022,547;71,16
1022,753;71,48
1022,959;70,94
1023,165;72,29
1023,371;72,55
1023,577;72,93
1023,783;72,36
1023,989;70,76
1024,195;71,18
1024,401;71,29
1024,607;70,22
1024,812;72,45
1025,018;71,8
1025,224;71,39
1025,43;72,8
1025,635;73,55
1025,841;75,46
1026,047;74,1
1026,252;74,17
1026,458;73,31
1026,664;74,84
1026,869;75,63
1027,075;77,22
1027,28;76,23
1027,486;75,15
1027,691;73,46
1027,897;74,46
1028,102;72,47
1028,308;71,93
1028,513;71,29
1028,719;70,82
1028,924;71,34
1029,129;71,22
1029,335;70,96
1029,54;71,7
1029,745;70,09
1029,95;70,96
1030,156;70,28
1030,361;69,92
1030,566;70,69
1030,771;71,61
1030,976;69,37
1031,182;68,82
1031,387;66,01
1031,592;67,63
1031,797;68,77
1032,002;68,32
1032,207;68,88
1032,412;72,25
1032,617;74,49
1032,822;74,76
1033,027;75,05
1033,232;74,65
1033,437;74,77
1033,642;75,32
1033,846;75,87
1034,051;77,75
1034,256;78,03
1034,461;78,91
1034,666;78,01
1034,87;76,33
1035,075;73,98
1035,28;74,4
1035,484;73,18
1035,689;72,42
1035,894;72,03
1036,098;70,16
1036,303;71,57
1036,507;69,58
1036,712;68
1036,917;66,61
1037,121;68,26
1037,325;67,52
1037,53;68,78
1037,734;67,62
1037,939;68,77
1038,143;72,47
1038,348;73,3
1038,552;72,69
1038,756;70,16
1038,961;72,51
1039,165;73,56
1039,369;74,37
1039,573;73,65
1039,778;73,27
1039,982;72,74
1040,186;70,85
1040,39;72,9
1040,594;72,49
1040,798;72,48
1041,002;73,64
1041,206;74,07
1041,41;73,8
1041,614;75,03
1041,818;73,07
1042,022;72,94
1042,226;71,67
1042,43;68,82
1042,634;67,65
1042,838;67,36
1043,042;68,64
1043,246;67,62
1043,45;66,38
1043,653;68,45
1043,857;72,24
1044,061;74,2
1044,265;79,36
1044,468;83,18
1044,672;81,98
1044,876;81,67
1045,079;82,3
1045,283;83,54
1045,487;81,9
1045,69;79,79
1045,894;78,03
1046,097;83,05
1046,301;82,74
1046,504;83,4
1046,708;83,27
1046,911;85,89
1047,115;86,61
1047,318;87,15
1047,522;90,78
1047,725;90,59
1047,928;89,43
1048,132;88
1048,335;91,04
1048,538;86,81
1048,741;86,76
1048,945;84,12
1049,148;87,63
1049,351;86,88
1049,554;89,53
1049,757;94,94
1049,96;93,11
1050,163;94,25
1050,367;91,53
1050,57;90,97
1050,773;90,84
1050,976;91,74
1051,179;90,79
1051,382;89,72
1051,585;91,75
1051,787;90,39
1051,99;94,44
1052,193;98,18
1052,396;99,98
1052,599;95,8
1052,802;101,63
1053,005;97,28
1053,207;100,65
1053,41;95,94
1053,613;98,16
1053,815;94,44
1054,018;88,96
1054,221;90,57
1054,423;91,83
1054,626;90
1054,829;92,84
1055,031;93,92
1055,234;93,93
1055,436;92,14
1055,639;94,58
1055,841;89,46
1056,044;89,29
1056,246;85,34
