Data from cinnabarWhite_Reflection__3__18.txt Node;
"Date: Wed Sep 10 11:51:16 CEST 2025 User: sycur Spectrometer: SR400348 Trigger mode: 0 Integration Time (sec): 1,000000E-2 Scans to average: 10 Electric dark correction enabled: true Nonlinearity correction enabled: false Boxcar width: 10 XAxis mode: Wavelengths Number of Pixels in Spectrum: 3648 >>>>>Begin Spectral Data<<<<<";
186,01;69,24
186,281;70,7
186,552;72,86
186,822;66,83
187,093;-266,67
187,364;220,04
187,635;129,61
187,905;82,65
188,176;67,82
188,447;51,92
188,717;39,31
188,988;31,07
189,258;29,2
189,529;41,89
189,8;45,61
190,07;36,41
190,341;33,07
190,611;31,59
190,882;26,7
191,152;27,23
191,423;27,15
191,693;33,37
191,964;31,33
192,234;32,01
192,505;31,24
192,775;31,92
193,045;30,28
193,316;27,55
193,586;27,15
193,856;26,79
194,127;25,5
194,397;27,29
194,667;28,92
194,938;27,48
195,208;23,51
195,478;24,21
195,748;25,72
196,019;26,15
196,289;25,1
196,559;24,69
196,829;23,31
197,099;23,81
197,37;22,16
197,64;23,34
197,91;22,23
198,18;21,28
198,45;21,68
198,72;20,97
198,99;21,14
199,26;20,17
199,53;20,21
199,8;21,3
200,07;19,67
200,34;17,96
200,61;18,13
200,88;19,03
201,15;18,02
201,42;16,7
201,69;15,67
201,96;15,13
202,23;15,4
202,499;16
202,769;15,93
203,039;14,93
203,309;13,41
203,579;13,33
203,849;13,79
204,118;13,08
204,388;13,52
204,658;13
204,927;13,41
205,197;12,94
205,467;12,77
205,736;13,44
206,006;14,09
206,276;14,34
206,545;14,17
206,815;14,3
207,085;14,53
207,354;14,7
207,624;14,57
207,893;14,6
208,163;14,52
208,432;14,2
208,702;14,37
208,971;14,52
209,241;14,5
209,51;14,47
209,78;14,25
210,049;14,03
210,318;14,17
210,588;13,96
210,857;14,16
211,127;14,18
211,396;13,47
211,665;13,29
211,935;13,01
212,204;12,93
212,473;12,96
212,742;12,75
213,012;12,91
213,281;13,01
213,55;13,04
213,819;12,73
214,088;12,58
214,358;12,61
214,627;12,58
214,896;12,34
215,165;12,11
215,434;11,98
215,703;12,07
215,972;11,92
216,241;11,97
216,51;11,78
216,779;11,62
217,048;11,81
217,317;11,67
217,586;11,59
217,855;11,64
218,124;11,55
218,393;11,47
218,662;11,4
218,931;11,22
219,2;10,85
219,469;10,9
219,738;10,85
220,006;10,73
220,275;10,65
220,544;10,86
220,813;10,9
221,082;10,94
221,35;10,81
221,619;10,82
221,888;10,76
222,157;10,7
222,425;10,73
222,694;10,62
222,963;10,64
223,231;10,51
223,5;10,38
223,769;10,34
224,037;10,28
224,306;10,15
224,574;10,2
224,843;10,29
225,111;10,22
225,38;10,07
225,648;10,07
225,917;10,07
226,185;9,95
226,454;9,85
226,722;9,91
226,991;9,84
227,259;9,81
227,528;9,66
227,796;9,63
228,064;9,46
228,333;9,47
228,601;9,37
228,869;9,37
229,138;9,35
229,406;9,31
229,674;9,31
229,942;9,27
230,211;9,26
230,479;9,23
230,747;9,24
231,015;9,26
231,283;9,18
231,552;9,06
231,82;8,99
232,088;9,01
232,356;8,9
232,624;8,89
232,892;8,87
233,16;8,86
233,428;8,81
233,696;8,78
233,964;8,74
234,232;8,75
234,5;8,72
234,768;8,67
235,036;8,62
235,304;8,62
235,572;8,62
235,84;8,49
236,108;8,43
236,376;8,35
236,644;8,35
236,912;8,31
237,179;8,35
237,447;8,33
237,715;8,26
237,983;8,24
238,251;8,19
238,518;8,16
238,786;8,18
239,054;8,12
239,322;8,15
239,589;8,13
239,857;8,07
240,125;8,06
240,392;8,04
240,66;8,04
240,927;7,96
241,195;7,93
241,463;7,96
241,73;7,94
241,998;7,94
242,265;7,89
242,533;7,91
242,8;7,87
243,068;7,86
243,335;7,86
243,603;7,86
243,87;7,86
244,138;7,83
244,405;7,81
244,672;7,85
244,94;7,79
245,207;7,77
245,474;7,79
245,742;7,76
246,009;7,74
246,276;7,71
246,544;7,7
246,811;7,71
247,078;7,71
247,345;7,71
247,613;7,71
247,88;7,69
248,147;7,64
248,414;7,66
248,681;7,65
248,948;7,66
249,215;7,65
249,483;7,61
249,75;7,61
250,017;7,56
250,284;7,52
250,551;7,53
250,818;7,51
251,085;7,47
251,352;7,46
251,619;7,45
251,886;7,43
252,153;7,45
252,42;7,44
252,687;7,42
252,953;7,42
253,22;7,4
253,487;7,4
253,754;7,42
254,021;7,4
254,288;7,37
254,555;7,33
254,821;7,35
255,088;7,34
255,355;7,31
255,622;7,32
255,888;7,33
256,155;7,3
256,422;7,28
256,688;7,28
256,955;7,24
257,222;7,23
257,488;7,24
257,755;7,25
258,022;7,21
258,288;7,17
258,555;7,14
258,821;7,13
259,088;7,1
259,354;7,07
259,621;7,06
259,887;7,09
260,154;7,11
260,42;7,03
260,687;7,06
260,953;7,08
261,219;7,08
261,486;7,02
261,752;7,04
262,019;7,04
262,285;7,02
262,551;7,05
262,818;7,07
263,084;7,05
263,35;7,02
263,616;7
263,883;7,04
264,149;7,05
264,415;7,06
264,681;7,07
264,947;7,08
265,214;7,03
265,48;6,99
265,746;6,98
266,012;7,01
266,278;6,97
266,544;6,94
266,81;6,92
267,076;6,95
267,342;6,93
267,608;6,92
267,874;6,89
268,14;6,89
268,406;6,87
268,672;6,88
268,938;6,87
269,204;6,85
269,47;6,83
269,736;6,8
270,002;6,76
270,268;6,76
270,533;6,75
270,799;6,77
271,065;6,76
271,331;6,75
271,597;6,75
271,862;6,76
272,128;6,77
272,394;6,79
272,66;6,78
272,925;6,79
273,191;6,8
273,457;6,85
273,722;6,81
273,988;6,79
274,254;6,77
274,519;6,78
274,785;6,79
275,05;6,79
275,316;6,8
275,582;6,82
275,847;6,84
276,113;6,82
276,378;6,79
276,644;6,8
276,909;6,81
277,174;6,81
277,44;6,81
277,705;6,75
277,971;6,7
278,236;6,7
278,501;6,69
278,767;6,67
279,032;6,67
279,297;6,68
279,563;6,66
279,828;6,65
280,093;6,6
280,358;6,59
280,624;6,59
280,889;6,56
281,154;6,56
281,419;6,54
281,684;6,53
281,95;6,53
282,215;6,53
282,48;6,51
282,745;6,5
283,01;6,49
283,275;6,5
283,54;6,5
283,805;6,46
284,07;6,47
284,335;6,47
284,6;6,44
284,865;6,41
285,13;6,4
285,395;6,4
285,66;6,41
285,925;6,44
286,19;6,44
286,455;6,44
286,72;6,43
286,985;6,4
287,249;6,38
287,514;6,38
287,779;6,36
288,044;6,35
288,309;6,33
288,573;6,32
288,838;6,33
289,103;6,34
289,367;6,33
289,632;6,33
289,897;6,31
290,161;6,33
290,426;6,33
290,691;6,35
290,955;6,31
291,22;6,31
291,484;6,27
291,749;6,24
292,014;6,22
292,278;6,2
292,543;6,2
292,807;6,23
293,072;6,23
293,336;6,2
293,6;6,2
293,865;6,2
294,129;6,21
294,394;6,2
294,658;6,2
294,922;6,19
295,187;6,17
295,451;6,17
295,715;6,13
295,98;6,14
296,244;6,11
296,508;6,11
296,773;6,12
297,037;6,13
297,301;6,14
297,565;6,15
297,829;6,12
298,094;6,13
298,358;6,1
298,622;6,11
298,886;6,12
299,15;6,12
299,414;6,14
299,678;6,14
299,942;6,13
300,206;6,12
300,47;6,12
300,734;6,12
300,998;6,1
301,262;6,11
301,526;6,08
301,79;6,09
302,054;6,11
302,318;6,08
302,582;6,09
302,846;6,06
303,11;6,08
303,374;6,09
303,637;6,07
303,901;6,05
304,165;6,04
304,429;6,04
304,693;6,03
304,956;6,01
305,22;6
305,484;6,01
305,747;6,02
306,011;6,03
306,275;6
306,538;5,99
306,802;6,01
307,066;6,02
307,329;5,99
307,593;5,99
307,856;5,98
308,12;5,95
308,384;5,98
308,647;5,97
308,911;5,96
309,174;5,97
309,438;5,96
309,701;5,95
309,964;5,93
310,228;5,92
310,491;5,93
310,755;5,94
311,018;5,94
311,281;5,94
311,545;5,92
311,808;5,91
312,071;5,92
312,335;5,88
312,598;5,9
312,861;5,95
313,124;5,96
313,388;6
313,651;6,01
313,914;5,98
314,177;5,95
314,44;5,95
314,704;5,93
314,967;5,94
315,23;5,94
315,493;5,94
315,756;5,94
316,019;5,96
316,282;5,94
316,545;5,89
316,808;5,88
317,071;5,89
317,334;5,92
317,597;5,92
317,86;5,92
318,123;5,91
318,386;5,87
318,649;5,82
318,912;5,78
319,175;5,77
319,437;5,77
319,7;5,8
319,963;5,82
320,226;5,84
320,489;5,83
320,751;5,82
321,014;5,8
321,277;5,78
321,54;5,72
321,802;5,69
322,065;5,71
322,328;5,69
322,59;5,67
322,853;5,67
323,116;5,67
323,378;5,68
323,641;5,66
323,903;5,68
324,166;5,71
324,428;5,7
324,691;5,68
324,953;5,66
325,216;5,64
325,478;5,62
325,741;5,57
326,003;5,57
326,266;5,57
326,528;5,56
326,791;5,56
327,053;5,58
327,315;5,58
327,578;5,58
327,84;5,58
328,102;5,53
328,365;5,51
328,627;5,45
328,889;5,41
329,151;5,42
329,414;5,41
329,676;5,37
329,938;5,38
330,2;5,37
330,462;5,36
330,725;5,33
330,987;5,32
331,249;5,31
331,511;5,3
331,773;5,29
332,035;5,29
332,297;5,32
332,559;5,31
332,821;5,27
333,083;5,27
333,345;5,26
333,607;5,31
333,869;5,34
334,131;5,37
334,393;5,4
334,655;5,38
334,917;5,34
335,179;5,33
335,44;5,33
335,702;5,34
335,964;5,35
336,226;5,35
336,488;5,35
336,749;5,34
337,011;5,33
337,273;5,31
337,535;5,32
337,796;5,27
338,058;5,29
338,32;5,31
338,581;5,28
338,843;5,28
339,105;5,28
339,366;5,25
339,628;5,24
339,889;5,23
340,151;5,24
340,412;5,27
340,674;5,29
340,935;5,29
341,197;5,31
341,458;5,3
341,72;5,28
341,981;5,25
342,243;5,25
342,504;5,25
342,766;5,25
343,027;5,24
343,288;5,25
343,55;5,25
343,811;5,28
344,072;5,25
344,334;5,24
344,595;5,23
344,856;5,24
345,117;5,26
345,379;5,27
345,64;5,28
345,901;5,25
346,162;5,24
346,423;5,24
346,684;5,2
346,946;5,22
347,207;5,21
347,468;5,27
347,729;5,25
347,99;5,29
348,251;5,31
348,512;5,28
348,773;5,28
349,034;5,22
349,295;5,21
349,556;5,24
349,817;5,26
350,078;5,29
350,339;5,28
350,6;5,29
350,86;5,28
351,121;5,25
351,382;5,28
351,643;5,25
351,904;5,2
352,165;5,17
352,425;5,17
352,686;5,2
352,947;5,16
353,208;5,19
353,468;5,15
353,729;5,16
353,99;5,22
354,25;5,21
354,511;5,23
354,772;5,23
355,032;5,23
355,293;5,19
355,553;5,15
355,814;5,17
356,074;5,15
356,335;5,17
356,596;5,19
356,856;5,19
357,116;5,23
357,377;5,28
357,637;5,3
357,898;5,29
358,158;5,27
358,419;5,27
358,679;5,3
358,939;5,29
359,2;5,25
359,46;5,18
359,72;5,21
359,981;5,25
360,241;5,24
360,501;5,24
360,761;5,22
361,022;5,25
361,282;5,18
361,542;5,19
361,802;5,14
362,062;5,1
362,323;5,06
362,583;5,08
362,843;5,04
363,103;5,07
363,363;5,06
363,623;5,04
363,883;5,07
364,143;5,04
364,403;5,02
364,663;5,03
364,923;5,07
365,183;5,07
365,443;5,06
365,703;5,05
365,963;5,03
366,223;5,1
366,483;5,07
366,743;5,11
367,002;5,14
367,262;5,15
367,522;5,16
367,782;5,18
368,042;5,17
368,301;5,15
368,561;5,13
368,821;5,12
369,081;5,13
369,34;5,1
369,6;5,11
369,86;5,11
370,119;5,12
370,379;5,11
370,638;5,14
370,898;5,09
371,158;5,07
371,417;5,08
371,677;5,01
371,936;5,07
372,196;5,06
372,455;5,01
372,715;5
372,974;5,01
373,234;4,97
373,493;4,99
373,753;5,03
374,012;5,02
374,271;5,03
374,531;5,04
374,79;5,02
375,049;5,04
375,309;5,04
375,568;4,99
375,827;4,96
376,086;4,89
376,346;4,9
376,605;4,88
376,864;4,87
377,123;4,86
377,383;4,8
377,642;4,82
377,901;4,83
378,16;4,82
378,419;4,8
378,678;4,79
378,937;4,78
379,196;4,78
379,455;4,79
379,714;4,8
379,973;4,81
380,232;4,82
380,491;4,77
380,75;4,77
381,009;4,8
381,268;4,84
381,527;4,89
381,786;4,9
382,045;4,92
382,304;4,93
382,563;4,96
382,821;4,99
383,08;5
383,339;5,03
383,598;5,06
383,857;5,07
384,115;5,09
384,374;5,07
384,633;5,09
384,891;5,08
385,15;5,07
385,409;5,1
385,667;5,07
385,926;5,09
386,185;5,08
386,443;5,07
386,702;5,03
386,96;5
387,219;4,99
387,477;5,03
387,736;5,03
387,994;5
388,253;4,99
388,511;4,94
388,77;4,89
389,028;4,9
389,287;4,87
389,545;4,86
389,803;4,82
390,062;4,77
390,32;4,75
390,578;4,76
390,837;4,73
391,095;4,77
391,353;4,79
391,612;4,82
391,87;4,84
392,128;4,88
392,386;4,87
392,644;4,84
392,903;4,8
393,161;4,76
393,419;4,79
393,677;4,77
393,935;4,79
394,193;4,79
394,451;4,78
394,709;4,76
394,967;4,76
395,225;4,79
395,483;4,84
395,741;4,89
395,999;4,89
396,257;4,92
396,515;4,92
396,773;4,94
397,031;4,96
397,289;4,95
397,547;4,91
397,805;4,88
398,062;4,91
398,32;4,9
398,578;4,95
398,836;4,91
399,094;4,88
399,351;4,86
399,609;4,88
399,867;4,84
400,124;4,88
400,382;4,91
400,64;4,95
400,897;4,9
401,155;4,86
401,413;4,85
401,67;4,81
401,928;4,78
402,185;4,74
402,443;4,7
402,701;4,68
402,958;4,72
403,216;4,72
403,473;4,7
403,73;4,71
403,988;4,71
404,245;4,75
404,503;4,76
404,76;4,76
405,018;4,72
405,275;4,77
405,532;4,81
405,79;4,76
406,047;4,68
406,304;4,71
406,561;4,7
406,819;4,76
407,076;4,74
407,333;4,76
407,59;4,78
407,848;4,76
408,105;4,73
408,362;4,72
408,619;4,8
408,876;4,83
409,133;4,82
409,39;4,83
409,647;4,83
409,904;4,82
410,161;4,84
410,418;4,83
410,675;4,77
410,932;4,72
411,189;4,77
411,446;4,78
411,703;4,79
411,96;4,79
412,217;4,75
412,474;4,74
412,731;4,74
412,988;4,74
413,245;4,84
413,501;4,85
413,758;4,82
414,015;4,75
414,272;4,71
414,529;4,78
414,785;4,8
415,042;4,84
415,299;4,9
415,555;4,9
415,812;4,9
416,069;4,93
416,325;4,96
416,582;4,95
416,838;5
417,095;4,96
417,352;4,94
417,608;4,95
417,865;4,97
418,121;4,96
418,378;4,95
418,634;4,88
418,891;4,93
419,147;4,97
419,403;4,97
419,66;4,94
419,916;4,89
420,173;4,89
420,429;4,84
420,685;4,83
420,942;4,85
421,198;4,87
421,454;4,89
421,711;4,85
421,967;4,86
422,223;4,82
422,479;4,87
422,735;4,9
422,992;4,88
423,248;4,83
423,504;4,86
423,76;4,87
424,016;4,85
424,272;4,83
424,528;4,8
424,784;4,81
425,041;4,84
425,297;4,82
425,553;4,81
425,809;4,82
426,065;4,73
426,32;4,75
426,576;4,79
426,832;4,74
427,088;4,77
427,344;4,78
427,6;4,83
427,856;4,77
428,112;4,72
428,368;4,73
428,623;4,78
428,879;4,79
429,135;4,78
429,391;4,8
429,646;4,77
429,902;4,79
430,158;4,81
430,414;4,81
430,669;4,88
430,925;4,87
431,181;4,86
431,436;4,97
431,692;4,96
431,947;4,95
432,203;4,94
432,458;4,92
432,714;4,93
432,97;4,94
433,225;5,01
433,481;5,07
433,736;5,08
433,991;5,06
434,247;5,02
434,502;5,04
434,758;5,09
435,013;5,09
435,268;5,08
435,524;5,08
435,779;5,02
436,034;4,98
436,29;5,02
436,545;4,97
436,8;4,93
437,056;4,9
437,311;4,87
437,566;4,89
437,821;4,88
438,076;4,84
438,331;4,83
438,587;4,81
438,842;4,79
439,097;4,84
439,352;4,87
439,607;4,87
439,862;4,85
440,117;4,82
440,372;4,84
440,627;4,86
440,882;4,85
441,137;4,93
441,392;4,95
441,647;4,92
441,902;4,99
442,157;4,97
442,412;4,98
442,667;5
442,921;5
443,176;5,03
443,431;5,03
443,686;5,03
443,941;5,01
444,195;5
444,45;4,92
444,705;4,92
444,96;4,97
445,214;4,96
445,469;4,93
445,724;4,94
445,978;4,98
446,233;5
446,487;5,01
446,742;5
446,997;5
447,251;5
447,506;5,01
447,76;5,01
448,015;5
448,269;5,06
448,524;5,06
448,778;5,08
449,033;5,07
449,287;5,08
449,541;5,08
449,796;5,14
450,05;5,19
450,305;5,15
450,559;5,12
450,813;5,15
451,067;5,16
451,322;5,13
451,576;5,11
451,83;5,14
452,084;5,13
452,339;5,15
452,593;5,15
452,847;5,18
453,101;5,2
453,355;5,24
453,609;5,23
453,864;5,22
454,118;5,17
454,372;5,17
454,626;5,2
454,88;5,26
455,134;5,24
455,388;5,22
455,642;5,24
455,896;5,31
456,15;5,29
456,404;5,27
456,658;5,22
456,912;5,21
457,165;5,13
457,419;5,15
457,673;5,1
457,927;5,03
458,181;5
458,435;4,98
458,688;4,95
458,942;4,93
459,196;4,93
459,45;4,94
459,703;4,93
459,957;4,9
460,211;4,88
460,464;4,89
460,718;4,88
460,972;4,87
461,225;4,81
461,479;4,83
461,732;4,83
461,986;4,83
462,239;4,82
462,493;4,85
462,746;4,89
463;4,89
463,253;4,95
463,507;4,91
463,76;4,91
464,014;4,91
464,267;4,94
464,52;4,93
464,774;4,93
465,027;4,95
465,28;4,97
465,534;4,91
465,787;4,91
466,04;4,89
466,294;4,88
466,547;4,91
466,8;4,92
467,053;4,92
467,306;4,97
467,56;4,99
467,813;4,97
468,066;4,93
468,319;4,94
468,572;4,94
468,825;5
469,078;5,01
469,331;4,97
469,584;4,92
469,837;4,92
470,09;4,94
470,343;4,93
470,596;4,93
470,849;4,95
471,102;4,9
471,355;4,93
471,608;4,95
471,861;4,97
472,114;4,98
472,367;4,96
472,619;4,97
472,872;4,96
473,125;4,96
473,378;4,96
473,631;4,98
473,883;4,94
474,136;4,94
474,389;4,96
474,641;5
474,894;4,99
475,147;4,99
475,399;4,98
475,652;4,97
475,905;4,97
476,157;5,01
476,41;5,05
476,662;5,04
476,915;5,02
477,167;4,99
477,42;4,99
477,672;5,01
477,925;4,98
478,177;5,03
478,43;5,06
478,682;5,06
478,934;5,03
479,187;5,09
479,439;5,1
479,691;5,11
479,944;5,13
480,196;5,16
480,448;5,17
480,701;5,19
480,953;5,19
481,205;5,21
481,457;5,18
481,709;5,16
481,962;5,15
482,214;5,18
482,466;5,21
482,718;5,23
482,97;5,26
483,222;5,29
483,474;5,3
483,726;5,29
483,978;5,32
484,23;5,37
484,482;5,36
484,734;5,36
484,986;5,36
485,238;5,35
485,49;5,35
485,742;5,34
485,994;5,35
486,246;5,38
486,498;5,38
486,75;5,39
487,001;5,42
487,253;5,44
487,505;5,44
487,757;5,44
488,009;5,43
488,26;5,43
488,512;5,45
488,764;5,43
489,015;5,44
489,267;5,45
489,519;5,42
489,77;5,44
490,022;5,45
490,274;5,46
490,525;5,49
490,777;5,49
491,028;5,51
491,28;5,54
491,531;5,55
491,783;5,56
492,034;5,6
492,286;5,62
492,537;5,66
492,789;5,69
493,04;5,71
493,291;5,72
493,543;5,73
493,794;5,73
494,045;5,77
494,297;5,79
494,548;5,81
494,799;5,81
495,051;5,82
495,302;5,85
495,553;5,87
495,804;5,89
496,056;5,91
496,307;5,93
496,558;5,94
496,809;5,96
497,06;6
497,311;5,99
497,562;5,99
497,813;6
498,064;6,02
498,316;6,03
498,567;6,06
498,818;6,06
499,069;6,09
499,319;6,11
499,57;6,13
499,821;6,17
500,072;6,23
500,323;6,25
500,574;6,27
500,825;6,3
501,076;6,34
501,327;6,39
501,577;6,45
501,828;6,47
502,079;6,51
502,33;6,54
502,58;6,58
502,831;6,63
503,082;6,64
503,333;6,71
503,583;6,78
503,834;6,85
504,084;6,91
504,335;6,99
504,586;7,04
504,836;7,1
505,087;7,15
505,337;7,22
505,588;7,28
505,838;7,34
506,089;7,42
506,339;7,48
506,59;7,55
506,84;7,61
507,091;7,72
507,341;7,79
507,591;7,87
507,842;7,96
508,092;8,05
508,343;8,15
508,593;8,2
508,843;8,27
509,093;8,33
509,344;8,41
509,594;8,48
509,844;8,56
510,094;8,63
510,345;8,71
510,595;8,78
510,845;8,85
511,095;8,92
511,345;8,99
511,595;9,04
511,845;9,1
512,095;9,15
512,345;9,18
512,595;9,23
512,845;9,29
513,095;9,37
513,345;9,43
513,595;9,5
513,845;9,54
514,095;9,59
514,345;9,67
514,595;9,74
514,845;9,78
515,095;9,83
515,345;9,87
515,594;9,9
515,844;9,93
516,094;10
516,344;10,04
516,593;10,07
516,843;10,11
517,093;10,15
517,343;10,18
517,592;10,24
517,842;10,31
518,092;10,38
518,341;10,35
518,591;10,4
518,84;10,41
519,09;10,45
519,34;10,48
519,589;10,49
519,839;10,51
520,088;10,53
520,338;10,53
520,587;10,58
520,836;10,59
521,086;10,6
521,335;10,6
521,585;10,61
521,834;10,65
522,083;10,66
522,333;10,69
522,582;10,72
522,831;10,74
523,081;10,71
523,33;10,67
523,579;10,72
523,828;10,71
524,078;10,7
524,327;10,69
524,576;10,7
524,825;10,71
525,074;10,73
525,323;10,74
525,573;10,77
525,822;10,79
526,071;10,81
526,32;10,84
526,569;10,86
526,818;10,86
527,067;10,87
527,316;10,9
527,565;10,93
527,814;10,93
528,063;10,94
528,312;10,96
528,56;10,98
528,809;10,98
529,058;11,02
529,307;11,05
529,556;11,08
529,805;11,11
530,053;11,12
530,302;11,14
530,551;11,17
530,8;11,17
531,048;11,2
531,297;11,23
531,546;11,24
531,794;11,24
532,043;11,25
532,292;11,25
532,54;11,26
532,789;11,26
533,037;11,27
533,286;11,27
533,535;11,27
533,783;11,3
534,032;11,33
534,28;11,31
534,528;11,32
534,777;11,34
535,025;11,35
535,274;11,36
535,522;11,36
535,771;11,36
536,019;11,37
536,267;11,35
536,516;11,34
536,764;11,38
537,012;11,39
537,26;11,41
537,509;11,44
537,757;11,44
538,005;11,45
538,253;11,46
538,501;11,47
538,75;11,48
538,998;11,5
539,246;11,48
539,494;11,5
539,742;11,51
539,99;11,53
540,238;11,53
540,486;11,54
540,734;11,54
540,982;11,54
541,23;11,55
541,478;11,56
541,726;11,58
541,974;11,56
542,222;11,59
542,47;11,6
542,718;11,61
542,966;11,62
543,213;11,61
543,461;11,63
543,709;11,65
543,957;11,69
544,205;11,69
544,452;11,71
544,7;11,71
544,948;11,75
545,196;11,74
545,443;11,77
545,691;11,78
545,939;11,82
546,186;11,85
546,434;11,87
546,681;11,89
546,929;11,91
547,176;11,92
547,424;11,94
547,671;11,95
547,919;11,96
548,166;11,99
548,414;12,03
548,661;12,06
548,909;12,08
549,156;12,08
549,404;12,08
549,651;12,1
549,898;12,14
550,146;12,16
550,393;12,2
550,64;12,23
550,888;12,25
551,135;12,26
551,382;12,28
551,629;12,29
551,876;12,32
552,124;12,35
552,371;12,4
552,618;12,41
552,865;12,45
553,112;12,47
553,359;12,5
553,606;12,53
553,854;12,54
554,101;12,57
554,348;12,61
554,595;12,66
554,842;12,7
555,089;12,72
555,336;12,76
555,582;12,79
555,829;12,82
556,076;12,84
556,323;12,88
556,57;12,9
556,817;12,95
557,064;12,99
557,311;13,02
557,557;13,02
557,804;13,08
558,051;13,1
558,298;13,15
558,544;13,19
558,791;13,21
559,038;13,23
559,284;13,26
559,531;13,27
559,778;13,29
560,024;13,31
560,271;13,34
560,517;13,36
560,764;13,41
561,011;13,44
561,257;13,46
561,504;13,5
561,75;13,54
561,997;13,56
562,243;13,6
562,489;13,63
562,736;13,68
562,982;13,72
563,229;13,79
563,475;13,84
563,721;13,89
563,968;13,97
564,214;14,05
564,46;14,14
564,707;14,24
564,953;14,29
565,199;14,36
565,445;14,44
565,691;14,53
565,938;14,59
566,184;14,68
566,43;14,78
566,676;14,86
566,922;14,98
567,168;15,06
567,414;15,14
567,66;15,24
567,906;15,33
568,152;15,43
568,398;15,52
568,644;15,64
568,89;15,73
569,136;15,82
569,382;15,9
569,628;15,98
569,874;16,06
570,12;16,18
570,366;16,26
570,612;16,37
570,857;16,46
571,103;16,56
571,349;16,64
571,595;16,74
571,84;16,83
572,086;16,9
572,332;17,03
572,578;17,12
572,823;17,22
573,069;17,33
573,315;17,42
573,56;17,54
573,806;17,62
574,051;17,76
574,297;17,85
574,542;17,99
574,788;18,12
575,034;18,26
575,279;18,37
575,524;18,48
575,77;18,59
576,015;18,73
576,261;18,84
576,506;18,99
576,752;19,11
576,997;19,23
577,242;19,37
577,488;19,49
577,733;19,62
577,978;19,76
578,223;19,9
578,469;20,06
578,714;20,19
578,959;20,32
579,204;20,46
579,45;20,61
579,695;20,74
579,94;20,86
580,185;20,97
580,43;21,1
580,675;21,23
580,92;21,36
581,165;21,49
581,41;21,63
581,655;21,76
581,9;21,91
582,145;22,06
582,39;22,2
582,635;22,35
582,88;22,5
583,125;22,66
583,37;22,81
583,615;22,92
583,86;23,1
584,105;23,28
584,349;23,44
584,594;23,62
584,839;23,79
585,084;23,97
585,328;24,17
585,573;24,36
585,818;24,54
586,063;24,7
586,307;24,85
586,552;24,99
586,797;25,16
587,041;25,32
587,286;25,49
587,53;25,67
587,775;25,86
588,019;26,04
588,264;26,23
588,508;26,41
588,753;26,65
588,997;26,84
589,242;27,03
589,486;27,24
589,731;27,46
589,975;27,67
590,22;27,89
590,464;28,11
590,708;28,34
590,953;28,54
591,197;28,76
591,441;29,01
591,685;29,25
591,93;29,47
592,174;29,68
592,418;29,91
592,662;30,13
592,907;30,32
593,151;30,53
593,395;30,71
593,639;30,93
593,883;31,13
594,127;31,32
594,371;31,51
594,615;31,71
594,859;31,91
595,103;32,14
595,347;32,35
595,591;32,58
595,835;32,8
596,079;33,06
596,323;33,3
596,567;33,53
596,811;33,73
597,055;33,97
597,299;34,19
597,542;34,43
597,786;34,67
598,03;34,92
598,274;35,15
598,518;35,38
598,761;35,58
599,005;35,79
599,249;36,04
599,492;36,28
599,736;36,5
599,98;36,73
600,223;36,94
600,467;37,17
600,711;37,36
600,954;37,58
601,198;37,8
601,441;38,01
601,685;38,23
601,928;38,49
602,172;38,71
602,415;38,96
602,659;39,19
602,902;39,38
603,145;39,6
603,389;39,81
603,632;40,04
603,876;40,3
604,119;40,51
604,362;40,72
604,606;40,92
604,849;41,15
605,092;41,36
605,335;41,58
605,579;41,77
605,822;41,97
606,065;42,16
606,308;42,36
606,551;42,56
606,794;42,77
607,037;42,95
607,281;43,14
607,524;43,33
607,767;43,51
608,01;43,7
608,253;43,88
608,496;44,08
608,739;44,25
608,982;44,43
609,225;44,6
609,468;44,76
609,711;44,92
609,953;45,1
610,196;45,3
610,439;45,46
610,682;45,66
610,925;45,83
611,168;46,02
611,41;46,18
611,653;46,31
611,896;46,47
612,139;46,62
612,381;46,8
612,624;46,94
612,867;47,08
613,109;47,22
613,352;47,37
613,595;47,5
613,837;47,65
614,08;47,77
614,322;47,93
614,565;48,1
614,807;48,24
615,05;48,34
615,292;48,44
615,535;48,57
615,777;48,69
616,02;48,82
616,262;48,94
616,505;49,07
616,747;49,23
616,989;49,36
617,232;49,49
617,474;49,61
617,716;49,72
617,959;49,85
618,201;49,97
618,443;50,09
618,685;50,19
618,927;50,32
619,17;50,42
619,412;50,55
619,654;50,62
619,896;50,72
620,138;50,82
620,38;50,91
620,622;51,01
620,864;51,1
621,107;51,18
621,349;51,27
621,591;51,35
621,833;51,45
622,075;51,51
622,316;51,61
622,558;51,69
622,8;51,8
623,042;51,89
623,284;51,98
623,526;52,06
623,768;52,12
624,01;52,21
624,251;52,31
624,493;52,37
624,735;52,45
624,977;52,54
625,218;52,62
625,46;52,7
625,702;52,76
625,943;52,83
626,185;52,9
626,427;52,96
626,668;53,05
626,91;53,12
627,152;53,2
627,393;53,26
627,635;53,3
627,876;53,34
628,118;53,42
628,359;53,49
628,601;53,52
628,842;53,61
629,084;53,63
629,325;53,65
629,566;53,71
629,808;53,77
630,049;53,82
630,29;53,86
630,532;53,93
630,773;53,97
631,014;54,03
631,256;54,1
631,497;54,17
631,738;54,17
631,979;54,19
632,22;54,24
632,462;54,25
632,703;54,29
632,944;54,34
633,185;54,37
633,426;54,41
633,667;54,49
633,908;54,49
634,149;54,56
634,39;54,63
634,631;54,68
634,872;54,72
635,113;54,76
635,354;54,79
635,595;54,79
635,836;54,83
636,077;54,87
636,318;54,9
636,559;54,94
636,8;55,02
637,04;55,08
637,281;55,09
637,522;55,12
637,763;55,13
638,003;55,15
638,244;55,15
638,485;55,18
638,726;55,18
638,966;55,22
639,207;55,23
639,448;55,24
639,688;55,27
639,929;55,31
640,169;55,34
640,41;55,36
640,65;55,42
640,891;55,42
641,131;55,43
641,372;55,45
641,612;55,45
641,853;55,49
642,093;55,49
642,334;55,56
642,574;55,64
642,814;55,68
643,055;55,71
643,295;55,78
643,535;55,8
643,776;55,86
644,016;55,88
644,256;55,9
644,496;55,93
644,737;55,96
644,977;55,98
645,217;56
645,457;56,05
645,697;56,04
645,938;56,09
646,178;56,16
646,418;56,2
646,658;56,25
646,898;56,23
647,138;56,27
647,378;56,25
647,618;56,23
647,858;56,23
648,098;56,27
648,338;56,26
648,578;56,28
648,818;56,28
649,057;56,31
649,297;56,32
649,537;56,34
649,777;56,33
650,017;56,34
650,257;56,35
650,496;56,36
650,736;56,4
650,976;56,41
661,028;56,75
661,267;56,86
661,506;56,93
661,744;56,98
661,983;57,04
662,222;57,08
662,461;57,15
662,7;57,16
662,939;57,16
663,177;57,14
663,416;57,11
663,655;57,12
663,894;57,08
664,132;57,1
664,371;57,1
664,61;57,1
664,848;57,12
665,087;57,12
665,326;57,16
665,564;57,16
665,803;57,15
666,041;57,16
666,28;57,19
666,518;57,23
666,757;57,22
666,995;57,22
667,234;57,23
667,472;57,22
667,711;57,22
667,949;57,27
668,187;57,29
668,426;57,31
668,664;57,33
668,902;57,35
669,141;57,32
669,379;57,29
669,617;57,3
669,856;57,32
670,094;57,31
670,332;57,3
670,57;57,31
670,808;57,32
671,046;57,34
671,285;57,35
671,523;57,33
671,761;57,37
671,999;57,39
672,237;57,4
672,475;57,44
672,713;57,46
672,951;57,47
673,189;57,47
673,427;57,47
673,665;57,46
673,903;57,49
674,141;57,55
674,379;57,63
674,617;57,65
674,854;57,66
675,092;57,69
675,33;57,7
675,568;57,72
675,806;57,78
676,043;57,8
676,281;57,8
676,519;57,86
676,756;57,87
676,994;57,88
677,232;57,9
677,469;57,89
677,707;57,93
677,945;57,95
678,182;57,99
678,42;58,04
678,657;58,07
678,895;58,08
679,132;58,08
679,37;58,04
679,607;58,04
679,845;58,02
680,082;58,04
680,32;58,06
680,557;58,06
680,794;58,04
681,032;58,05
681,269;58,06
681,507;58,05
681,744;58,07
681,981;58,13
682,218;58,09
682,456;58,08
682,693;58,11
682,93;58,1
683,167;58,08
683,404;58,07
683,642;58,05
683,879;58,04
684,116;58,08
684,353;58,12
684,59;58,11
684,827;58,14
685,064;58,09
685,301;58,09
685,538;58,09
685,775;58,07
686,012;58,08
686,249;58,1
686,486;58,09
686,723;58,12
686,96;58,1
687,197;58,12
687,433;58,14
687,67;58,16
687,907;58,17
688,144;58,16
688,381;58,19
688,617;58,19
688,854;58,22
689,091;58,19
689,327;58,21
689,564;58,24
689,801;58,24
690,037;58,3
690,274;58,32
690,511;58,33
690,747;58,37
690,984;58,33
691,22;58,33
691,457;58,35
691,693;58,36
691,93;58,34
692,166;58,39
692,403;58,4
692,639;58,37
692,876;58,38
693,112;58,41
693,348;58,41
693,585;58,44
693,821;58,46
694,057;58,48
694,294;58,49
694,53;58,5
694,766;58,51
695,002;58,5
695,239;58,54
695,475;58,54
695,711;58,53
695,947;58,6
696,183;58,6
696,419;58,64
696,656;58,62
696,892;58,63
697,128;58,65
697,364;58,63
697,6;58,64
697,836;58,64
698,072;58,66
698,308;58,71
698,544;58,73
698,78;58,72
699,016;58,71
699,251;58,73
699,487;58,77
699,723;58,77
699,959;58,8
700,195;58,78
700,431;58,79
700,666;58,75
700,902;58,75
701,138;58,78
701,374;58,76
701,609;58,77
701,845;58,81
702,081;58,81
702,316;58,86
702,552;58,87
702,788;58,9
703,023;58,91
703,259;58,88
703,494;58,94
703,73;58,96
703,965;59
704,201;59,01
704,436;58,97
704,672;59
704,907;58,99
705,143;59,02
705,378;59,06
705,613;59,14
705,849;59,12
706,084;59,13
706,319;59,14
706,555;59,16
706,79;59,17
707,025;59,19
707,26;59,23
707,496;59,27
707,731;59,29
707,966;59,32
708,201;59,32
708,436;59,3
708,671;59,31
708,907;59,32
709,142;59,35
709,377;59,38
709,612;59,42
709,847;59,46
710,082;59,5
710,317;59,49
710,552;59,52
710,787;59,56
711,022;59,56
711,257;59,59
711,492;59,64
711,726;59,65
711,961;59,68
712,196;59,67
712,431;59,68
712,666;59,69
712,901;59,71
713,135;59,74
713,37;59,79
713,605;59,8
713,839;59,85
714,074;59,86
714,309;59,87
714,543;59,88
714,778;59,91
715,013;59,94
715,247;60,02
715,482;60,01
715,716;60,02
715,951;60,08
716,185;60,11
716,42;60,12
716,654;60,14
716,889;60,15
717,123;60,16
717,358;60,15
717,592;60,21
717,827;60,21
718,061;60,21
718,295;60,18
718,53;60,24
718,764;60,23
718,998;60,27
719,232;60,28
719,467;60,27
719,701;60,25
719,935;60,24
720,169;60,24
720,403;60,26
720,638;60,3
720,872;60,28
721,106;60,28
721,34;60,3
721,574;60,35
721,808;60,37
722,042;60,37
722,276;60,43
722,51;60,43
722,744;60,47
722,978;60,5
723,212;60,5
723,446;60,52
723,68;60,54
723,914;60,56
724,147;60,61
724,381;60,64
724,615;60,7
724,849;60,68
725,083;60,7
725,316;60,72
725,55;60,76
725,784;60,87
726,018;60,89
726,251;60,96
726,485;60,98
726,719;61,05
726,952;61,1
727,186;61,16
727,419;61,19
727,653;61,25
727,887;61,34
728,12;61,45
728,354;61,45
728,587;61,5
728,821;61,49
729,054;61,54
729,287;61,63
729,521;61,63
729,754;61,75
729,988;61,77
730,221;61,88
730,454;61,9
730,688;61,9
730,921;61,95
731,154;61,92
731,387;61,94
731,621;61,96
731,854;61,96
732,087;61,97
732,32;61,99
732,553;62,01
732,787;62,02
733,02;62,01
733,253;62,04
733,486;62,07
733,719;62,13
733,952;62,14
734,185;62,1
734,418;62,12
734,651;62,11
734,884;62,17
735,117;62,13
735,35;62,13
735,583;62,13
735,816;62,16
736,049;62,2
736,281;62,27
736,514;62,28
736,747;62,36
736,98;62,36
737,213;62,38
737,445;62,36
737,678;62,39
737,911;62,4
738,144;62,43
738,376;62,5
738,609;62,57
738,842;62,62
739,074;62,67
739,307;62,74
739,539;62,79
739,772;62,81
740,004;62,88
740,237;62,94
740,469;62,97
740,702;62,95
740,934;62,99
741,167;62,97
741,399;62,98
741,632;62,96
741,864;63,03
742,096;63,07
742,329;63,13
742,561;63,12
742,793;63,15
743,026;63,19
743,258;63,21
743,49;63,17
743,723;63,16
743,955;63,17
744,187;63,19
744,419;63,19
744,651;63,15
744,883;63,18
745,115;63,18
745,348;63,21
745,58;63,25
745,812;63,3
746,044;63,35
746,276;63,38
746,508;63,48
746,74;63,46
746,972;63,52
747,204;63,56
747,436;63,62
747,667;63,69
747,899;63,75
748,131;63,8
748,363;63,85
748,595;63,9
748,827;63,97
749,058;63,99
749,29;63,97
749,522;64,06
749,754;64,04
749,985;64,06
750,217;64,11
750,449;64,13
750,68;64,13
750,912;64,15
751,144;64,22
751,375;64,2
751,607;64,22
751,838;64,25
752,07;64,27
752,301;64,29
752,533;64,33
752,764;64,31
752,996;64,3
753,227;64,31
753,459;64,29
753,69;64,28
753,921;64,33
754,153;64,37
754,384;64,41
754,615;64,49
754,847;64,52
755,078;64,54
755,309;64,58
755,54;64,63
755,772;64,62
756,003;64,59
756,234;64,6
756,465;64,64
756,696;64,6
756,927;64,62
757,159;64,62
757,39;64,62
757,621;64,66
757,852;64,65
758,083;64,7
758,314;64,74
758,545;64,77
758,776;64,79
759,007;64,84
759,238;64,86
759,469;64,83
759,699;64,86
759,93;64,87
760,161;64,9
760,392;64,91
760,623;64,93
760,854;64,93
761,084;64,88
761,315;64,91
761,546;64,94
761,776;64,96
762,007;64,95
762,238;64,95
762,468;64,95
762,699;65
762,93;64,97
763,16;64,97
763,391;64,95
763,621;64,98
763,852;65
764,083;64,99
764,313;65,02
764,543;65,01
764,774;65,06
765,004;65,02
765,235;65,04
765,465;65,07
765,696;65,1
765,926;65,16
766,156;65,14
766,387;65,17
766,617;65,19
766,847;65,24
767,077;65,26
767,308;65,27
767,538;65,32
767,768;65,33
767,998;65,36
768,228;65,41
768,459;65,37
768,689;65,36
768,919;65,39
769,149;65,4
769,379;65,43
769,609;65,43
769,839;65,48
770,069;65,49
770,299;65,48
770,529;65,51
770,759;65,53
770,989;65,54
771,219;65,52
771,449;65,53
771,678;65,56
771,908;65,56
772,138;65,54
772,368;65,53
772,598;65,54
772,827;65,58
773,057;65,56
773,287;65,64
773,517;65,68
773,746;65,62
773,976;65,65
774,206;65,6
774,435;65,59
774,665;65,61
774,894;65,61
775,124;65,62
775,354;65,62
775,583;65,59
775,813;65,63
776,042;65,64
776,272;65,63
776,501;65,6
776,73;65,63
776,96;65,67
777,189;65,7
777,419;65,73
777,648;65,69
777,877;65,67
778,107;65,64
778,336;65,65
778,565;65,68
778,794;65,67
779,024;65,73
779,253;65,74
779,482;65,73
779,711;65,73
779,94;65,73
780,17;65,7
780,399;65,73
780,628;65,75
780,857;65,76
781,086;65,76
781,315;65,75
781,544;65,77
781,773;65,77
782,002;65,74
782,231;65,75
782,46;65,79
782,689;65,82
782,918;65,83
783,147;65,81
783,375;65,76
783,604;65,83
783,833;65,86
784,062;65,84
784,291;65,86
784,519;65,86
784,748;65,88
784,977;65,86
785,206;65,9
785,434;65,87
785,663;65,86
785,892;65,86
786,12;65,9
786,349;65,9
786,577;65,89
786,806;65,89
787,034;65,89
787,263;65,87
787,492;65,91
787,72;65,92
787,948;65,91
788,177;65,92
788,405;65,89
788,634;65,85
788,862;65,85
789,09;65,78
789,319;65,75
789,547;65,76
789,775;65,82
790,004;65,8
790,232;65,82
790,46;65,8
790,688;65,79
790,917;65,74
791,145;65,69
791,373;65,69
791,601;65,72
791,829;65,71
792,057;65,68
792,286;65,68
792,514;65,68
792,742;65,67
792,97;65,73
793,198;65,64
793,426;65,63
793,654;65,61
793,882;65,64
794,109;65,68
794,337;65,68
794,565;65,64
794,793;65,66
795,021;65,62
795,249;65,6
795,477;65,63
795,704;65,64
795,932;65,64
796,16;65,7
796,388;65,66
796,615;65,62
796,843;65,64
797,071;65,58
797,298;65,56
797,526;65,52
797,754;65,48
797,981;65,49
798,209;65,47
798,436;65,46
798,664;65,47
798,891;65,45
799,119;65,39
799,346;65,38
799,574;65,34
799,801;65,38
800,029;65,42
800,256;65,45
800,483;65,46
800,711;65,46
800,938;65,37
801,165;65,36
801,393;65,39
801,62;65,39
801,847;65,44
802,074;65,43
802,302;65,45
802,529;65,47
802,756;65,53
802,983;65,56
803,21;65,61
803,437;65,61
803,665;65,61
803,892;65,66
804,119;65,59
804,346;65,61
804,573;65,59
804,8;65,55
805,027;65,44
805,254;65,42
805,481;65,44
805,708;65,41
805,934;65,36
806,161;65,4
806,388;65,35
806,615;65,29
806,842;65,34
807,069;65,32
807,295;65,29
807,522;65,26
807,749;65,26
807,976;65,22
808,202;65,25
808,429;65,21
808,656;65,2
808,882;65,3
809,109;65,28
809,335;65,27
809,562;65,29
809,789;65,31
810,015;65,33
810,242;65,29
810,468;65,35
810,695;65,38
810,921;65,34
811,147;65,33
811,374;65,35
811,6;65,33
811,827;65,34
812,053;65,35
812,279;65,34
812,506;65,28
812,732;65,26
812,958;65,22
813,185;65,23
813,411;65,22
813,637;65,16
813,863;65,2
814,089;65,21
814,315;65,23
814,542;65,27
814,768;65,21
814,994;65,19
815,22;65,17
815,446;65,2
815,672;65,24
815,898;65,26
816,124;65,21
816,35;65,17
816,576;65,2
816,802;65,17
817,028;65,12
817,254;65,18
817,48;65,16
817,705;65,11
817,931;65,14
818,157;65,14
818,383;65,15
818,609;65,12
818,834;65,14
819,06;65,08
819,286;65,04
819,512;65,1
819,737;65,06
819,963;65,07
820,189;64,99
820,414;64,93
820,64;64,88
820,865;64,95
821,091;64,88
821,316;64,77
821,542;64,74
821,767;64,85
821,993;64,81
822,218;64,86
822,444;64,89
822,669;64,87
822,895;64,87
823,12;64,87
823,345;64,86
823,571;64,78
823,796;64,82
824,021;64,79
824,247;64,8
824,472;64,86
824,697;64,8
824,922;64,87
825,147;64,83
825,373;64,87
825,598;64,81
825,823;64,84
826,048;64,93
826,273;64,95
826,498;64,93
826,723;64,86
826,948;64,81
827,173;64,8
827,398;64,82
827,623;64,83
827,848;64,81
828,073;64,75
828,298;64,72
828,523;64,69
828,748;64,68
828,973;64,53
829,197;64,49
829,422;64,49
829,647;64,43
829,872;64,44
830,097;64,47
830,321;64,49
830,546;64,45
830,771;64,38
830,995;64,41
831,22;64,41
831,445;64,47
831,669;64,57
831,894;64,5
832,118;64,46
832,343;64,38
832,567;64,43
832,792;64,52
833,016;64,56
833,241;64,5
833,465;64,51
833,69;64,58
833,914;64,61
834,139;64,62
834,363;64,67
834,587;64,66
834,812;64,63
835,036;64,64
835,26;64,69
835,485;64,71
835,709;64,69
835,933;64,62
836,157;64,58
836,381;64,55
836,606;64,61
836,83;64,54
837,054;64,61
837,278;64,5
837,502;64,39
837,726;64,41
837,95;64,46
838,174;64,44
838,398;64,46
838,622;64,46
838,846;64,48
839,07;64,42
839,294;64,42
839,518;64,38
839,742;64,31
839,966;64,31
840,189;64,29
840,413;64,31
840,637;64,3
840,861;64,29
841,085;64,19
841,308;64,12
841,532;64,15
841,756;64,13
841,979;64,11
842,203;64,19
842,427;64,12
842,65;64,14
842,874;64,19
843,098;64,1
843,321;64,05
843,545;64,06
843,768;63,98
843,992;63,94
844,215;63,89
844,439;63,88
844,662;63,82
844,886;63,8
845,109;63,8
845,332;63,77
845,556;63,71
845,779;63,68
846,002;63,69
846,226;63,7
846,449;63,59
846,672;63,63
846,895;63,58
847,119;63,53
847,342;63,47
847,565;63,42
847,788;63,42
848,011;63,43
848,234;63,36
848,457;63,37
848,681;63,38
848,904;63,41
849,127;63,43
849,35;63,52
849,573;63,51
849,796;63,51
850,019;63,5
850,241;63,54
850,464;63,56
850,687;63,6
850,91;63,6
851,133;63,67
851,356;63,64
851,579;63,62
851,801;63,66
852,024;63,68
852,247;63,63
852,47;63,59
852,692;63,52
852,915;63,53
853,138;63,54
853,36;63,55
853,583;63,46
853,806;63,41
854,028;63,32
854,251;63,28
854,473;63,29
854,696;63,33
854,918;63,39
855,141;63,44
855,363;63,43
855,586;63,46
855,808;63,36
856,031;63,39
856,253;63,42
856,475;63,4
856,698;63,31
856,92;63,34
857,142;63,37
857,365;63,46
857,587;63,46
857,809;63,48
858,031;63,5
858,253;63,5
858,476;63,58
858,698;63,53
858,92;63,5
859,142;63,48
859,364;63,45
859,586;63,4
859,808;63,37
860,03;63,36
860,252;63,36
860,474;63,5
860,696;63,53
860,918;63,41
861,14;63,38
861,362;63,42
861,584;63,45
861,806;63,44
862,028;63,37
862,25;63,29
862,471;63,29
862,693;63,24
862,915;63,29
863,137;63,16
863,358;63,15
863,58;63,21
863,802;63,12
864,024;63,13
864,245;63,13
864,467;63,12
864,688;63,09
864,91;63,05
865,132;62,91
865,353;62,8
865,575;62,91
865,796;62,9
866,018;62,93
866,239;62,91
866,461;62,9
866,682;62,91
866,903;62,91
867,125;62,91
867,346;62,96
867,567;62,93
867,789;62,95
868,01;63,02
868,231;62,92
868,453;62,98
868,674;62,99
868,895;62,97
869,116;62,94
869,337;62,96
869,559;62,89
869,78;62,91
870,001;62,9
870,222;62,85
870,443;62,91
870,664;62,89
870,885;62,89
871,106;62,92
871,327;63,01
871,548;63,02
871,769;62,98
871,99;62,92
872,211;62,88
872,432;62,89
872,653;62,81
872,874;62,95
873,094;62,88
873,315;62,89
873,536;62,82
873,757;62,77
873,978;62,74
874,198;62,63
874,419;62,56
874,64;62,6
874,86;62,5
875,081;62,35
875,302;62,39
875,522;62,34
875,743;62,33
875,963;62,21
876,184;62,21
876,404;62,19
876,625;62,24
876,845;62,32
877,066;62,25
877,286;62,31
877,507;62,2
877,727;62,2
877,947;62,17
878,168;62,12
878,388;62,19
878,609;62,14
878,829;62,26
879,049;62,34
879,269;62,32
879,49;62,35
879,71;62,4
879,93;62,36
880,15;62,28
880,37;62,2
880,59;62,14
880,811;62,18
881,031;62,14
881,251;62,07
881,471;62,11
881,691;62,17
881,911;62,1
882,131;62,14
882,351;62,12
882,571;62,05
882,791;62,1
883,011;62,04
883,23;62,02
883,45;62,04
883,67;62,09
883,89;62,03
884,11;62
884,33;61,94
884,549;61,86
884,769;61,89
884,989;61,92
885,209;62,07
885,428;62,06
885,648;62,04
885,868;62
886,087;61,95
886,307;61,93
886,526;61,96
886,746;62,02
886,965;61,95
887,185;62,06
887,404;62,07
887,624;62,11
887,843;62,14
888,063;62,08
888,282;62,02
888,502;62,08
888,721;62,16
888,94;62,27
889,16;62,27
889,379;62,28
889,598;62,28
889,818;62,17
890,037;62,14
890,256;62,16
890,475;62,16
890,694;62,02
890,914;62
891,133;61,96
891,352;61,96
891,571;61,99
891,79;61,92
892,009;61,88
892,228;61,91
892,447;61,8
892,666;61,84
892,885;61,88
893,104;61,88
893,323;61,95
893,542;62,01
893,761;62,12
893,98;62,06
894,199;62,09
894,417;62,07
894,636;62,03
894,855;62,15
895,074;62,13
895,293;62,23
895,511;62,3
895,73;62,24
895,949;62,1
896,167;62,15
896,386;62,17
896,605;62,22
896,823;62,09
897,042;62,28
897,26;62,21
897,479;62,24
897,697;62,32
897,916;62,25
898,134;62,08
898,353;62,08
898,571;62,16
898,79;62,1
899,008;62,15
899,227;62,2
899,445;62,08
899,663;62,1
899,882;62,08
900,1;62,11
900,318;62,31
900,536;62,42
900,755;62,44
900,973;62,39
901,191;62,24
901,409;62,39
901,627;62,22
901,846;62,3
902,064;62,23
902,282;62,13
902,5;62,16
902,718;62,2
902,936;62,08
903,154;62,03
903,372;61,94
903,59;61,83
903,808;61,77
904,026;61,84
904,244;61,84
904,462;61,82
904,679;61,71
904,897;61,66
905,115;61,56
905,333;61,58
905,551;61,53
905,768;61,7
905,986;61,61
906,204;61,68
906,422;61,61
906,639;61,57
906,857;61,7
907,074;61,65
907,292;61,71
907,51;61,73
907,727;61,79
907,945;61,97
908,162;62
908,38;62,01
908,597;61,96
908,815;61,94
909,032;61,89
909,25;61,87
909,467;61,76
909,684;61,77
909,902;61,65
910,119;61,68
910,337;61,67
910,554;61,72
910,771;61,68
910,988;61,77
911,206;61,8
911,423;61,64
911,64;61,55
911,857;61,49
912,074;61,41
912,291;61,28
912,509;61,28
912,726;61,25
912,943;61,21
913,16;61,2
913,377;61,23
913,594;61,27
913,811;61,31
914,028;61,41
914,245;61,44
914,462;61,48
914,679;61,56
914,896;61,49
915,112;61,38
915,329;61,47
915,546;61,34
915,763;61,32
915,98;61,43
916,196;61,52
916,413;61,57
916,63;61,69
916,847;61,83
917,063;61,76
917,28;61,58
917,497;61,77
917,713;61,8
917,93;61,81
918,146;61,7
918,363;61,83
918,579;61,77
918,796;61,78
919,012;61,89
919,229;61,96
919,445;61,85
919,662;61,96
919,878;61,86
920,095;61,88
920,311;62,06
920,527;61,9
920,744;61,99
920,96;61,94
921,176;62
921,392;61,92
921,609;62,06
921,825;62,41
922,041;62,37
922,257;62,39
922,473;62,4
922,69;62,63
922,906;62,44
923,122;62,59
923,338;62,66
923,554;62,48
923,77;62,33
923,986;62,43
924,202;62,42
924,418;62,49
924,634;62,5
924,85;62,39
925,066;62,41
925,282;62,36
925,497;62,38
925,713;62,29
925,929;62,44
926,145;62,24
926,361;62,17
926,576;62,05
926,792;61,97
927,008;62,02
927,224;61,91
927,439;62,13
927,655;62,03
927,871;61,97
928,086;62,14
928,302;62,15
928,517;62,23
928,733;62,21
928,948;62,31
929,164;62,28
929,379;62,28
929,595;62,31
929,81;62,32
930,026;62,27
930,241;62,22
930,456;62,03
930,672;62,11
930,887;62,19
931,102;62,19
931,318;62,29
931,533;62,16
931,748;62,15
931,964;61,96
932,179;61,78
932,394;61,82
932,609;61,61
932,824;61,66
933,039;61,49
933,255;61,4
933,47;61,16
933,685;61,22
933,9;61,21
934,115;61,25
934,33;61,22
934,545;61,29
934,76;61,33
934,975;61,63
935,19;61,7
935,404;61,57
935,619;61,8
935,834;61,97
936,049;62,17
936,264;62,26
936,479;62,39
936,693;62,63
936,908;62,67
937,123;63,05
937,338;63,23
937,552;63,4
937,767;63,61
937,982;64,13
938,196;64,25
938,411;64,26
938,625;63,97
938,84;64,3
939,055;64,31
939,269;64,61
939,484;64,47
939,698;64,82
939,912;65,07
940,127;64,91
940,341;64,42
940,556;64,28
940,77;64,33
940,984;64,24
941,199;64,48
941,413;64,53
941,627;65,03
941,842;64,64
942,056;65,04
942,27;65,45
942,484;65,46
942,699;65,35
942,913;65,49
943,127;66,09
943,341;66,05
943,555;66,49
943,769;66,24
943,983;66,37
944,197;65,68
944,411;65,45
944,625;65,33
944,839;65,88
945,053;66,22
945,267;66,53
945,481;66,69
945,695;66,52
945,909;66,51
946,123;65,69
946,336;65,82
946,55;66,03
946,764;65,68
946,978;65,6
947,192;65,66
947,405;65,48
947,619;65,63
947,833;65,31
948,046;65,71
948,26;65,8
948,474;65,72
948,687;65,9
948,901;66,29
949,114;66,27
949,328;66,04
949,541;65,9
949,755;65,57
949,968;65,15
950,182;64,9
950,395;64,76
950,609;64,8
950,822;64,9
951,035;65,09
951,249;64,81
951,462;64,51
951,675;64,86
951,889;64,67
952,102;64,52
952,315;64,5
952,528;64,11
952,741;63,8
952,955;63,86
953,168;63,66
953,381;63,42
953,594;63,62
953,807;63,37
954,02;63,7
954,233;63,55
954,446;63,82
954,659;64,38
954,872;64,62
955,085;64,6
955,298;64,54
955,511;63,76
955,724;63,77
955,937;64,11
956,15;63,44
956,362;63,83
956,575;64,09
956,788;64,06
957,001;63,64
957,214;63,6
957,426;63,36
957,639;63,62
957,852;63,61
958,064;63,52
958,277;63,41
958,49;62,91
958,702;63,39
958,915;63,47
959,127;62,97
959,34;62,64
959,552;62,14
959,765;61,87
959,977;62,24
960,19;62,33
960,402;62,43
960,615;62,98
960,827;62,74
961,039;62,49
961,252;62,14
961,464;62,64
961,676;62,88
961,889;63
962,101;62,95
962,313;63,12
962,525;62,84
962,738;63,18
962,95;63,4
963,162;63,07
963,374;63,08
963,586;63,06
963,798;63,67
964,01;64,02
964,222;63,96
964,434;64,09
964,646;64,24
964,858;63,34
965,07;63,32
965,282;63,37
965,494;63,35
965,706;63,76
965,918;63,99
966,13;64,03
966,342;63,88
966,553;63,79
966,765;63,43
966,977;63,87
967,189;63,85
967,401;63,83
967,612;63,81
967,824;63,85
968,036;63,99
968,247;63,5
968,459;63,42
968,67;63,96
968,882;63,68
969,094;63,4
969,305;63,8
969,517;63,81
969,728;63,77
969,94;64,23
970,151;64,13
970,362;63,67
970,574;63,53
970,785;63,79
970,997;64,17
971,208;64,56
971,419;64,16
971,631;64,23
971,842;64,41
972,053;64,95
972,264;65,2
972,476;65,11
972,687;64,87
972,898;65,07
973,109;64,7
973,32;65,21
973,531;65,48
973,742;65,77
973,954;65,74
974,165;66,12
974,376;65,75
974,587;65,87
974,798;65,98
975,009;66,69
975,22;66,41
975,43;66,32
975,641;66,17
975,852;66,35
976,063;66,18
976,274;65,88
976,485;65,41
976,695;65,4
976,906;65,5
977,117;66,18
977,328;66,32
977,538;66,59
977,749;66,16
977,96;66,45
978,17;66,3
978,381;66,07
978,592;65,8
978,802;65,91
979,013;66,14
979,223;66,31
979,434;65,77
979,644;66,19
979,855;66,18
980,065;66,39
980,276;66,33
980,486;66,44
980,696;66,47
980,907;66,35
981,117;66,09
981,327;66,6
981,538;66,27
981,748;66,24
981,958;66,57
982,169;66,39
982,379;66,14
982,589;66,08
982,799;66,23
983,009;66,47
983,219;66,75
983,43;66,17
983,64;65,85
983,85;66,27
984,06;66,1
984,27;65,87
984,48;65,9
984,69;65,81
984,9;65,57
985,11;66,28
985,32;66,48
985,529;66,21
985,739;65,85
985,949;65,89
986,159;65,78
986,369;65,62
986,579;66,08
986,788;66,43
986,998;66,92
987,208;66,71
987,417;66,16
987,627;65,49
987,837;65,62
988,046;65,21
988,256;64,69
988,466;64,9
988,675;64,81
988,885;65,01
989,094;65,78
989,304;65,79
989,513;65,01
989,723;65,51
989,932;65,7
990,142;65,82
990,351;66,25
990,56;66,39
990,77;66,08
990,979;65,68
991,188;65,34
991,398;65,54
991,607;65,39
991,816;66,06
992,025;66,58
992,235;66,79
992,444;67,81
992,653;68,34
992,862;68,07
993,071;68,52
993,28;68,08
993,489;67,51
993,698;68,15
993,908;68,19
994,117;67,41
994,326;67,64
994,534;67,34
994,743;66,85
994,952;67,16
995,161;66,88
995,37;68,14
995,579;68,62
995,788;68,01
995,997;67,84
996,205;68,19
996,414;68,12
996,623;68,04
996,832;67,53
997,04;67,13
997,249;67,14
997,458;66,56
997,666;66,98
997,875;67,7
998,084;66,62
998,292;66,1
998,501;66,18
998,709;66,15
998,918;66,31
999,126;66,41
999,335;65,88
999,543;66,05
999,752;65,19
999,96;64,46
1000,169;63,76
1000,377;64,29
1000,585;63,51
1000,794;63,38
1001,002;63,51
1001,21;64,1
1001,418;64,27
1001,627;64,54
1001,835;65,41
1002,043;65,2
1002,251;64,33
1002,459;65,66
1002,668;66,22
1002,876;66,44
1003,084;66,7
1003,292;66,85
1003,5;66,59
1003,708;67,16
1003,916;66,78
1004,124;66,58
1004,332;66,95
1004,54;68,52
1004,748;68,53
1004,956;68,41
1005,163;67,86
1005,371;67,36
1005,579;67,27
1005,787;67,16
1005,995;67,05
1006,202;67,04
1006,41;67,17
1006,618;67,22
1006,826;66,7
1007,033;67,26
1007,241;67,56
1007,449;68,13
1007,656;67,82
1007,864;68,09
1008,071;68,2
1008,279;69,55
1008,486;69,51
1008,694;69,05
1008,901;68,38
1009,109;68,68
1009,316;69,38
1009,524;70,05
1009,731;70,91
1009,938;71,56
1010,146;71,87
1010,353;72,2
1010,56;71,03
1010,768;71,02
1010,975;72,52
1011,182;71,87
1011,389;71,06
1011,597;70,67
1011,804;70,34
1012,011;70,84
1012,218;70,65
1012,425;70,96
1012,632;70,04
1012,839;70,02
1013,046;69,96
1013,253;70,46
1013,46;70,64
1013,667;71,18
1013,874;71,36
1014,081;71,44
1014,288;70,09
1014,495;70,03
1014,702;69,11
1014,909;70,04
1015,116;69,29
1015,323;68,57
1015,529;69,36
1015,736;70,38
1015,943;70,58
1016,15;70,11
1016,356;70,45
1016,563;71,71
1016,77;71,59
1016,976;72,71
1017,183;73,21
1017,389;73,82
1017,596;73,29
1017,803;72,7
1018,009;72,17
1018,216;72,73
1018,422;71,86
1018,629;74,12
1018,835;74,1
1019,041;75,4
1019,248;75,09
1019,454;75,64
1019,661;74,47
1019,867;75,11
1020,073;75,14
1020,279;75,09
1020,486;74,56
1020,692;73,68
1020,898;72,43
1021,104;71,22
1021,311;71,11
1021,517;69,7
1021,723;71,02
1021,929;71,25
1022,135;72,02
1022,341;72,01
1022,547;72,82
1022,753;72,88
1022,959;69,89
1023,165;71,03
1023,371;71,12
1023,577;71,23
1023,783;71,61
1023,989;71,94
1024,195;71,9
1024,401;72,19
1024,607;71,37
1024,812;72,23
1025,018;73,33
1025,224;73,27
1025,43;74
1025,635;72,37
1025,841;75,28
1026,047;73,65
1026,252;74,12
1026,458;73,14
1026,664;73,44
1026,869;71,52
1027,075;72,33
1027,28;72,1
1027,486;71,85
1027,691;69,76
1027,897;70,52
1028,102;69,22
1028,308;68,65
1028,513;67,44
1028,719;66,02
1028,924;66,3
1029,129;65,89
1029,335;63,74
1029,54;64,51
1029,745;63,74
1029,95;63,66
1030,156;62,7
1030,361;64,04
1030,566;64,94
1030,771;66,06
1030,976;66,05
1031,182;67,03
1031,387;67,2
1031,592;68,8
1031,797;68,59
1032,002;69,09
1032,207;69,03
1032,412;70,15
1032,617;71,03
1032,822;70,77
1033,027;72,76
1033,232;73,29
1033,437;75,31
1033,642;78,06
1033,846;77,12
1034,051;78,42
1034,256;79,48
1034,461;78,43
1034,666;77,25
1034,87;75,02
1035,075;71,72
1035,28;70,23
1035,484;67,83
1035,689;66,13
1035,894;65,4
1036,098;63,72
1036,303;64,15
1036,507;64,56
1036,712;63,69
1036,917;64,55
1037,121;67,34
1037,325;65,48
1037,53;67,17
1037,734;65,14
1037,939;63,88
1038,143;64,44
1038,348;65,26
1038,552;65,97
1038,756;66,85
1038,961;66,29
1039,165;66,21
1039,369;68,03
1039,573;69,27
1039,778;71,03
1039,982;71,95
1040,186;71,11
1040,39;71,08
1040,594;71,19
1040,798;69,7
1041,002;70,57
1041,206;68,11
1041,41;66,77
1041,614;69,54
1041,818;69,06
1042,022;66,71
1042,226;66,06
1042,43;66,82
1042,634;64,44
1042,838;65,75
1043,042;64,96
1043,246;64,59
1043,45;65,25
1043,653;65,55
1043,857;65,05
1044,061;65,8
1044,265;64,26
1044,468;66,44
1044,672;67,55
1044,876;67,49
1045,079;64,38
1045,283;66,97
1045,487;67,28
1045,69;69,56
1045,894;68,08
1046,097;69,99
1046,301;72,23
1046,504;75,59
1046,708;74,14
1046,911;78,2
1047,115;74,92
1047,318;76,55
1047,522;78,74
1047,725;78,03
1047,928;78,66
1048,132;79,46
1048,335;82,14
1048,538;82,54
1048,741;84,12
1048,945;85,72
1049,148;86,83
1049,351;89,78
1049,554;91,45
1049,757;97,17
1049,96;94,58
1050,163;95,26
1050,367;93,24
1050,57;91,61
1050,773;89,75
1050,976;91,57
1051,179;89,74
1051,382;93,07
1051,585;93,56
1051,787;94,34
1051,99;95,8
1052,193;96,85
1052,396;98,79
1052,599;93,89
1052,802;96,39
1053,005;93,07
1053,207;89,64
1053,41;90,84
1053,613;87,22
1053,815;83,45
1054,018;79,32
1054,221;79,49
1054,423;78,43
1054,626;77,29
1054,829;79,81
1055,031;80,65
1055,234;79,5
1055,436;79,24
1055,639;75,51
1055,841;71,27
1056,044;69,33
1056,246;66,26
