3997,70175;1,9056
3995,6506;1,90811
3993,59944;1,91003
3991,54829;1,90984
3989,49713;1,90947
3987,44598;1,91227
3985,39482;1,91627
3983,34367;1,91736
3981,29251;1,91614
3979,24136;1,9158
3977,1902;1,91742
3975,13905;1,92046
3973,08789;1,92375
3971,03673;1,92665
3968,98558;1,92929
3966,93442;1,93213
3964,88327;1,93512
3962,83211;1,93752
3960,78096;1,9404
3958,7298;1,94487
3956,67865;1,94961
3954,62749;1,95272
3952,57634;1,9547
3950,52518;1,95717
3948,47403;1,95919
3946,42287;1,96046
3944,37172;1,96188
3942,32056;1,96345
3940,2694;1,9641
3938,21825;1,9633
3936,16709;1,96204
3934,11594;1,95935
3932,06478;1,95461
3930,01363;1,94889
3927,96247;1,94323
3925,91132;1,9379
3923,86016;1,93418
3921,80901;1,93161
3919,75785;1,92732
3917,7067;1,9205
3915,65554;1,9134
3913,60439;1,9078
3911,55323;1,90291
3909,50207;1,89967
3907,45092;1,89825
3905,39976;1,89635
3903,34861;1,89357
3901,29745;1,88893
3899,2463;1,88252
3897,19514;1,87992
3895,14399;1,88031
3893,09283;1,87845
3891,04168;1,8752
3888,99052;1,87368
3886,93937;1,86972
3884,88821;1,86742
3882,83706;1,86878
3880,7859;1,86747
3878,73474;1,86731
3876,68359;1,86761
3874,63243;1,86678
3872,58128;1,86783
3870,53012;1,86577
3868,47897;1,86399
3866,42781;1,86338
3864,37666;1,86036
3862,3255;1,85709
3860,27435;1,85571
3858,22319;1,85766
3856,17204;1,85835
3854,12088;1,85373
3852,06973;1,85121
3850,01857;1,85144
3847,96741;1,85003
3845,91626;1,84784
3843,8651;1,84661
3841,81395;1,84793
3839,76279;1,84965
3837,71164;1,85086
3835,66048;1,85231
3833,60933;1,85124
3831,55817;1,84829
3829,50702;1,84724
3827,45586;1,84737
3825,40471;1,84949
3823,35355;1,8501
3821,3024;1,84813
3819,25124;1,85036
3817,20008;1,84899
3815,14893;1,8459
3813,09777;1,84804
3811,04662;1,85125
3808,99546;1,85256
3806,94431;1,85306
3804,89315;1,85692
3802,842;1,85721
3800,79084;1,85496
3798,73969;1,85529
3796,68853;1,85448
3794,63738;1,85521
3792,58622;1,85664
3790,53506;1,85703
3788,48391;1,85766
3786,43275;1,85918
3784,3816;1,86185
3782,33044;1,86474
3780,27929;1,86521
3778,22813;1,86565
3776,17698;1,86736
3774,12582;1,86947
3772,07467;1,87154
3770,02351;1,87265
3767,97236;1,87352
3765,9212;1,87308
3763,87005;1,87429
3761,81889;1,87672
3759,76773;1,87932
3757,71658;1,88362
3755,66542;1,88751
3753,61427;1,88947
3751,56311;1,89183
3749,51196;1,89717
3747,4608;1,90228
3745,40965;1,90067
3743,35849;1,90261
3741,30734;1,91181
3739,25618;1,9195
3737,20503;1,92493
3735,15387;1,92833
3733,10272;1,92804
3731,05156;1,9274
3729,0004;1,93058
3726,94925;1,93648
3724,89809;1,94519
3722,84694;1,95202
3720,79578;1,95532
3718,74463;1,95881
3716,69347;1,965
3714,64232;1,97312
3712,59116;1,98331
3710,54001;1,99649
3708,48885;2,00988
3706,4377;2,02444
3704,38654;2,04331
3702,33539;2,06929
3700,28423;2,1037
3698,23307;2,13795
3696,18192;2,1643
3694,13076;2,18284
3692,07961;2,19084
3690,02845;2,18398
3687,9773;2,17192
3685,92614;2,17059
3683,87499;2,17795
3681,82383;2,18974
3679,77268;2,20245
3677,72152;2,21111
3675,67037;2,22312
3673,61921;2,25099
3671,56806;2,27851
3669,5169;2,2997
3667,46574;2,31879
3665,41459;2,33261
3663,36343;2,34665
3661,31228;2,36681
3659,26112;2,39011
3657,20997;2,41181
3655,15881;2,43844
3653,10766;2,47234
3651,0565;2,51177
3649,00535;2,56098
3646,95419;2,60633
3644,90304;2,63335
3642,85188;2,64655
3640,80073;2,65687
3638,74957;2,66263
3636,69841;2,66058
3634,64726;2,65911
3632,5961;2,66232
3630,54495;2,66005
3628,49379;2,65264
3626,44264;2,65271
3624,39148;2,66491
3622,34033;2,69065
3620,28917;2,71574
3618,23802;2,72427
3616,18686;2,72333
3614,13571;2,72328
3612,08455;2,72528
3610,0334;2,73156
3607,98224;2,74529
3605,93108;2,76075
3603,87993;2,77261
3601,82877;2,78852
3599,77762;2,81204
3597,72646;2,82984
3595,67531;2,83194
3593,62415;2,82644
3591,573;2,81723
3589,52184;2,80317
3587,47069;2,80039
3585,41953;2,81448
3583,36838;2,82461
3581,31722;2,82708
3579,26607;2,83157
3577,21491;2,83799
3575,16375;2,84543
3573,1126;2,85687
3571,06144;2,8712
3569,01029;2,88419
3566,95913;2,89674
3564,90798;2,90653
3562,85682;2,90569
3560,80567;2,90003
3558,75451;2,89968
3556,70336;2,9034
3554,6522;2,90654
3552,60105;2,90865
3550,54989;2,91687
3548,49874;2,9354
3546,44758;2,94536
3544,39642;2,93311
3542,34527;2,92245
3540,29411;2,93224
3538,24296;2,94825
3536,1918;2,94867
3534,14065;2,93868
3532,08949;2,94091
3530,03834;2,95757
3527,98718;2,96998
3525,93603;2,97009
3523,88487;2,96562
3521,83372;2,95945
3519,78256;2,95041
3517,73141;2,94952
3515,68025;2,9654
3513,62909;2,98202
3511,57794;2,97973
3509,52678;2,95821
3507,47563;2,93394
3505,42447;2,91937
3503,37332;2,91696
3501,32216;2,9279
3499,27101;2,94725
3497,21985;2,96381
3495,1687;2,97238
3493,11754;2,97512
3491,06639;2,97154
3489,01523;2,96918
3486,96407;2,97041
3484,91292;2,97273
3482,86176;2,9857
3480,81061;2,99919
3478,75945;2,99585
3476,7083;2,99374
3474,65714;3,00042
3472,60599;2,99459
3470,55483;2,98283
3468,50368;2,98895
3466,45252;2,99753
3464,40137;2,98857
3462,35021;2,98501
3460,29906;2,99757
3458,2479;3,00027
3456,19674;2,98752
3454,14559;2,97559
3452,09443;2,96823
3450,04328;2,96046
3447,99212;2,95593
3445,94097;2,96348
3443,88981;2,98298
3441,83866;3,00143
3439,7875;3,00358
3437,73635;2,99305
3435,68519;2,97842
3433,63404;2,97049
3431,58288;2,97884
3429,53173;2,98614
3427,48057;2,97405
3425,42941;2,96245
3423,37826;2,97551
3421,3271;3,0026
3419,27595;3,01826
3417,22479;3,02048
3415,17364;3,01564
3413,12248;2,99702
3411,07133;2,97567
3409,02017;2,97116
3406,96902;2,9754
3404,91786;2,98628
3402,86671;3,00375
3400,81555;3,00563
3398,7644;2,99191
3396,71324;2,98924
3394,66208;3,00318
3392,61093;3,0075
3390,55977;2,9923
3388,50862;2,98285
3386,45746;2,98344
3384,40631;2,98442
3382,35515;2,99318
3380,304;3,01228
3378,25284;3,02212
3376,20169;3,01815
3374,15053;3,01719
3372,09938;3,00669
3370,04822;2,98205
3367,99707;2,96792
3365,94591;2,97038
3363,89475;2,97551
3361,8436;2,97908
3359,79244;2,98862
3357,74129;3,00067
3355,69013;3,00628
3353,63898;3,00402
3351,58782;3,00209
3349,53667;3,00444
3347,48551;3,0005
3345,43436;2,9926
3343,3832;2,98636
3341,33205;2,98467
3339,28089;3,00156
3337,22974;3,03251
3335,17858;3,04619
3333,12742;3,03836
3331,07627;3,02391
3329,02511;3,0105
3326,97396;3,00567
3324,9228;3,01498
3322,87165;3,03499
3320,82049;3,04409
3318,76934;3,02904
3316,71818;3,00817
3314,66703;2,99493
3312,61587;2,99141
3310,56472;2,99187
3308,51356;2,98441
3306,46241;2,97478
3304,41125;2,9749
3302,36009;2,97707
3300,30894;2,96547
3298,25778;2,94749
3296,20663;2,94475
3294,15547;2,96408
3292,10432;2,98537
3290,05316;2,98322
3288,00201;2,96592
3285,95085;2,95144
3283,8997;2,94829
3281,84854;2,95396
3279,79739;2,9554
3277,74623;2,95123
3275,69508;2,94881
3273,64392;2,94759
3271,59276;2,95211
3269,54161;2,96928
3267,49045;2,98939
3265,4393;2,99813
3263,38814;2,98931
3261,33699;2,95999
3259,28583;2,92933
3257,23468;2,921
3255,18352;2,92489
3253,13237;2,92456
3251,08121;2,92703
3249,03006;2,93188
3246,9789;2,92825
3244,92775;2,9266
3242,87659;2,93521
3240,82543;2,9419
3238,77428;2,94335
3236,72312;2,93954
3234,67197;2,93124
3232,62081;2,92697
3230,56966;2,92319
3228,5185;2,9167
3226,46735;2,91903
3224,41619;2,93533
3222,36504;2,94225
3220,31388;2,92792
3218,26273;2,91927
3216,21157;2,93007
3214,16041;2,93692
3212,10926;2,9241
3210,0581;2,91412
3208,00695;2,91882
3205,95579;2,91584
3203,90464;2,89802
3201,85348;2,88613
3199,80233;2,88648
3197,75117;2,89307
3195,70002;2,90567
3193,64886;2,91561
3191,59771;2,91629
3189,54655;2,91669
3187,4954;2,9164
3185,44424;2,90687
3183,39308;2,89219
3181,34193;2,8834
3179,29077;2,8869
3177,23962;2,89933
3175,18846;2,91006
3173,13731;2,91551
3171,08615;2,91379
3169,035;2,90237
3166,98384;2,8954
3164,93269;2,89957
3162,88153;2,9017
3160,83038;2,90256
3158,77922;2,90869
3156,72807;2,91318
3154,67691;2,91235
3152,62575;2,90713
3150,5746;2,90364
3148,52344;2,90557
3146,47229;2,90443
3144,42113;2,90107
3142,36998;2,90649
3140,31882;2,91029
3138,26767;2,89696
3136,21651;2,87847
3134,16536;2,86957
3132,1142;2,86937
3130,06305;2,87543
3128,01189;2,88197
3125,96074;2,88263
3123,90958;2,88213
3121,85842;2,88
3119,80727;2,87312
3117,75611;2,86853
3115,70496;2,87137
3113,6538;2,87631
3111,60265;2,87495
3109,55149;2,87433
3107,50034;2,88449
3105,44918;2,89042
3103,39803;2,88116
3101,34687;2,86793
3099,29572;2,85517
3097,24456;2,84603
3095,19341;2,84905
3093,14225;2,85949
3091,09109;2,86681
3089,03994;2,86911
3086,98878;2,87007
3084,93763;2,8725
3082,88647;2,87389
3080,83532;2,86903
3078,78416;2,86055
3076,73301;2,85882
3074,68185;2,86541
3072,6307;2,8723
3070,57954;2,87602
3068,52839;2,87936
3066,47723;2,88012
3064,42608;2,86899
3062,37492;2,85234
3060,32376;2,85052
3058,27261;2,85929
3056,22145;2,86231
3054,1703;2,86333
3052,11914;2,86349
3050,06799;2,85725
3048,01683;2,85292
3045,96568;2,86145
3043,91452;2,8728
3041,86337;2,87041
3039,81221;2,86098
3037,76106;2,85775
3035,7099;2,86006
3033,65875;2,86295
3031,60759;2,8622
3029,55643;2,85225
3027,50528;2,83989
3025,45412;2,83591
3023,40297;2,83447
3021,35181;2,83143
3019,30066;2,83628
3017,2495;2,84285
3015,19835;2,83618
3013,14719;2,82385
3011,09604;2,81631
3009,04488;2,81493
3006,99373;2,8189
3004,94257;2,82383
3002,89142;2,82688
3000,84026;2,8314
2998,7891;2,83842
2996,73795;2,84529
2994,68679;2,85211
2992,63564;2,85539
2990,58448;2,86295
2988,53333;2,87569
2986,48217;2,87348
2984,43102;2,86676
2982,37986;2,87015
2980,32871;2,87136
2978,27755;2,87145
2976,2264;2,87675
2974,17524;2,87941
2972,12409;2,88319
2970,07293;2,89724
2968,02177;2,9094
2965,97062;2,90387
2963,91946;2,88843
2961,86831;2,87609
2959,81715;2,87122
2957,766;2,86972
2955,71484;2,86704
2953,66369;2,86758
2951,61253;2,87616
2949,56138;2,88365
2947,51022;2,87765
2945,45907;2,86393
2943,40791;2,85308
2941,35675;2,84933
2939,3056;2,85547
2937,25444;2,86702
2935,20329;2,87394
2933,15213;2,87688
2931,10098;2,877
2929,04982;2,87276
2926,99867;2,87297
2924,94751;2,87275
2922,89636;2,86213
2920,8452;2,86054
2918,79405;2,87578
2916,74289;2,87872
2914,69174;2,86117
2912,64058;2,8456
2910,58942;2,83747
2908,53827;2,83886
2906,48711;2,85223
2904,43596;2,86003
2902,3848;2,85202
2900,33365;2,83958
2898,28249;2,83163
2896,23134;2,83282
2894,18018;2,84189
2892,12903;2,84827
2890,07787;2,84587
2888,02672;2,83978
2885,97556;2,84044
2883,92441;2,85126
2881,87325;2,85839
2879,82209;2,85382
2877,77094;2,84901
2875,71978;2,85122
2873,66863;2,85778
2871,61747;2,86096
2869,56632;2,85886
2867,51516;2,85252
2865,46401;2,8373
2863,41285;2,82372
2861,3617;2,82813
2859,31054;2,83692
2857,25939;2,8336
2855,20823;2,82772
2853,15708;2,8249
2851,10592;2,82368
2849,05476;2,8195
2847,00361;2,80369
2844,95245;2,78125
2842,9013;2,76973
2840,85014;2,77214
2838,79899;2,7725
2836,74783;2,76418
2834,69668;2,75254
2832,64552;2,74144
2830,59437;2,73298
2828,54321;2,728
2826,49206;2,72435
2824,4409;2,71749
2822,38975;2,71381
2820,33859;2,7175
2818,28743;2,71709
2816,23628;2,71021
2814,18512;2,70484
2812,13397;2,70121
2810,08281;2,69648
2808,03166;2,68882
2805,9805;2,68115
2803,92935;2,67959
2801,87819;2,67972
2799,82704;2,67464
2797,77588;2,66968
2795,72473;2,66834
2793,67357;2,66511
2791,62242;2,65766
2789,57126;2,64997
2787,5201;2,64852
2785,46895;2,65189
2783,41779;2,65033
2781,36664;2,6454
2779,31548;2,64534
2777,26433;2,64825
2775,21317;2,64837
2773,16202;2,64227
2771,11086;2,63242
2769,05971;2,6248
2767,00855;2,62113
2764,9574;2,61944
2762,90624;2,61663
2760,85509;2,61477
2758,80393;2,61614
2756,75277;2,61732
2754,70162;2,61417
2752,65046;2,60644
2750,59931;2,6008
2748,54815;2,59855
2746,497;2,59443
2744,44584;2,59052
2742,39469;2,59049
2740,34353;2,59269
2738,29238;2,59396
2736,24122;2,59162
2734,19007;2,58918
2732,13891;2,59195
2730,08776;2,59373
2728,0366;2,5895
2725,98544;2,58299
2723,93429;2,5774
2721,88313;2,57595
2719,83198;2,57639
2717,78082;2,57352
2715,72967;2,56898
2713,67851;2,56509
2711,62736;2,56246
2709,5762;2,56339
2707,52505;2,56728
2705,47389;2,56909
2703,42274;2,56728
2701,37158;2,56482
2699,32043;2,56252
2697,26927;2,55683
2695,21811;2,54883
2693,16696;2,54572
2691,1158;2,54835
2689,06465;2,55065
2687,01349;2,54993
2684,96234;2,55023
2682,91118;2,55076
2680,86003;2,5483
2678,80887;2,54628
2676,75772;2,54511
2674,70656;2,54477
2672,65541;2,54632
2670,60425;2,54721
2668,55309;2,54687
2666,50194;2,54622
2664,45078;2,54579
2662,39963;2,54585
2660,34847;2,54412
2658,29732;2,53979
2656,24616;2,53732
2654,19501;2,54082
2652,14385;2,54782
2650,0927;2,554
2648,04154;2,55951
2645,99039;2,56501
2643,93923;2,56974
2641,88808;2,57516
2639,83692;2,58206
2637,78576;2,58964
2635,73461;2,59635
2633,68345;2,59922
2631,6323;2,60291
2629,58114;2,61188
2627,52999;2,62136
2625,47883;2,63091
2623,42768;2,64006
2621,37652;2,64349
2619,32537;2,64275
2617,27421;2,64359
2615,22306;2,65021
2613,1719;2,66034
2611,12075;2,66487
2609,06959;2,6627
2607,01843;2,66083
2604,96728;2,66146
2602,91612;2,6666
2600,86497;2,67441
2598,81381;2,67599
2596,76266;2,67244
2594,7115;2,67181
2592,66035;2,67597
2590,60919;2,68072
2588,55804;2,67988
2586,50688;2,67271
2584,45573;2,66693
2582,40457;2,66642
2580,35342;2,66721
2578,30226;2,67101
2576,2511;2,67736
2574,19995;2,67984
2572,14879;2,67817
2570,09764;2,67459
2568,04648;2,67203
2565,99533;2,67207
2563,94417;2,67305
2561,89302;2,67353
2559,84186;2,6741
2557,79071;2,67653
2555,73955;2,67863
2553,6884;2,68068
2551,63724;2,68554
2549,58609;2,68666
2547,53493;2,68261
2545,48377;2,68122
2543,43262;2,68222
2541,38146;2,68428
2539,33031;2,68997
2537,27915;2,70041
2535,228;2,71183
2533,17684;2,71881
2531,12569;2,72154
2529,07453;2,72606
2527,02338;2,73649
2524,97222;2,74643
2522,92107;2,75197
2520,86991;2,75784
2518,81876;2,76212
2516,7676;2,76139
2514,71644;2,76007
2512,66529;2,76056
2510,61413;2,76193
2508,56298;2,76599
2506,51182;2,76371
2504,46067;2,74722
2502,40951;2,73345
2500,35836;2,73173
2498,3072;2,727
2496,25605;2,71225
2494,20489;2,70288
2492,15374;2,70107
2490,10258;2,69266
2488,05143;2,67869
2486,00027;2,66671
2483,94911;2,65721
2481,89796;2,64677
2479,8468;2,63308
2477,79565;2,61727
2475,74449;2,60149
2473,69334;2,58954
2471,64218;2,58175
2469,59103;2,57238
2467,53987;2,56132
2465,48872;2,55331
2463,43756;2,54653
2461,38641;2,53829
2459,33525;2,52986
2457,2841;2,52148
2455,23294;2,51165
2453,18178;2,50181
2451,13063;2,49594
2449,07947;2,49346
2447,02832;2,49158
2444,97716;2,49006
2442,92601;2,48674
2440,87485;2,47904
2438,8237;2,47044
2436,77254;2,46393
2434,72139;2,4577
2432,67023;2,45225
2430,61908;2,4505
2428,56792;2,44995
2426,51677;2,44576
2424,46561;2,43812
2422,41445;2,43068
2420,3633;2,42813
2418,31214;2,42956
2416,26099;2,4295
2414,20983;2,42675
2412,15868;2,4232
2410,10752;2,42028
2408,05637;2,41788
2406,00521;2,41731
2403,95406;2,41993
2401,9029;2,42363
2399,85175;2,42396
2397,80059;2,42023
2395,74944;2,41562
2393,69828;2,41263
2391,64712;2,41121
2389,59597;2,41126
2387,54481;2,41077
2385,49366;2,40739
2383,4425;2,40382
2381,39135;2,40319
2379,34019;2,4037
2377,28904;2,40259
2375,23788;2,39972
2373,18673;2,39707
2371,13557;2,39604
2369,08442;2,39725
2367,03326;2,40247
2364,9821;2,41003
2362,93095;2,41405
2360,87979;2,41133
2358,82864;2,40489
2356,77748;2,401
2354,72633;2,40359
2352,67517;2,40859
2350,62402;2,4083
2348,57286;2,40316
2346,52171;2,39771
2344,47055;2,39444
2342,4194;2,39435
2340,36824;2,39659
2338,31709;2,3997
2336,26593;2,40169
2334,21477;2,40091
2332,16362;2,40009
2330,11246;2,40253
2328,06131;2,40759
2326,01015;2,41229
2323,959;2,41344
2321,90784;2,41022
2319,85669;2,40489
2317,80553;2,39845
2315,75438;2,39033
2313,70322;2,38326
2311,65207;2,38132
2309,60091;2,38403
2307,54976;2,38709
2305,4986;2,38817
2303,44744;2,3881
2301,39629;2,38721
2299,34513;2,38549
2297,29398;2,38413
2295,24282;2,38365
2293,19167;2,38253
2291,14051;2,38047
2289,08936;2,38008
2287,0382;2,38141
2284,98705;2,38167
2282,93589;2,38075
2280,88474;2,3808
2278,83358;2,38247
2276,78243;2,38556
2274,73127;2,38907
2272,68011;2,39052
2270,62896;2,39032
2268,5778;2,39135
2266,52665;2,39298
2264,47549;2,39284
2262,42434;2,39215
2260,37318;2,39322
2258,32203;2,3948
2256,27087;2,39508
2254,21972;2,39536
2252,16856;2,39752
2250,11741;2,40058
2248,06625;2,40217
2246,0151;2,40313
2243,96394;2,40723
2241,91278;2,41073
2239,86163;2,41189
2237,81047;2,41537
2235,75932;2,42012
2233,70816;2,42233
2231,65701;2,42397
2229,60585;2,4258
2227,5547;2,4252
2225,50354;2,42367
2223,45239;2,42346
2221,40123;2,42555
2219,35008;2,43023
2217,29892;2,43442
2215,24777;2,43536
2213,19661;2,43534
2211,14545;2,43779
2209,0943;2,44098
2207,04314;2,44132
2204,99199;2,44016
2202,94083;2,44144
2200,88968;2,44378
2198,83852;2,44411
2196,78737;2,44343
2194,73621;2,44355
2192,68506;2,44505
2190,6339;2,44659
2188,58275;2,44728
2186,53159;2,44744
2184,48044;2,44783
2182,42928;2,44948
2180,37812;2,45149
2178,32697;2,45476
2176,27581;2,46077
2174,22466;2,4661
2172,1735;2,46728
2170,12235;2,46634
2168,07119;2,46731
2166,02004;2,47054
2163,96888;2,47489
2161,91773;2,48026
2159,86657;2,48641
2157,81542;2,49346
2155,76426;2,50105
2153,71311;2,50893
2151,66195;2,51814
2149,61079;2,52595
2147,55964;2,5299
2145,50848;2,53379
2143,45733;2,538
2141,40617;2,5396
2139,35502;2,54024
2137,30386;2,54274
2135,25271;2,54407
2133,20155;2,53964
2131,1504;2,53278
2129,09924;2,52686
2127,04809;2,52136
2124,99693;2,51733
2122,94578;2,51184
2120,89462;2,50155
2118,84346;2,49141
2116,79231;2,48507
2114,74115;2,48003
2112,69;2,47414
2110,63884;2,46846
2108,58769;2,4659
2106,53653;2,46569
2104,48538;2,46422
2102,43422;2,46139
2100,38307;2,45905
2098,33191;2,45729
2096,28076;2,45565
2094,2296;2,45463
2092,17844;2,45617
2090,12729;2,45892
2088,07613;2,45944
2086,02498;2,45919
2083,97382;2,45949
2081,92267;2,45958
2079,87151;2,46131
2077,82036;2,46554
2075,7692;2,46976
2073,71805;2,47121
2071,66689;2,4687
2069,61574;2,46494
2067,56458;2,46238
2065,51343;2,46063
2063,46227;2,4598
2061,41111;2,45921
2059,35996;2,45856
2057,3088;2,45914
2055,25765;2,46135
2053,20649;2,463
2051,15534;2,46373
2049,10418;2,46655
2047,05303;2,47187
2045,00187;2,47558
2042,95072;2,47511
2040,89956;2,47376
2038,84841;2,47473
2036,79725;2,47786
2034,7461;2,48048
2032,69494;2,47937
2030,64378;2,47705
2028,59263;2,47864
2026,54147;2,48321
2024,49032;2,48577
2022,43916;2,48737
2020,38801;2,49206
2018,33685;2,4975
2016,2857;2,49981
2014,23454;2,49842
2012,18339;2,49505
2010,13223;2,4936
2008,08108;2,49369
2006,02992;2,49131
2003,97877;2,48808
2001,92761;2,48846
1999,87645;2,49164
1997,8253;2,49452
1995,77414;2,4969
1993,72299;2,4978
1991,67183;2,49648
1989,62068;2,49595
1987,56952;2,4974
1985,51837;2,49971
1983,46721;2,50106
1981,41606;2,50123
1979,3649;2,50108
1977,31375;2,50139
1975,26259;2,50276
1973,21144;2,50483
1971,16028;2,50763
1969,10912;2,51255
1967,05797;2,52023
1965,00681;2,5301
1962,95566;2,53912
1960,9045;2,54405
1958,85335;2,5437
1956,80219;2,53998
1954,75104;2,53779
1952,69988;2,54015
1950,64873;2,54604
1948,59757;2,55454
1946,54642;2,563
1944,49526;2,56341
1942,44411;2,55547
1940,39295;2,55105
1938,34179;2,5512
1936,29064;2,55105
1934,23948;2,54971
1932,18833;2,547
1930,13717;2,54403
1928,08602;2,54259
1926,03486;2,54407
1923,98371;2,5477
1921,93255;2,55319
1919,8814;2,55878
1917,83024;2,5627
1915,77909;2,56667
1913,72793;2,57051
1911,67678;2,57575
1909,62562;2,5814
1907,57446;2,58414
1905,52331;2,58312
1903,47215;2,57919
1901,421;2,57229
1899,36984;2,5656
1897,31869;2,56422
1895,26753;2,56986
1893,21638;2,57927
1891,16522;2,58652
1889,11407;2,59298
1887,06291;2,59998
1885,01176;2,60278
1882,9606;2,60232
1880,90945;2,60432
1878,85829;2,61096
1876,80713;2,61783
1874,75598;2,62228
1872,70482;2,62639
1870,65367;2,62903
1868,60251;2,62942
1866,55136;2,63106
1864,5002;2,63335
1862,44905;2,63488
1860,39789;2,63871
1858,34674;2,64666
1856,29558;2,65531
1854,24443;2,66128
1852,19327;2,66536
1850,14212;2,66994
1848,09096;2,67628
1846,0398;2,68161
1843,98865;2,68541
1841,93749;2,69328
1839,88634;2,70306
1837,83518;2,71202
1835,78403;2,72034
1833,73287;2,72795
1831,68172;2,73367
1829,63056;2,73842
1827,57941;2,74581
1825,52825;2,755
1823,4771;2,76634
1821,42594;2,77625
1819,37478;2,78105
1817,32363;2,78523
1815,27247;2,79523
1813,22132;2,80682
1811,17016;2,81155
1809,11901;2,81482
1807,06785;2,82762
1805,0167;2,84986
1802,96554;2,8738
1800,91439;2,89357
1798,86323;2,91074
1796,81208;2,92866
1794,76092;2,94222
1792,70977;2,94481
1790,65861;2,94072
1788,60745;2,93179
1786,5563;2,91207
1784,50514;2,88803
1782,45399;2,87278
1780,40283;2,86729
1778,35168;2,86929
1776,30052;2,87568
1774,24937;2,87906
1772,19821;2,88034
1770,14706;2,8863
1768,0959;2,89004
1766,04475;2,89119
1763,99359;2,89527
1761,94244;2,90599
1759,89128;2,91863
1757,84012;2,9237
1755,78897;2,93165
1753,73781;2,94889
1751,68666;2,9664
1749,6355;2,9793
1747,58435;2,98965
1745,53319;3,00252
1743,48204;3,01773
1741,43088;3,02941
1739,37973;3,03387
1737,32857;3,03731
1735,27742;3,03458
1733,22626;3,02558
1731,17511;3,02657
1729,12395;3,04163
1727,07279;3,05778
1725,02164;3,05836
1722,97048;3,05107
1720,91933;3,04897
1718,86817;3,04961
1716,81702;3,05692
1714,76586;3,07136
1712,71471;3,0863
1710,66355;3,10047
1708,6124;3,11598
1706,56124;3,1344
1704,51009;3,15075
1702,45893;3,1607
1700,40778;3,17605
1698,35662;3,20688
1696,30546;3,22582
1694,25431;3,22716
1692,20315;3,22317
1690,152;3,21247
1688,10084;3,19115
1686,04969;3,16396
1683,99853;3,1491
1681,94738;3,15912
1679,89622;3,1728
1677,84507;3,17372
1675,79391;3,16085
1673,74276;3,14695
1671,6916;3,13311
1669,64045;3,11621
1667,58929;3,10215
1665,53813;3,08484
1663,48698;3,06442
1661,43582;3,05411
1659,38467;3,05079
1657,33351;3,04519
1655,28236;3,02641
1653,2312;2,99514
1651,18005;2,9882
1649,12889;2,98675
1647,07774;2,9726
1645,02658;2,97517
1642,97543;2,99121
1640,92427;2,9999
1638,87312;2,99826
1636,82196;2,97851
1634,7708;2,94128
1632,71965;2,90474
1630,66849;2,86515
1628,61734;2,81747
1626,56618;2,77468
1624,51503;2,74908
1622,46387;2,74883
1620,41272;2,77025
1618,36156;2,7893
1616,31041;2,79361
1614,25925;2,78691
1612,2081;2,77471
1610,15694;2,76649
1608,10579;2,76604
1606,05463;2,77219
1604,00347;2,78422
1601,95232;2,79463
1599,90116;2,7989
1597,85001;2,80386
1595,79885;2,81094
1593,7477;2,8161
1591,69654;2,82365
1589,64539;2,83535
1587,59423;2,84206
1585,54308;2,83854
1583,49192;2,82972
1581,44077;2,82295
1579,38961;2,81853
1577,33846;2,81114
1575,2873;2,81138
1573,23614;2,82254
1571,18499;2,82328
1569,13383;2,81549
1567,08268;2,8144
1565,03152;2,81769
1562,98037;2,82472
1560,92921;2,82686
1558,87806;2,8165
1556,8269;2,80891
1554,77575;2,80395
1552,72459;2,7987
1550,67344;2,79176
1548,62228;2,78333
1546,57113;2,77803
1544,51997;2,77736
1542,46881;2,77587
1540,41766;2,76698
1538,3665;2,76477
1536,31535;2,76701
1534,26419;2,75875
1532,21304;2,7525
1530,16188;2,75741
1528,11073;2,76384
1526,05957;2,76789
1524,00842;2,7666
1521,95726;2,75691
1519,90611;2,75124
1517,85495;2,75128
1515,80379;2,74993
1513,75264;2,74523
1511,70148;2,738
1509,65033;2,72931
1507,59917;2,71481
1505,54802;2,70797
1503,49686;2,71789
1501,44571;2,72846
1499,39455;2,73316
1497,3434;2,73674
1495,29224;2,74736
1493,24109;2,76492
1491,18993;2,78557
1489,13878;2,81445
1487,08762;2,84395
1485,03646;2,85447
1482,98531;2,839
1480,93415;2,80863
1478,883;2,7827
1476,83184;2,77122
1474,78069;2,77333
1472,72953;2,78847
1470,67838;2,82342
1468,62722;2,86727
1466,57607;2,8953
1464,52491;2,88841
1462,47376;2,85554
1460,4226;2,81977
1458,37145;2,78994
1456,32029;2,77417
1454,26913;2,77295
1452,21798;2,77264
1450,16682;2,76933
1448,11567;2,76333
1446,06451;2,75782
1444,01336;2,75661
1441,9622;2,76378
1439,91105;2,77817
1437,85989;2,78564
1435,80874;2,78095
1433,75758;2,77381
1431,70643;2,76838
1429,65527;2,76772
1427,60412;2,77158
1425,55296;2,77591
1423,5018;2,78292
1421,45065;2,79174
1419,39949;2,79813
1417,34834;2,80537
1415,29718;2,80827
1413,24603;2,80391
1411,19487;2,80012
1409,14372;2,80158
1407,09256;2,80606
1405,04141;2,81318
1402,99025;2,82076
1400,9391;2,82385
1398,88794;2,82986
1396,83679;2,84125
1394,78563;2,84266
1392,73447;2,83223
1390,68332;2,81892
1388,63216;2,80942
1386,58101;2,80898
1384,52985;2,81141
1382,4787;2,8082
1380,42754;2,80417
1378,37639;2,80556
1376,32523;2,81073
1374,27408;2,81958
1372,22292;2,83297
1370,17177;2,83903
1368,12061;2,83383
1366,06946;2,83019
1364,0183;2,83209
1361,96714;2,83486
1359,91599;2,83713
1357,86483;2,83653
1355,81368;2,83326
1353,76252;2,83253
1351,71137;2,83772
1349,66021;2,8501
1347,60906;2,8652
1345,5579;2,87132
1343,50675;2,86796
1341,45559;2,86366
1339,40444;2,86365
1337,35328;2,87145
1335,30213;2,87946
1333,25097;2,87987
1331,19981;2,87946
1329,14866;2,88307
1327,0975;2,8882
1325,04635;2,89893
1322,99519;2,91104
1320,94404;2,90485
1318,89288;2,87863
1316,84173;2,85355
1314,79057;2,84016
1312,73942;2,83418
1310,68826;2,83622
1308,63711;2,8496
1306,58595;2,86612
1304,5348;2,87442
1302,48364;2,8709
1300,43248;2,85628
1298,38133;2,83793
1296,33017;2,82642
1294,27902;2,8256
1292,22786;2,83177
1290,17671;2,83911
1288,12555;2,84153
1286,0744;2,8343
1284,02324;2,82342
1281,97209;2,82476
1279,92093;2,84262
1277,86978;2,86053
1275,81862;2,86453
1273,76747;2,86229
1271,71631;2,86055
1269,66515;2,85744
1267,614;2,85481
1265,56284;2,85311
1263,51169;2,85326
1261,46053;2,85558
1259,40938;2,85852
1257,35822;2,86715
1255,30707;2,88025
1253,25591;2,88246
1251,20476;2,87395
1249,1536;2,87033
1247,10245;2,87193
1245,05129;2,87508
1243,00013;2,8761
1240,94898;2,87082
1238,89782;2,8696
1236,84667;2,87488
1234,79551;2,87744
1232,74436;2,8766
1230,6932;2,87479
1228,64205;2,87834
1226,59089;2,89085
1224,53974;2,89944
1222,48858;2,89556
1220,43743;2,8897
1218,38627;2,89063
1216,33512;2,89422
1214,28396;2,89636
1212,2328;2,89745
1210,18165;2,90254
1208,13049;2,91735
1206,07934;2,93344
1204,02818;2,94046
1201,97703;2,93724
1199,92587;2,92537
1197,87472;2,91024
1195,82356;2,896
1193,77241;2,89079
1191,72125;2,89786
1189,6701;2,90678
1187,61894;2,91158
1185,56779;2,90803
1183,51663;2,89611
1181,46547;2,88495
1179,41432;2,87858
1177,36316;2,87323
1175,31201;2,86146
1173,26085;2,84378
1171,2097;2,83322
1169,15854;2,82994
1167,10739;2,82435
1165,05623;2,82249
1163,00508;2,83176
1160,95392;2,84349
1158,90277;2,85008
1156,85161;2,85532
1154,80046;2,8637
1152,7493;2,87698
1150,69814;2,89393
1148,64699;2,91055
1146,59583;2,9252
1144,54468;2,93803
1142,49352;2,94023
1140,44237;2,93208
1138,39121;2,92858
1136,34006;2,92865
1134,2889;2,91934
1132,23775;2,89321
1130,18659;2,85773
1128,13544;2,83176
1126,08428;2,81799
1124,03313;2,80806
1121,98197;2,80248
1119,93081;2,80366
1117,87966;2,81345
1115,8285;2,83281
1113,77735;2,85308
1111,72619;2,86173
1109,67504;2,85756
1107,62388;2,8529
1105,57273;2,85679
1103,52157;2,85587
1101,47042;2,8461
1099,41926;2,84585
1097,36811;2,85356
1095,31695;2,85833
1093,2658;2,86239
1091,21464;2,86528
1089,16348;2,87428
1087,11233;2,89125
1085,06117;2,89425
1083,01002;2,86922
1080,95886;2,82572
1078,90771;2,78183
1076,85655;2,74681
1074,8054;2,72211
1072,75424;2,70777
1070,70309;2,69887
1068,65193;2,69272
1066,60078;2,69092
1064,54962;2,69267
1062,49847;2,69662
1060,44731;2,70145
1058,39615;2,70873
1056,345;2,71928
1054,29384;2,72861
1052,24269;2,72873
1050,19153;2,7213
1048,14038;2,72165
1046,08922;2,73168
1044,03807;2,74203
1041,98691;2,75056
1039,93576;2,75551
1037,8846;2,75212
1035,83345;2,74515
1033,78229;2,7412
1031,73114;2,74023
1029,67998;2,7486
1027,62882;2,75778
1025,57767;2,75463
1023,52651;2,74919
1021,47536;2,74691
1019,4242;2,74699
1017,37305;2,74942
1015,32189;2,75182
1013,27074;2,74942
1011,21958;2,73966
1009,16843;2,7321
1007,11727;2,73325
1005,06612;2,73682
1003,01496;2,73742
1000,96381;2,73777
998,91265;2,74197
996,86149;2,74382
994,81034;2,73614
992,75918;2,72878
990,70803;2,731
988,65687;2,73504
986,60572;2,73425
984,55456;2,73234
982,50341;2,72985
980,45225;2,72575
978,4011;2,72415
976,34994;2,72682
974,29879;2,73452
972,24763;2,73654
970,19647;2,72447
968,14532;2,71505
966,09416;2,72037
964,04301;2,73184
961,99185;2,7324
959,9407;2,72437
957,88954;2,7206
955,83839;2,72151
953,78723;2,72951
951,73608;2,73608
949,68492;2,73427
947,63377;2,73444
945,58261;2,73792
943,53146;2,74025
941,4803;2,74389
939,42914;2,74639
937,37799;2,74204
935,32683;2,74063
933,27568;2,75037
931,22452;2,75747
929,17337;2,75246
927,12221;2,7402
925,07106;2,72695
923,0199;2,72074
920,96875;2,72392
918,91759;2,73164
916,86644;2,74073
914,81528;2,74551
912,76413;2,74046
910,71297;2,73029
908,66181;2,72911
906,61066;2,73583
904,5595;2,73832
902,50835;2,7428
900,45719;2,74823
898,40604;2,74374
896,35488;2,73203
894,30373;2,72055
892,25257;2,70272
890,20142;2,67226
888,15026;2,65254
886,09911;2,66596
884,04795;2,70337
881,9968;2,73735
879,94564;2,74762
877,89448;2,74579
875,84333;2,7458
873,79217;2,73508
871,74102;2,73007
869,68986;2,75987
867,63871;2,79919
865,58755;2,81052
863,5364;2,80294
861,48524;2,79459
859,43409;2,79361
857,38293;2,79904
855,33178;2,80095
853,28062;2,79743
851,22947;2,79321
849,17831;2,79016
847,12715;2,78365
845,076;2,7776
843,02484;2,77909
840,97369;2,78328
838,92253;2,77699
836,87138;2,76167
834,82022;2,7622
832,76907;2,78073
830,71791;2,78709
828,66676;2,77332
826,6156;2,7605
824,56445;2,76328
822,51329;2,78423
820,46214;2,80284
818,41098;2,80083
816,35982;2,79767
814,30867;2,80801
812,25751;2,8116
810,20636;2,79899
808,1552;2,7827
806,10405;2,77511
804,05289;2,78274
802,00174;2,79707
799,95058;2,80872
797,89943;2,82235
795,84827;2,83773
793,79712;2,84667
791,74596;2,84627
789,69481;2,83632
787,64365;2,83436
785,59249;2,8491
783,54134;2,85436
781,49018;2,83892
779,43903;2,82611
777,38787;2,8201
775,33672;2,81864
773,28556;2,83581
771,23441;2,86792
769,18325;2,88936
767,1321;2,87425
765,08094;2,84239
763,02979;2,83903
760,97863;2,86091
758,92748;2,869
756,87632;2,85986
754,82516;2,84567
752,77401;2,82068
750,72285;2,79738
748,6717;2,78252
746,62054;2,76582
744,56939;2,76036
742,51823;2,77294
740,46708;2,79316
738,41592;2,82178
736,36477;2,85199
734,31361;2,85033
732,26246;2,81192
730,2113;2,78695
728,16015;2,79822
726,10899;2,8172
724,05783;2,83266
722,00668;2,85784
719,95552;2,89358
717,90437;2,91588
715,85321;2,90187
713,80206;2,86845
711,7509;2,83983
709,69975;2,81289
707,64859;2,78568
705,59744;2,76869
703,54628;2,76231
701,49513;2,75632
699,44397;2,74646
697,39281;2,73254
695,34166;2,71643
693,2905;2,7089
691,23935;2,72047
689,18819;2,74379
687,13704;2,76473
685,08588;2,77896
683,03473;2,78531
680,98357;2,78491
678,93242;2,78303
676,88126;2,77901
674,83011;2,77037
672,77895;2,76874
670,7278;2,77963
668,67664;2,78198
666,62548;2,76979
664,57433;2,77293
662,52317;2,78994
660,47202;2,807
658,42086;2,81614
656,36971;2,80397
654,31855;2,77724
652,2674;2,77054
650,21624;2,80452
648,16509;2,85141
646,11393;2,86293
644,06278;2,83983
642,01162;2,80924
639,96047;2,77199
637,90931;2,73793
635,85815;2,73713
633,807;2,75972
631,75584;2,76576
629,70469;2,75812
627,65353;2,76384
625,60238;2,76137
623,55122;2,73223
621,50007;2,71384
619,44891;2,72842
617,39776;2,74577
615,3466;2,72927
613,29545;2,70479
611,24429;2,71382
609,19314;2,74681
607,14198;2,77206
605,09082;2,77932
603,03967;2,77001
600,98851;2,76552
598,93736;2,77771
596,8862;2,77774
594,83505;2,74935
592,78389;2,71945
590,73274;2,71284
588,68158;2,7263
586,63043;2,74021
584,57927;2,7467
582,52812;2,74986
580,47696;2,75184
578,42581;2,74077
576,37465;2,70773
574,32349;2,6865
572,27234;2,69434
570,22118;2,70667
568,17003;2,70084
566,11887;2,68632
564,06772;2,67997
562,01656;2,66508
559,96541;2,63911
557,91425;2,64665
555,8631;2,69305
553,81194;2,70537
551,76079;2,66485
549,70963;2,63739
547,65848;2,64806
545,60732;2,67546
543,55616;2,69478
541,50501;2,69139
539,45385;2,66773
537,4027;2,64239
535,35154;2,63883
533,30039;2,64925
531,24923;2,6497
529,19808;2,6405
527,14692;2,64034
525,09577;2,65533
523,04461;2,67094
520,99346;2,67737
518,9423;2,68223
516,89115;2,69018
514,83999;2,69526
512,78883;2,67856
510,73768;2,66084
508,68652;2,65404
506,63537;2,6257
504,58421;2,59061
502,53306;2,58256
500,4819;2,59744
498,43075;2,62313
496,37959;2,66089
494,32844;2,68466
492,27728;2,66915
490,22613;2,6347
488,17497;2,60603
486,12382;2,59262
484,07266;2,59324
482,0215;2,59778
479,97035;2,60418
477,91919;2,6129
475,86804;2,6355
473,81688;2,67829
471,76573;2,71136
469,71457;2,70326
467,66342;2,67108
465,61226;2,65545
463,56111;2,65087
461,50995;2,64893
459,4588;2,6729
457,40764;2,7378
455,35649;2,80031
453,30533;2,77391
451,25417;2,68061
449,20302;2,60824
447,15186;2,58029
445,10071;2,58748
443,04955;2,63882
440,9984;2,68887
438,94724;2,67307
436,89609;2,63477
434,84493;2,62496
432,79378;2,66305
430,74262;2,75064
428,69147;2,81584
426,64031;2,8252
424,58916;2,82872
422,538;2,80122
420,48684;2,71735
418,43569;2,62865
416,38453;2,58443
414,33338;2,58081
412,28222;2,58213
410,23107;2,58456
408,17991;2,58623
406,12876;2,55675
404,0776;2,50455
402,02645;2,48646
399,97529;2,50099
