3997,70175;1,87103
3995,6506;1,87141
3993,59944;1,87264
3991,54829;1,87403
3989,49713;1,87501
3987,44598;1,87559
3985,39482;1,87587
3983,34367;1,87661
3981,29251;1,8779
3979,24136;1,87933
3977,1902;1,88134
3975,13905;1,88388
3973,08789;1,88577
3971,03673;1,88685
3968,98558;1,88805
3966,93442;1,8896
3964,88327;1,89038
3962,83211;1,89039
3960,78096;1,89185
3958,7298;1,89446
3956,67865;1,89709
3954,62749;1,90057
3952,57634;1,90428
3950,52518;1,90594
3948,47403;1,90557
3946,42287;1,90577
3944,37172;1,90613
3942,32056;1,90705
3940,2694;1,9095
3938,21825;1,91102
3936,16709;1,91158
3934,11594;1,91134
3932,06478;1,91009
3930,01363;1,90832
3927,96247;1,90584
3925,91132;1,90293
3923,86016;1,90162
3921,80901;1,90092
3919,75785;1,89816
3917,7067;1,89378
3915,65554;1,88968
3913,60439;1,88638
3911,55323;1,88374
3909,50207;1,88348
3907,45092;1,8845
3905,39976;1,88384
3903,34861;1,88186
3901,29745;1,8771
3899,2463;1,86919
3897,19514;1,86464
3895,14399;1,86352
3893,09283;1,86106
3891,04168;1,85821
3888,99052;1,85745
3886,93937;1,85424
3884,88821;1,85311
3882,83706;1,85339
3880,7859;1,848
3878,73474;1,84526
3876,68359;1,84589
3874,63243;1,84599
3872,58128;1,84609
3870,53012;1,84273
3868,47897;1,8431
3866,42781;1,8448
3864,37666;1,84219
3862,3255;1,83983
3860,27435;1,83908
3858,22319;1,83964
3856,17204;1,83746
3854,12088;1,83251
3852,06973;1,83389
3850,01857;1,83568
3847,96741;1,83269
3845,91626;1,82959
3843,8651;1,83007
3841,81395;1,83393
3839,76279;1,83484
3837,71164;1,83267
3835,66048;1,83192
3833,60933;1,83086
3831,55817;1,83024
3829,50702;1,8319
3827,45586;1,83274
3825,40471;1,83453
3823,35355;1,83555
3821,3024;1,83615
3819,25124;1,84119
3817,20008;1,83826
3815,14893;1,83151
3813,09777;1,83107
3811,04662;1,83208
3808,99546;1,83115
3806,94431;1,83147
3804,89315;1,83741
3802,842;1,83879
3800,79084;1,8386
3798,73969;1,84089
3796,68853;1,838
3794,63738;1,83545
3792,58622;1,83502
3790,53506;1,83536
3788,48391;1,8375
3786,43275;1,83976
3784,3816;1,84173
3782,33044;1,84433
3780,27929;1,84551
3778,22813;1,84634
3776,17698;1,84672
3774,12582;1,84672
3772,07467;1,84693
3770,02351;1,84754
3767,97236;1,85053
3765,9212;1,85314
3763,87005;1,85697
3761,81889;1,86027
3759,76773;1,86133
3757,71658;1,86427
3755,66542;1,86892
3753,61427;1,87143
3751,56311;1,87363
3749,51196;1,88059
3747,4608;1,8851
3745,40965;1,87812
3743,35849;1,87593
3741,30734;1,88408
3739,25618;1,89101
3737,20503;1,89629
3735,15387;1,901
3733,10272;1,90226
3731,05156;1,90178
3729,0004;1,90419
3726,94925;1,90829
3724,89809;1,91393
3722,84694;1,91881
3720,79578;1,92337
3718,74463;1,92924
3716,69347;1,93723
3714,64232;1,94624
3712,59116;1,956
3710,54001;1,96892
3708,48885;1,98212
3706,4377;1,99263
3704,38654;2,00255
3702,33539;2,01725
3700,28423;2,03966
3698,23307;2,06203
3696,18192;2,08023
3694,13076;2,09707
3692,07961;2,11026
3690,02845;2,11777
3687,9773;2,12353
3685,92614;2,13085
3683,87499;2,13819
3681,82383;2,14955
3679,77268;2,1679
3677,72152;2,1869
3675,67037;2,20458
3673,61921;2,23063
3671,56806;2,25501
3669,5169;2,27671
3667,46574;2,2994
3665,41459;2,3165
3663,36343;2,33196
3661,31228;2,34964
3659,26112;2,36669
3657,20997;2,3831
3655,15881;2,40701
3653,10766;2,43255
3651,0565;2,45154
3649,00535;2,47681
3646,95419;2,51106
3644,90304;2,53863
3642,85188;2,54843
3640,80073;2,54715
3638,74957;2,55091
3636,69841;2,56629
3634,64726;2,58619
3632,5961;2,60447
3630,54495;2,61566
3628,49379;2,62206
3626,44264;2,63141
3624,39148;2,64062
3622,34033;2,65362
3620,28917;2,67163
3618,23802;2,68558
3616,18686;2,692
3614,13571;2,69977
3612,08455;2,71466
3610,0334;2,72791
3607,98224;2,7298
3605,93108;2,7259
3603,87993;2,72646
3601,82877;2,73027
3599,77762;2,72953
3597,72646;2,72775
3595,67531;2,7377
3593,62415;2,7571
3591,573;2,77378
3589,52184;2,7839
3587,47069;2,78551
3585,41953;2,77999
3583,36838;2,77256
3581,31722;2,77132
3579,26607;2,77988
3577,21491;2,78698
3575,16375;2,78896
3573,1126;2,80346
3571,06144;2,83521
3569,01029;2,86116
3566,95913;2,86117
3564,90798;2,8438
3562,85682;2,83128
3560,80567;2,82628
3558,75451;2,81815
3556,70336;2,81037
3554,6522;2,814
3552,60105;2,82436
3550,54989;2,83377
3548,49874;2,84424
3546,44758;2,85114
3544,39642;2,85135
3542,34527;2,85059
3540,29411;2,85012
3538,24296;2,84829
3536,1918;2,8459
3534,14065;2,84585
3532,08949;2,84749
3530,03834;2,84822
3527,98718;2,84855
3525,93603;2,85107
3523,88487;2,855
3521,83372;2,85708
3519,78256;2,86255
3517,73141;2,87073
3515,68025;2,86766
3513,62909;2,85863
3511,57794;2,85899
3509,52678;2,86633
3507,47563;2,87541
3505,42447;2,8839
3503,37332;2,88812
3501,32216;2,89342
3499,27101;2,90158
3497,21985;2,90393
3495,1687;2,89982
3493,11754;2,89203
3491,06639;2,88678
3489,01523;2,88813
3486,96407;2,88767
3484,91292;2,88144
3482,86176;2,8763
3480,81061;2,88328
3478,75945;2,90139
3476,7083;2,90714
3474,65714;2,89488
3472,60599;2,88119
3470,55483;2,87073
3468,50368;2,87141
3466,45252;2,89385
3464,40137;2,92554
3462,35021;2,94281
3460,29906;2,93067
3458,2479;2,90842
3456,19674;2,90164
3454,14559;2,89869
3452,09443;2,89106
3450,04328;2,89661
3447,99212;2,90883
3445,94097;2,91026
3443,88981;2,9039
3441,83866;2,89995
3439,7875;2,89941
3437,73635;2,89303
3435,68519;2,88355
3433,63404;2,8738
3431,58288;2,86415
3429,53173;2,86668
3427,48057;2,88199
3425,42941;2,89533
3423,37826;2,90337
3421,3271;2,90521
3419,27595;2,90815
3417,22479;2,91749
3415,17364;2,92225
3413,12248;2,91928
3411,07133;2,9142
3409,02017;2,91215
3406,96902;2,91524
3404,91786;2,91888
3402,86671;2,91579
3400,81555;2,91035
3398,7644;2,90855
3396,71324;2,90328
3394,66208;2,89707
3392,61093;2,90284
3390,55977;2,91576
3388,50862;2,92306
3386,45746;2,92135
3384,40631;2,91363
3382,35515;2,90855
3380,304;2,90974
3378,25284;2,91759
3376,20169;2,92624
3374,15053;2,92436
3372,09938;2,92402
3370,04822;2,94117
3367,99707;2,95267
3365,94591;2,94024
3363,89475;2,92232
3361,8436;2,91601
3359,79244;2,91662
3357,74129;2,91227
3355,69013;2,91032
3353,63898;2,91335
3351,58782;2,91598
3349,53667;2,92311
3347,48551;2,93169
3345,43436;2,92812
3343,3832;2,90847
3341,33205;2,89085
3339,28089;2,89757
3337,22974;2,92569
3335,17858;2,94937
3333,12742;2,94766
3331,07627;2,92905
3329,02511;2,9175
3326,97396;2,92199
3324,9228;2,93354
3322,87165;2,93788
3320,82049;2,93325
3318,76934;2,93303
3316,71818;2,93547
3314,66703;2,93571
3312,61587;2,93943
3310,56472;2,94012
3308,51356;2,93353
3306,46241;2,92319
3304,41125;2,91185
3302,36009;2,90666
3300,30894;2,9084
3298,25778;2,91374
3296,20663;2,91691
3294,15547;2,9068
3292,10432;2,89041
3290,05316;2,88143
3288,00201;2,87753
3285,95085;2,8801
3283,8997;2,88654
3281,84854;2,8876
3279,79739;2,88481
3277,74623;2,87995
3275,69508;2,87586
3273,64392;2,88567
3271,59276;2,89933
3269,54161;2,89235
3267,49045;2,87975
3265,4393;2,88217
3263,38814;2,88965
3261,33699;2,88751
3259,28583;2,87953
3257,23468;2,8722
3255,18352;2,8599
3253,13237;2,84997
3251,08121;2,85806
3249,03006;2,87227
3246,9789;2,87366
3244,92775;2,86647
3242,87659;2,85628
3240,82543;2,84586
3238,77428;2,83951
3236,72312;2,83229
3234,67197;2,82258
3232,62081;2,81995
3230,56966;2,82727
3228,5185;2,83737
3226,46735;2,84627
3224,41619;2,84997
3222,36504;2,84309
3220,31388;2,83001
3218,26273;2,81711
3216,21157;2,80931
3214,16041;2,81533
3212,10926;2,82742
3210,0581;2,82791
3208,00695;2,82175
3205,95579;2,82275
3203,90464;2,83122
3201,85348;2,83928
3199,80233;2,84415
3197,75117;2,84332
3195,70002;2,83289
3193,64886;2,82435
3191,59771;2,82559
3189,54655;2,82563
3187,4954;2,82054
3185,44424;2,8192
3183,39308;2,82757
3181,34193;2,83645
3179,29077;2,83254
3177,23962;2,81999
3175,18846;2,81624
3173,13731;2,82863
3171,08615;2,83978
3169,035;2,84084
3166,98384;2,84053
3164,93269;2,83607
3162,88153;2,82202
3160,83038;2,80481
3158,77922;2,79628
3156,72807;2,79878
3154,67691;2,80638
3152,62575;2,80906
3150,5746;2,80753
3148,52344;2,81048
3146,47229;2,81879
3144,42113;2,83334
3142,36998;2,84386
3140,31882;2,83599
3138,26767;2,82086
3136,21651;2,81041
3134,16536;2,80669
3132,1142;2,81254
3130,06305;2,81474
3128,01189;2,80712
3125,96074;2,80372
3123,90958;2,80436
3121,85842;2,80088
3119,80727;2,79626
3117,75611;2,79613
3115,70496;2,79885
3113,6538;2,80082
3111,60265;2,80099
3109,55149;2,79878
3107,50034;2,7981
3105,44918;2,79814
3103,39803;2,79356
3101,34687;2,78951
3099,29572;2,79106
3097,24456;2,7928
3095,19341;2,79323
3093,14225;2,79501
3091,09109;2,79328
3089,03994;2,79308
3086,98878;2,80226
3084,93763;2,80811
3082,88647;2,80106
3080,83532;2,79555
3078,78416;2,79845
3076,73301;2,79826
3074,68185;2,79294
3072,6307;2,79245
3070,57954;2,79595
3068,52839;2,79223
3066,47723;2,78728
3064,42608;2,79257
3062,37492;2,79733
3060,32376;2,79176
3058,27261;2,78416
3056,22145;2,78353
3054,1703;2,78238
3052,11914;2,77332
3050,06799;2,76405
3048,01683;2,76226
3045,96568;2,76667
3043,91452;2,77371
3041,86337;2,78278
3039,81221;2,79232
3037,76106;2,79786
3035,7099;2,79474
3033,65875;2,78597
3031,60759;2,77457
3029,55643;2,76295
3027,50528;2,7566
3025,45412;2,75387
3023,40297;2,75354
3021,35181;2,75749
3019,30066;2,76134
3017,2495;2,75801
3015,19835;2,74842
3013,14719;2,74317
3011,09604;2,74566
3009,04488;2,7485
3006,99373;2,7515
3004,94257;2,75298
3002,89142;2,74814
3000,84026;2,74597
2998,7891;2,75012
2996,73795;2,74957
2994,68679;2,74017
2992,63564;2,73717
2990,58448;2,74787
2988,53333;2,75691
2986,48217;2,75922
2984,43102;2,76306
2982,37986;2,76669
2980,32871;2,76635
2978,27755;2,76716
2976,2264;2,77169
2974,17524;2,77744
2972,12409;2,77992
2970,07293;2,77542
2968,02177;2,77089
2965,97062;2,7723
2963,91946;2,77273
2961,86831;2,77172
2959,81715;2,77589
2957,766;2,78238
2955,71484;2,78291
2953,66369;2,77694
2951,61253;2,77423
2949,56138;2,7776
2947,51022;2,77776
2945,45907;2,77204
2943,40791;2,76796
2941,35675;2,77427
2939,3056;2,79023
2937,25444;2,79943
2935,20329;2,79557
2933,15213;2,78807
2931,10098;2,78165
2929,04982;2,7817
2926,99867;2,78384
2924,94751;2,7773
2922,89636;2,7674
2920,8452;2,76176
2918,79405;2,75674
2916,74289;2,7513
2914,69174;2,74909
2912,64058;2,74583
2910,58942;2,74044
2908,53827;2,73784
2906,48711;2,73249
2904,43596;2,72121
2902,3848;2,71645
2900,33365;2,72682
2898,28249;2,74297
2896,23134;2,74615
2894,18018;2,73578
2892,12903;2,72959
2890,07787;2,73193
2888,02672;2,73521
2885,97556;2,73424
2883,92441;2,73262
2881,87325;2,73261
2879,82209;2,7281
2877,77094;2,72372
2875,71978;2,73048
2873,66863;2,73747
2871,61747;2,7328
2869,56632;2,73035
2867,51516;2,73471
2865,46401;2,73282
2863,41285;2,72356
2861,3617;2,7174
2859,31054;2,71775
2857,25939;2,72036
2855,20823;2,721
2853,15708;2,71821
2851,10592;2,71283
2849,05476;2,70477
2847,00361;2,69493
2844,95245;2,68524
2842,9013;2,67607
2840,85014;2,66992
2838,79899;2,66912
2836,74783;2,66831
2834,69668;2,66168
2832,64552;2,65269
2830,59437;2,64848
2828,54321;2,65125
2826,49206;2,653
2824,4409;2,64866
2822,38975;2,64179
2820,33859;2,63331
2818,28743;2,62258
2816,23628;2,61404
2814,18512;2,61515
2812,13397;2,62463
2810,08281;2,62966
2808,03166;2,6237
2805,9805;2,61375
2803,92935;2,60846
2801,87819;2,60886
2799,82704;2,60935
2797,77588;2,60839
2795,72473;2,6082
2793,67357;2,60831
2791,62242;2,60548
2789,57126;2,60032
2787,5201;2,60111
2785,46895;2,60843
2783,41779;2,61255
2781,36664;2,60772
2779,31548;2,59892
2777,26433;2,59454
2775,21317;2,5928
2773,16202;2,58803
2771,11086;2,58512
2769,05971;2,58932
2767,00855;2,59283
2764,9574;2,58892
2762,90624;2,58463
2760,85509;2,58351
2758,80393;2,57994
2756,75277;2,57481
2754,70162;2,57083
2752,65046;2,56489
2750,59931;2,55732
2748,54815;2,55242
2746,497;2,54983
2744,44584;2,54584
2742,39469;2,53946
2740,34353;2,53378
2738,29238;2,53045
2736,24122;2,52875
2734,19007;2,52858
2732,13891;2,53007
2730,08776;2,53198
2728,0366;2,53063
2725,98544;2,5281
2723,93429;2,52971
2721,88313;2,53271
2719,83198;2,53468
2717,78082;2,5365
2715,72967;2,53327
2713,67851;2,52385
2711,62736;2,51897
2709,5762;2,52249
2707,52505;2,52439
2705,47389;2,51824
2703,42274;2,51062
2701,37158;2,50743
2699,32043;2,50471
2697,26927;2,49988
2695,21811;2,49574
2693,16696;2,49304
2691,1158;2,49086
2689,06465;2,48968
2687,01349;2,49025
2684,96234;2,49128
2682,91118;2,48868
2680,86003;2,48414
2678,80887;2,48337
2676,75772;2,48487
2674,70656;2,48664
2672,65541;2,48816
2670,60425;2,48676
2668,55309;2,4848
2666,50194;2,4861
2664,45078;2,48655
2662,39963;2,48369
2660,34847;2,48324
2658,29732;2,4868
2656,24616;2,49049
2654,19501;2,4923
2652,14385;2,49331
2650,0927;2,49456
2648,04154;2,49434
2645,99039;2,4929
2643,93923;2,49275
2641,88808;2,49514
2639,83692;2,50086
2637,78576;2,50826
2635,73461;2,512
2633,68345;2,51123
2631,6323;2,51121
2629,58114;2,51251
2627,52999;2,51213
2625,47883;2,51074
2623,42768;2,51033
2621,37652;2,51135
2619,32537;2,50986
2617,27421;2,50481
2615,22306;2,50251
2613,1719;2,50227
2611,12075;2,49866
2609,06959;2,49417
2607,01843;2,49225
2604,96728;2,4915
2602,91612;2,49129
2600,86497;2,49341
2598,81381;2,49644
2596,76266;2,49652
2594,7115;2,49277
2592,66035;2,48852
2590,60919;2,48694
2588,55804;2,48705
2586,50688;2,48594
2584,45573;2,4834
2582,40457;2,48231
2580,35342;2,48324
2578,30226;2,48421
2576,2511;2,48318
2574,19995;2,48098
2572,14879;2,48109
2570,09764;2,48218
2568,04648;2,48183
2565,99533;2,48239
2563,94417;2,48553
2561,89302;2,48856
2559,84186;2,48776
2557,79071;2,48389
2555,73955;2,48278
2553,6884;2,48558
2551,63724;2,48482
2549,58609;2,47957
2547,53493;2,47769
2545,48377;2,48018
2543,43262;2,48274
2541,38146;2,48393
2539,33031;2,48474
2537,27915;2,48737
2535,228;2,48965
2533,17684;2,48955
2531,12569;2,49117
2529,07453;2,49545
2527,02338;2,49951
2524,97222;2,50087
2522,92107;2,49928
2520,86991;2,49891
2518,81876;2,50122
2516,7676;2,50255
2514,71644;2,50241
2512,66529;2,5035
2510,61413;2,50675
2508,56298;2,511
2506,51182;2,51078
2504,46067;2,50469
2502,40951;2,50131
2500,35836;2,50217
2498,3072;2,50039
2496,25605;2,4943
2494,20489;2,48733
2492,15374;2,48272
2490,10258;2,47907
2488,05143;2,47344
2486,00027;2,46561
2483,94911;2,45688
2481,89796;2,44877
2479,8468;2,4429
2477,79565;2,43899
2475,74449;2,43315
2473,69334;2,4254
2471,64218;2,42054
2469,59103;2,41842
2467,53987;2,41503
2465,48872;2,40955
2463,43756;2,40511
2461,38641;2,40263
2459,33525;2,39888
2457,2841;2,39357
2455,23294;2,38904
2453,18178;2,3853
2451,13063;2,3815
2449,07947;2,37892
2447,02832;2,37858
2444,97716;2,37671
2442,92601;2,37097
2440,87485;2,36547
2438,8237;2,36118
2436,77254;2,3549
2434,72139;2,34895
2432,67023;2,34577
2430,61908;2,34248
2428,56792;2,3391
2426,51677;2,33781
2424,46561;2,33749
2422,41445;2,33575
2420,3633;2,33323
2418,31214;2,33292
2416,26099;2,33404
2414,20983;2,33468
2412,15868;2,33594
2410,10752;2,33749
2408,05637;2,33811
2406,00521;2,33907
2403,95406;2,34094
2401,9029;2,34226
2399,85175;2,34354
2397,80059;2,34372
2395,74944;2,34094
2393,69828;2,33627
2391,64712;2,33278
2389,59597;2,33143
2387,54481;2,33068
2385,49366;2,3297
2383,4425;2,32868
2381,39135;2,32684
2379,34019;2,32494
2377,28904;2,324
2375,23788;2,3226
2373,18673;2,32141
2371,13557;2,32228
2369,08442;2,32405
2367,03326;2,32561
2364,9821;2,32726
2362,93095;2,3289
2360,87979;2,32836
2358,82864;2,3225
2356,77748;2,31191
2354,72633;2,30407
2352,67517;2,3057
2350,62402;2,31371
2348,57286;2,31806
2346,52171;2,31545
2344,47055;2,31424
2342,4194;2,31869
2340,36824;2,32188
2338,31709;2,32305
2336,26593;2,32554
2334,21477;2,32695
2332,16362;2,32595
2330,11246;2,32435
2328,06131;2,32502
2326,01015;2,3287
2323,959;2,33087
2321,90784;2,3287
2319,85669;2,3241
2317,80553;2,31921
2315,75438;2,31456
2313,70322;2,31165
2311,65207;2,31161
2309,60091;2,3113
2307,54976;2,30839
2305,4986;2,30568
2303,44744;2,30498
2301,39629;2,30465
2299,34513;2,30356
2297,29398;2,30259
2295,24282;2,30296
2293,19167;2,30481
2291,14051;2,30684
2289,08936;2,30707
2287,0382;2,3055
2284,98705;2,30374
2282,93589;2,30162
2280,88474;2,29947
2278,83358;2,30009
2276,78243;2,30387
2274,73127;2,30737
2272,68011;2,30868
2270,62896;2,30942
2268,5778;2,31146
2266,52665;2,31417
2264,47549;2,31599
2262,42434;2,31726
2260,37318;2,31868
2258,32203;2,31974
2256,27087;2,32018
2254,21972;2,32089
2252,16856;2,32216
2250,11741;2,32326
2248,06625;2,32539
2246,0151;2,32881
2243,96394;2,33187
2241,91278;2,33356
2239,86163;2,333
2237,81047;2,33159
2235,75932;2,33175
2233,70816;2,33197
2231,65701;2,33012
2229,60585;2,3284
2227,5547;2,32899
2225,50354;2,33048
2223,45239;2,33232
2221,40123;2,33404
2219,35008;2,33408
2217,29892;2,3333
2215,24777;2,33346
2213,19661;2,3347
2211,14545;2,33793
2209,0943;2,34368
2207,04314;2,34777
2204,99199;2,34697
2202,94083;2,34532
2200,88968;2,34398
2198,83852;2,3411
2196,78737;2,33979
2194,73621;2,34101
2192,68506;2,34345
2190,6339;2,34559
2188,58275;2,34491
2186,53159;2,34401
2184,48044;2,34556
2182,42928;2,34817
2180,37812;2,35076
2178,32697;2,35275
2176,27581;2,3554
2174,22466;2,35917
2172,1735;2,36152
2170,12235;2,36164
2168,07119;2,36059
2166,02004;2,3589
2163,96888;2,35806
2161,91773;2,35999
2159,86657;2,36327
2157,81542;2,36576
2155,76426;2,36814
2153,71311;2,3714
2151,66195;2,37464
2149,61079;2,37776
2147,55964;2,38273
2145,50848;2,3893
2143,45733;2,39602
2141,40617;2,40202
2139,35502;2,40654
2137,30386;2,41004
2135,25271;2,41083
2133,20155;2,40718
2131,1504;2,4022
2129,09924;2,39841
2127,04809;2,39403
2124,99693;2,3896
2122,94578;2,38765
2120,89462;2,38545
2118,84346;2,38043
2116,79231;2,37554
2114,74115;2,37254
2112,69;2,37013
2110,63884;2,36642
2108,58769;2,36117
2106,53653;2,35676
2104,48538;2,35477
2102,43422;2,3546
2100,38307;2,35415
2098,33191;2,35263
2096,28076;2,35275
2094,2296;2,35538
2092,17844;2,35737
2090,12729;2,3575
2088,07613;2,35781
2086,02498;2,35817
2083,97382;2,35834
2081,92267;2,35879
2079,87151;2,35804
2077,82036;2,35664
2075,7692;2,35647
2073,71805;2,35599
2071,66689;2,35462
2069,61574;2,35478
2067,56458;2,35434
2065,51343;2,35014
2063,46227;2,34658
2061,41111;2,34661
2059,35996;2,34781
2057,3088;2,34891
2055,25765;2,34961
2053,20649;2,35022
2051,15534;2,35089
2049,10418;2,34953
2047,05303;2,34561
2045,00187;2,34273
2042,95072;2,34471
2040,89956;2,35031
2038,84841;2,35463
2036,79725;2,3559
2034,7461;2,35674
2032,69494;2,35902
2030,64378;2,36153
2028,59263;2,36374
2026,54147;2,36726
2024,49032;2,37173
2022,43916;2,37459
2020,38801;2,37448
2018,33685;2,37342
2016,2857;2,37431
2014,23454;2,37635
2012,18339;2,37685
2010,13223;2,37456
2008,08108;2,37028
2006,02992;2,36636
2003,97877;2,3639
2001,92761;2,36284
1999,87645;2,36247
1997,8253;2,36152
1995,77414;2,36029
1993,72299;2,36047
1991,67183;2,36254
1989,62068;2,36443
1987,56952;2,36407
1985,51837;2,36292
1983,46721;2,36284
1981,41606;2,36447
1979,3649;2,3666
1977,31375;2,36891
1975,26259;2,37166
1973,21144;2,37375
1971,16028;2,37565
1969,10912;2,37841
1967,05797;2,38133
1965,00681;2,38513
1962,95566;2,39065
1960,9045;2,39811
1958,85335;2,40409
1956,80219;2,40651
1954,75104;2,41115
1952,69988;2,42185
1950,64873;2,43517
1948,59757;2,4476
1946,54642;2,4579
1944,49526;2,46138
1942,44411;2,4543
1940,39295;2,44397
1938,34179;2,43663
1936,29064;2,43089
1934,23948;2,42302
1932,18833;2,41489
1930,13717;2,41117
1928,08602;2,4111
1926,03486;2,4127
1923,98371;2,416
1921,93255;2,42252
1919,8814;2,43013
1917,83024;2,4371
1915,77909;2,44648
1913,72793;2,45701
1911,67678;2,46518
1909,62562;2,46662
1907,57446;2,46091
1905,52331;2,45
1903,47215;2,43693
1901,421;2,42686
1899,36984;2,42311
1897,31869;2,42408
1895,26753;2,42593
1893,21638;2,42747
1891,16522;2,42895
1889,11407;2,43303
1887,06291;2,43988
1885,01176;2,44594
1882,9606;2,45395
1880,90945;2,46478
1878,85829;2,47372
1876,80713;2,47726
1874,75598;2,47618
1872,70482;2,47266
1870,65367;2,46563
1868,60251;2,45817
1866,55136;2,4567
1864,5002;2,45835
1862,44905;2,45942
1860,39789;2,45992
1858,34674;2,45936
1856,29558;2,45941
1854,24443;2,46434
1852,19327;2,47313
1850,14212;2,48023
1848,09096;2,48471
1846,0398;2,48765
1843,98865;2,49089
1841,93749;2,4973
1839,88634;2,5032
1837,83518;2,5105
1835,78403;2,52304
1833,73287;2,53705
1831,68172;2,54782
1829,63056;2,55565
1827,57941;2,56045
1825,52825;2,56133
1823,4771;2,56377
1821,42594;2,5661
1819,37478;2,56535
1817,32363;2,56491
1815,27247;2,56737
1813,22132;2,5712
1811,17016;2,575
1809,11901;2,58153
1807,06785;2,59432
1805,0167;2,61392
1802,96554;2,63535
1800,91439;2,65292
1798,86323;2,66763
1796,81208;2,68122
1794,76092;2,68888
1792,70977;2,68489
1790,65861;2,67359
1788,60745;2,66115
1786,5563;2,64837
1784,50514;2,63903
1782,45399;2,63661
1780,40283;2,64048
1778,35168;2,6486
1776,30052;2,65584
1774,24937;2,65977
1772,19821;2,66494
1770,14706;2,67533
1768,0959;2,6855
1766,04475;2,69654
1763,99359;2,70768
1761,94244;2,71869
1759,89128;2,73213
1757,84012;2,74272
1755,78897;2,75241
1753,73781;2,76506
1751,68666;2,78191
1749,6355;2,80396
1747,58435;2,82176
1745,53319;2,83152
1743,48204;2,83817
1741,43088;2,84503
1739,37973;2,8508
1737,32857;2,85324
1735,27742;2,8533
1733,22626;2,86399
1731,17511;2,87654
1729,12395;2,87515
1727,07279;2,87171
1725,02164;2,877
1722,97048;2,88739
1720,91933;2,88961
1718,86817;2,88407
1716,81702;2,89036
1714,76586;2,90988
1712,71471;2,92947
1710,66355;2,94203
1708,6124;2,94961
1706,56124;2,95886
1704,51009;2,97058
1702,45893;2,97226
1700,40778;2,96803
1698,35662;2,97922
1696,30546;2,98701
1694,25431;2,98862
1692,20315;2,99611
1690,152;3,01332
1688,10084;3,03357
1686,04969;3,03229
1683,99853;3,01671
1681,94738;3,01967
1679,89622;3,0257
1677,84507;3,02348
1675,79391;3,02486
1673,74276;3,03454
1671,6916;3,03349
1669,64045;3,01974
1667,58929;3,01296
1665,53813;3,00989
1663,48698;2,99817
1661,43582;2,98722
1659,38467;2,99017
1657,33351;3,00184
1655,28236;3,00165
1653,2312;2,9812
1651,18005;2,97146
1649,12889;2,97337
1647,07774;2,97567
1645,02658;2,98065
1642,97543;2,9825
1640,92427;2,97963
1638,87312;2,9647
1636,82196;2,91404
1634,7708;2,83164
1632,71965;2,75549
1630,66849;2,68815
1628,61734;2,62272
1626,56618;2,57238
1624,51503;2,55131
1622,46387;2,56596
1620,41272;2,6007
1618,36156;2,62118
1616,31041;2,61691
1614,25925;2,60323
1612,2081;2,59188
1610,15694;2,58708
1608,10579;2,58824
1606,05463;2,59222
1604,00347;2,59644
1601,95232;2,5999
1599,90116;2,60404
1597,85001;2,61235
1595,79885;2,62774
1593,7477;2,64932
1591,69654;2,67086
1589,64539;2,68433
1587,59423;2,6839
1585,54308;2,67078
1583,49192;2,65828
1581,44077;2,65839
1579,38961;2,66604
1577,33846;2,67029
1575,2873;2,67638
1573,23614;2,68574
1571,18499;2,68837
1569,13383;2,69146
1567,08268;2,69998
1565,03152;2,70906
1562,98037;2,71733
1560,92921;2,71252
1558,87806;2,70415
1556,8269;2,71482
1554,77575;2,71856
1552,72459;2,71408
1550,67344;2,71326
1548,62228;2,71724
1546,57113;2,72111
1544,51997;2,72472
1542,46881;2,72783
1540,41766;2,72074
1538,3665;2,71493
1536,31535;2,71249
1534,26419;2,70163
1532,21304;2,69409
1530,16188;2,69502
1528,11073;2,69616
1526,05957;2,69815
1524,00842;2,69937
1521,95726;2,69825
1519,90611;2,70441
1517,85495;2,71029
1515,80379;2,71065
1513,75264;2,71227
1511,70148;2,71758
1509,65033;2,7243
1507,59917;2,72355
1505,54802;2,71935
1503,49686;2,71857
1501,44571;2,71851
1499,39455;2,72259
1497,3434;2,73396
1495,29224;2,75282
1493,24109;2,77559
1491,18993;2,79715
1489,13878;2,80988
1487,08762;2,79583
1485,03646;2,75314
1482,98531;2,70152
1480,93415;2,66822
1478,883;2,66669
1476,83184;2,68488
1474,78069;2,70764
1472,72953;2,73322
1470,67838;2,76833
1468,62722;2,7992
1466,57607;2,79108
1464,52491;2,72433
1462,47376;2,64366
1460,4226;2,59472
1458,37145;2,58096
1456,32029;2,59646
1454,26913;2,6202
1452,21798;2,6335
1450,16682;2,64091
1448,11567;2,64731
1446,06451;2,65322
1444,01336;2,65851
1441,9622;2,66407
1439,91105;2,66696
1437,85989;2,66316
1435,80874;2,66465
1433,75758;2,67547
1431,70643;2,68198
1429,65527;2,68593
1427,60412;2,69353
1425,55296;2,70307
1423,5018;2,71692
1421,45065;2,72994
1419,39949;2,73078
1417,34834;2,7259
1415,29718;2,72004
1413,24603;2,71222
1411,19487;2,70538
1409,14372;2,69957
1407,09256;2,69162
1405,04141;2,68513
1402,99025;2,68864
1400,9391;2,6952
1398,88794;2,69111
1396,83679;2,67568
1394,78563;2,65972
1392,73447;2,65326
1390,68332;2,65066
1388,63216;2,64424
1386,58101;2,63824
1384,52985;2,63781
1382,4787;2,64118
1380,42754;2,6473
1378,37639;2,65574
1376,32523;2,66369
1374,27408;2,66786
1372,22292;2,66923
1370,17177;2,66795
1368,12061;2,6664
1366,06946;2,66789
1364,0183;2,67102
1361,96714;2,67446
1359,91599;2,67378
1357,86483;2,66825
1355,81368;2,66753
1353,76252;2,67517
1351,71137;2,68494
1349,66021;2,69418
1347,60906;2,70472
1345,5579;2,71404
1343,50675;2,71667
1341,45559;2,71465
1339,40444;2,71756
1337,35328;2,72603
1335,30213;2,73158
1333,25097;2,73226
1331,19981;2,73238
1329,14866;2,73665
1327,0975;2,74428
1325,04635;2,74905
1322,99519;2,74633
1320,94404;2,73229
1318,89288;2,70547
1316,84173;2,67794
1314,79057;2,66351
1312,73942;2,66299
1310,68826;2,66744
1308,63711;2,67178
1306,58595;2,67884
1304,5348;2,68477
1302,48364;2,68008
1300,43248;2,66332
1298,38133;2,64302
1296,33017;2,62634
1294,27902;2,61729
1292,22786;2,62
1290,17671;2,62947
1288,12555;2,63525
1286,0744;2,6368
1284,02324;2,64004
1281,97209;2,64545
1279,92093;2,64905
1277,86978;2,65154
1275,81862;2,65588
1273,76747;2,6609
1271,71631;2,66502
1269,66515;2,66919
1267,614;2,67623
1265,56284;2,68512
1263,51169;2,69093
1261,46053;2,69523
1259,40938;2,69905
1257,35822;2,69848
1255,30707;2,6971
1253,25591;2,69794
1251,20476;2,69617
1249,1536;2,69308
1247,10245;2,69693
1245,05129;2,70597
1243,00013;2,71117
1240,94898;2,71268
1238,89782;2,71376
1236,84667;2,71522
1234,79551;2,72039
1232,74436;2,72934
1230,6932;2,73553
1228,64205;2,73638
1226,59089;2,73514
1224,53974;2,73434
1222,48858;2,73566
1220,43743;2,74125
1218,38627;2,74872
1216,33512;2,75289
1214,28396;2,75638
1212,2328;2,76216
1210,18165;2,76953
1208,13049;2,78161
1206,07934;2,79494
1204,02818;2,79488
1201,97703;2,76963
1199,92587;2,73538
1197,87472;2,71348
1195,82356;2,70122
1193,77241;2,6928
1191,72125;2,68922
1189,6701;2,69133
1187,61894;2,69619
1185,56779;2,7021
1183,51663;2,71055
1181,46547;2,71268
1179,41432;2,69661
1177,36316;2,66944
1175,31201;2,64475
1173,26085;2,62586
1171,2097;2,61077
1169,15854;2,59971
1167,10739;2,59535
1165,05623;2,59958
1163,00508;2,61352
1160,95392;2,63188
1158,90277;2,64846
1156,85161;2,66541
1154,80046;2,6857
1152,7493;2,70749
1150,69814;2,72683
1148,64699;2,74094
1146,59583;2,7478
1144,54468;2,75033
1142,49352;2,75631
1140,44237;2,76447
1138,39121;2,76607
1136,34006;2,75666
1134,2889;2,72983
1132,23775;2,68687
1130,18659;2,64541
1128,13544;2,61191
1126,08428;2,58286
1124,03313;2,56627
1121,98197;2,56966
1119,93081;2,5845
1117,87966;2,60068
1115,8285;2,61235
1113,77735;2,61863
1111,72619;2,62756
1109,67504;2,64087
1107,62388;2,64645
1105,57273;2,63948
1103,52157;2,63564
1101,47042;2,63929
1099,41926;2,63814
1097,36811;2,63176
1095,31695;2,62825
1093,2658;2,6338
1091,21464;2,65522
1089,16348;2,69222
1087,11233;2,73104
1085,06117;2,7372
1083,01002;2,67849
1080,95886;2,58533
1078,90771;2,50538
1076,85655;2,45431
1074,8054;2,42835
1072,75424;2,4153
1070,70309;2,40614
1068,65193;2,40275
1066,60078;2,40711
1064,54962;2,4167
1062,49847;2,43012
1060,44731;2,44385
1058,39615;2,45554
1056,345;2,46706
1054,29384;2,47577
1052,24269;2,47962
1050,19153;2,48448
1048,14038;2,49253
1046,08922;2,50018
1044,03807;2,50352
1041,98691;2,5006
1039,93576;2,49653
1037,8846;2,49632
1035,83345;2,4964
1033,78229;2,49707
1031,73114;2,50466
1029,67998;2,51377
1027,62882;2,51433
1025,57767;2,50799
1023,52651;2,50505
1021,47536;2,50905
1019,4242;2,5132
1017,37305;2,51729
1015,32189;2,52369
1013,27074;2,52227
1011,21958;2,50715
1009,16843;2,49255
1007,11727;2,49075
1005,06612;2,49683
1003,01496;2,50069
1000,96381;2,50143
998,91265;2,50143
996,86149;2,49892
994,81034;2,49749
992,75918;2,50153
990,70803;2,50558
988,65687;2,50697
986,60572;2,50842
984,55456;2,50986
982,50341;2,51124
980,45225;2,51267
978,4011;2,51485
976,34994;2,51653
974,29879;2,51578
972,24763;2,51478
970,19647;2,51378
968,14532;2,5142
966,09416;2,51694
964,04301;2,51536
961,99185;2,50951
959,9407;2,50747
957,88954;2,51142
955,83839;2,51655
953,78723;2,51694
951,73608;2,51863
949,68492;2,52563
947,63377;2,52886
945,58261;2,52654
943,53146;2,52254
941,4803;2,52125
939,42914;2,52607
937,37799;2,53336
935,32683;2,53417
933,27568;2,52486
931,22452;2,51721
929,17337;2,51716
927,12221;2,52017
925,07106;2,52547
923,0199;2,5295
920,96875;2,53113
918,91759;2,53543
916,86644;2,53971
914,81528;2,54214
912,76413;2,54522
910,71297;2,54825
908,66181;2,55278
906,61066;2,55389
904,5595;2,54728
902,50835;2,54329
900,45719;2,54535
898,40604;2,54729
896,35488;2,5474
894,30373;2,54822
892,25257;2,55337
890,20142;2,55886
888,15026;2,55902
886,09911;2,55888
884,04795;2,56637
881,9968;2,57698
879,94564;2,57482
877,89448;2,55735
875,84333;2,53963
873,79217;2,52978
871,74102;2,52837
869,68986;2,53805
867,63871;2,55313
865,58755;2,56339
863,5364;2,57003
861,48524;2,57551
859,43409;2,5724
857,38293;2,55648
855,33178;2,5408
853,28062;2,54082
851,22947;2,55287
849,17831;2,55881
847,12715;2,55249
845,076;2,54883
843,02484;2,55318
840,97369;2,55219
838,92253;2,54332
836,87138;2,53828
834,82022;2,54183
832,76907;2,54757
830,71791;2,55363
828,66676;2,5634
826,6156;2,57253
824,56445;2,57015
822,51329;2,5611
820,46214;2,55765
818,41098;2,5567
816,35982;2,55542
814,30867;2,55557
812,25751;2,55796
810,20636;2,56772
808,1552;2,58101
806,10405;2,5904
804,05289;2,60322
802,00174;2,61678
799,95058;2,61744
797,89943;2,61448
795,84827;2,62059
793,79712;2,63094
791,74596;2,63482
789,69481;2,62912
787,64365;2,62046
785,59249;2,6072
783,54134;2,59694
781,49018;2,59853
779,43903;2,60364
777,38787;2,61133
775,33672;2,6292
773,28556;2,65065
771,23441;2,65842
769,18325;2,65838
767,1321;2,65964
765,08094;2,64575
763,02979;2,62957
760,97863;2,63919
758,92748;2,65784
756,87632;2,6475
754,82516;2,60222
752,77401;2,55306
750,72285;2,52937
748,6717;2,52903
746,62054;2,53176
744,56939;2,53264
742,51823;2,54
740,46708;2,55445
738,41592;2,57023
736,36477;2,5786
734,31361;2,5788
732,26246;2,5794
730,2113;2,5871
728,16015;2,60423
726,10899;2,61865
724,05783;2,61437
722,00668;2,59925
719,95552;2,59184
717,90437;2,58876
715,85321;2,57435
713,80206;2,55221
711,7509;2,5335
709,69975;2,52334
707,64859;2,52763
705,59744;2,54374
703,54628;2,55057
701,49513;2,52763
699,44397;2,48328
697,39281;2,4454
695,34166;2,43058
693,2905;2,43645
691,23935;2,45113
689,18819;2,46402
687,13704;2,47104
685,08588;2,47322
683,03473;2,47667
680,98357;2,48893
678,93242;2,50679
676,88126;2,51769
674,83011;2,51951
672,77895;2,5232
670,7278;2,53051
668,67664;2,53694
666,62548;2,54247
664,57433;2,53837
662,52317;2,52605
660,47202;2,52377
658,42086;2,53476
656,36971;2,5442
654,31855;2,53914
652,2674;2,52547
650,21624;2,5189
648,16509;2,51994
646,11393;2,52543
644,06278;2,53298
642,01162;2,52948
639,96047;2,51338
637,90931;2,49975
635,85815;2,4964
633,807;2,49953
631,75584;2,50091
629,70469;2,49629
627,65353;2,49438
625,60238;2,51342
623,55122;2,5389
621,50007;2,53719
619,44891;2,51866
617,39776;2,50361
615,3466;2,49672
613,29545;2,50898
611,24429;2,52585
609,19314;2,52274
607,14198;2,50694
605,09082;2,48978
603,03967;2,4771
600,98851;2,47983
598,93736;2,49931
596,8862;2,51685
594,83505;2,51577
592,78389;2,5097
590,73274;2,51436
588,68158;2,51773
586,63043;2,50881
584,57927;2,49838
582,52812;2,49648
580,47696;2,49942
578,42581;2,50346
576,37465;2,51255
574,32349;2,52224
572,27234;2,52519
570,22118;2,52889
568,17003;2,52782
566,11887;2,48863
564,06772;2,41651
562,01656;2,35597
559,96541;2,33021
557,91425;2,33508
555,8631;2,35591
553,81194;2,37846
551,76079;2,39485
549,70963;2,40924
547,65848;2,42839
545,60732;2,43797
543,55616;2,42392
541,50501;2,40714
539,45385;2,40669
537,4027;2,41
535,35154;2,40436
533,30039;2,39768
531,24923;2,40439
529,19808;2,42312
527,14692;2,43269
525,09577;2,42316
523,04461;2,41355
520,99346;2,41915
518,9423;2,42815
516,89115;2,42171
514,83999;2,4106
512,78883;2,41391
510,73768;2,42027
508,68652;2,40751
506,63537;2,38332
504,58421;2,36637
502,53306;2,35707
500,4819;2,35218
498,43075;2,35453
496,37959;2,36668
494,32844;2,38233
492,27728;2,38933
490,22613;2,38203
488,17497;2,36645
486,12382;2,35449
484,07266;2,36027
482,0215;2,3857
479,97035;2,40516
477,91919;2,40244
475,86804;2,3999
473,81688;2,41491
471,76573;2,43154
469,71457;2,43038
467,66342;2,42044
465,61226;2,4174
463,56111;2,41448
461,50995;2,40404
459,4588;2,39046
457,40764;2,39001
455,35649;2,40108
453,30533;2,39913
451,25417;2,39044
449,20302;2,38868
447,15186;2,38801
445,10071;2,38249
443,04955;2,37569
440,9984;2,36428
438,94724;2,34936
436,89609;2,35339
434,84493;2,3858
432,79378;2,4167
430,74262;2,41668
428,69147;2,39479
426,64031;2,37298
424,58916;2,34983
422,538;2,32943
420,48684;2,32506
418,43569;2,3375
416,38453;2,35017
414,33338;2,34981
412,28222;2,35801
410,23107;2,39435
408,17991;2,43538
406,12876;2,44318
404,0776;2,40809
402,02645;2,36233
399,97529;2,32717
