3997,70175;1,84298
3995,6506;1,84394
3993,59944;1,84544
3991,54829;1,8473
3989,49713;1,84914
3987,44598;1,85058
3985,39482;1,85126
3983,34367;1,85123
3981,29251;1,85126
3979,24136;1,85265
3977,1902;1,85489
3975,13905;1,85646
3973,08789;1,85718
3971,03673;1,85816
3968,98558;1,85994
3966,93442;1,86203
3964,88327;1,86343
3962,83211;1,86428
3960,78096;1,86639
3958,7298;1,87026
3956,67865;1,87449
3954,62749;1,87747
3952,57634;1,87889
3950,52518;1,87974
3948,47403;1,88051
3946,42287;1,88193
3944,37172;1,88333
3942,32056;1,88348
3940,2694;1,88202
3938,21825;1,87908
3936,16709;1,87615
3934,11594;1,87273
3932,06478;1,86918
3930,01363;1,86698
3927,96247;1,86462
3925,91132;1,86033
3923,86016;1,85577
3921,80901;1,85224
3919,75785;1,84824
3917,7067;1,84256
3915,65554;1,83669
3913,60439;1,83197
3911,55323;1,82751
3909,50207;1,82381
3907,45092;1,82126
3905,39976;1,82008
3903,34861;1,82123
3901,29745;1,8213
3899,2463;1,81802
3897,19514;1,81578
3895,14399;1,81453
3893,09283;1,81075
3891,04168;1,80683
3888,99052;1,80739
3886,93937;1,80763
3884,88821;1,80725
3882,83706;1,8067
3880,7859;1,80349
3878,73474;1,80351
3876,68359;1,80545
3874,63243;1,8066
3872,58128;1,80854
3870,53012;1,80685
3868,47897;1,80491
3866,42781;1,80288
3864,37666;1,79867
3862,3255;1,79606
3860,27435;1,79589
3858,22319;1,79793
3856,17204;1,79803
3854,12088;1,79292
3852,06973;1,79006
3850,01857;1,79021
3847,96741;1,78892
3845,91626;1,78748
3843,8651;1,78816
3841,81395;1,79098
3839,76279;1,79171
3837,71164;1,79014
3835,66048;1,78926
3833,60933;1,78756
3831,55817;1,78598
3829,50702;1,78726
3827,45586;1,78909
3825,40471;1,7916
3823,35355;1,79166
3821,3024;1,78933
3819,25124;1,79248
3817,20008;1,7928
3815,14893;1,79035
3813,09777;1,79178
3811,04662;1,7934
3808,99546;1,79253
3806,94431;1,79207
3804,89315;1,79687
3802,842;1,79948
3800,79084;1,80036
3798,73969;1,80252
3796,68853;1,80093
3794,63738;1,79918
3792,58622;1,79899
3790,53506;1,79957
3788,48391;1,80081
3786,43275;1,80175
3784,3816;1,80318
3782,33044;1,80594
3780,27929;1,80753
3778,22813;1,80836
3776,17698;1,80911
3774,12582;1,81046
3772,07467;1,81318
3770,02351;1,81655
3767,97236;1,82005
3765,9212;1,82135
3763,87005;1,82337
3761,81889;1,82552
3759,76773;1,82598
3757,71658;1,82792
3755,66542;1,83217
3753,61427;1,8359
3751,56311;1,83768
3749,51196;1,84036
3747,4608;1,84369
3745,40965;1,84263
3743,35849;1,84559
3741,30734;1,85323
3739,25618;1,8573
3737,20503;1,85999
3735,15387;1,86446
3733,10272;1,86946
3731,05156;1,8754
3729,0004;1,88217
3726,94925;1,88625
3724,89809;1,88925
3722,84694;1,8917
3720,79578;1,89465
3718,74463;1,90032
3716,69347;1,90858
3714,64232;1,91673
3712,59116;1,92327
3710,54001;1,93058
3708,48885;1,94013
3706,4377;1,95192
3704,38654;1,96688
3702,33539;1,98759
3700,28423;2,01534
3698,23307;2,04372
3696,18192;2,06696
3694,13076;2,083
3692,07961;2,08959
3690,02845;2,08682
3687,9773;2,07962
3685,92614;2,07552
3683,87499;2,07553
3681,82383;2,0802
3679,77268;2,08958
3677,72152;2,10184
3675,67037;2,11791
3673,61921;2,13828
3671,56806;2,15182
3669,5169;2,16319
3667,46574;2,1799
3665,41459;2,19591
3663,36343;2,21163
3661,31228;2,22953
3659,26112;2,2487
3657,20997;2,26896
3655,15881;2,29498
3653,10766;2,32506
3651,0565;2,35642
3649,00535;2,39233
3646,95419;2,42473
3644,90304;2,44581
3642,85188;2,45452
3640,80073;2,45223
3638,74957;2,44554
3636,69841;2,44421
3634,64726;2,4492
3632,5961;2,45353
3630,54495;2,45173
3628,49379;2,4535
3626,44264;2,46754
3624,39148;2,48169
3622,34033;2,49357
3620,28917;2,50542
3618,23802;2,51466
3616,18686;2,51886
3614,13571;2,52119
3612,08455;2,52805
3610,0334;2,53561
3607,98224;2,53959
3605,93108;2,54328
3603,87993;2,54603
3601,82877;2,54684
3599,77762;2,55105
3597,72646;2,56094
3595,67531;2,56815
3593,62415;2,56987
3591,573;2,57244
3589,52184;2,57554
3587,47069;2,5769
3585,41953;2,58195
3583,36838;2,59131
3581,31722;2,59945
3579,26607;2,60461
3577,21491;2,60693
3575,16375;2,60552
3573,1126;2,60226
3571,06144;2,6012
3569,01029;2,60277
3566,95913;2,60812
3564,90798;2,62094
3562,85682;2,6369
3560,80567;2,64402
3558,75451;2,63652
3556,70336;2,62778
3554,6522;2,63321
3552,60105;2,64481
3550,54989;2,64483
3548,49874;2,63487
3546,44758;2,62743
3544,39642;2,62725
3542,34527;2,63408
3540,29411;2,64493
3538,24296;2,64906
3536,1918;2,64112
3534,14065;2,63213
3532,08949;2,63117
3530,03834;2,63397
3527,98718;2,63611
3525,93603;2,63988
3523,88487;2,64427
3521,83372;2,64558
3519,78256;2,64215
3517,73141;2,63457
3515,68025;2,62865
3513,62909;2,62933
3511,57794;2,63182
3509,52678;2,62952
3507,47563;2,62575
3505,42447;2,6244
3503,37332;2,62318
3501,32216;2,6218
3499,27101;2,62067
3497,21985;2,61616
3495,1687;2,60727
3493,11754;2,60096
3491,06639;2,60071
3489,01523;2,60245
3486,96407;2,60583
3484,91292;2,61079
3482,86176;2,61184
3480,81061;2,60785
3478,75945;2,60144
3476,7083;2,59591
3474,65714;2,59619
3472,60599;2,60111
3470,55483;2,60452
3468,50368;2,60684
3466,45252;2,61144
3464,40137;2,61369
3462,35021;2,60493
3460,29906;2,58954
3458,2479;2,58322
3456,19674;2,59084
3454,14559;2,59803
3452,09443;2,59347
3450,04328;2,58212
3447,99212;2,57347
3445,94097;2,57655
3443,88981;2,58546
3441,83866;2,588
3439,7875;2,58535
3437,73635;2,58198
3435,68519;2,58063
3433,63404;2,58254
3431,58288;2,58403
3429,53173;2,58106
3427,48057;2,57527
3425,42941;2,56917
3423,37826;2,56141
3421,3271;2,55288
3419,27595;2,55142
3417,22479;2,5562
3415,17364;2,5548
3413,12248;2,54608
3411,07133;2,54103
3409,02017;2,54034
3406,96902;2,53792
3404,91786;2,53522
3402,86671;2,53401
3400,81555;2,53256
3398,7644;2,5296
3396,71324;2,53007
3394,66208;2,53689
3392,61093;2,54193
3390,55977;2,5407
3388,50862;2,53543
3386,45746;2,52947
3384,40631;2,52809
3382,35515;2,5309
3380,304;2,53231
3378,25284;2,53047
3376,20169;2,53041
3374,15053;2,53282
3372,09938;2,5301
3370,04822;2,52621
3367,99707;2,52781
3365,94591;2,52953
3363,89475;2,52721
3361,8436;2,52325
3359,79244;2,52019
3357,74129;2,52022
3355,69013;2,52478
3353,63898;2,52815
3351,58782;2,52397
3349,53667;2,51521
3347,48551;2,50857
3345,43436;2,5076
3343,3832;2,50855
3341,33205;2,50709
3339,28089;2,50723
3337,22974;2,51158
3335,17858;2,51558
3333,12742;2,51682
3331,07627;2,51591
3329,02511;2,51226
3326,97396;2,50604
3324,9228;2,50155
3322,87165;2,50204
3320,82049;2,50343
3318,76934;2,50105
3316,71818;2,49772
3314,66703;2,49661
3312,61587;2,49389
3310,56472;2,48594
3308,51356;2,47788
3306,46241;2,47774
3304,41125;2,48193
3302,36009;2,48255
3300,30894;2,48234
3298,25778;2,48458
3296,20663;2,48517
3294,15547;2,48183
3292,10432;2,47671
3290,05316;2,47321
3288,00201;2,47257
3285,95085;2,47267
3283,8997;2,47271
3281,84854;2,47235
3279,79739;2,47166
3277,74623;2,47218
3275,69508;2,47268
3273,64392;2,47272
3271,59276;2,47399
3269,54161;2,47561
3267,49045;2,47568
3265,4393;2,47424
3263,38814;2,47283
3261,33699;2,47106
3259,28583;2,46672
3257,23468;2,46207
3255,18352;2,46254
3253,13237;2,46662
3251,08121;2,46627
3249,03006;2,46138
3246,9789;2,4587
3244,92775;2,45881
3242,87659;2,46029
3240,82543;2,46099
3238,77428;2,45704
3236,72312;2,45138
3234,67197;2,45074
3232,62081;2,45553
3230,56966;2,4597
3228,5185;2,45907
3226,46735;2,45689
3224,41619;2,45466
3222,36504;2,45147
3220,31388;2,45022
3218,26273;2,45064
3216,21157;2,44978
3214,16041;2,44799
3212,10926;2,44747
3210,0581;2,4492
3208,00695;2,45073
3205,95579;2,45005
3203,90464;2,44907
3201,85348;2,45024
3199,80233;2,45128
3197,75117;2,44842
3195,70002;2,44432
3193,64886;2,44335
3191,59771;2,44462
3189,54655;2,44549
3187,4954;2,44627
3185,44424;2,44591
3183,39308;2,44279
3181,34193;2,4393
3179,29077;2,43677
3177,23962;2,43542
3175,18846;2,43674
3173,13731;2,43983
3171,08615;2,44008
3169,035;2,43762
3166,98384;2,43837
3164,93269;2,44116
3162,88153;2,44113
3160,83038;2,44195
3158,77922;2,44756
3156,72807;2,45263
3154,67691;2,45166
3152,62575;2,44693
3150,5746;2,44146
3148,52344;2,43652
3146,47229;2,43694
3144,42113;2,44204
3142,36998;2,44271
3140,31882;2,43857
3138,26767;2,43585
3136,21651;2,43552
3134,16536;2,4372
3132,1142;2,43872
3130,06305;2,43726
3128,01189;2,43572
3125,96074;2,43659
3123,90958;2,43718
3121,85842;2,43432
3119,80727;2,42933
3117,75611;2,4275
3115,70496;2,43164
3113,6538;2,43927
3111,60265;2,44442
3109,55149;2,44369
3107,50034;2,43994
3105,44918;2,43735
3103,39803;2,43704
3101,34687;2,43721
3099,29572;2,43628
3097,24456;2,43423
3095,19341;2,43177
3093,14225;2,42941
3091,09109;2,42822
3089,03994;2,4298
3086,98878;2,43182
3084,93763;2,43263
3082,88647;2,43513
3080,83532;2,43716
3078,78416;2,43449
3076,73301;2,42971
3074,68185;2,42758
3072,6307;2,42884
3070,57954;2,43012
3068,52839;2,42917
3066,47723;2,42723
3064,42608;2,42534
3062,37492;2,42469
3060,32376;2,42526
3058,27261;2,42635
3056,22145;2,42932
3054,1703;2,43278
3052,11914;2,43441
3050,06799;2,43314
3048,01683;2,42718
3045,96568;2,42017
3043,91452;2,41921
3041,86337;2,4241
3039,81221;2,42777
3037,76106;2,42788
3035,7099;2,42831
3033,65875;2,42893
3031,60759;2,4268
3029,55643;2,42448
3027,50528;2,42461
3025,45412;2,42514
3023,40297;2,42471
3021,35181;2,42561
3019,30066;2,42869
3017,2495;2,43174
3015,19835;2,43243
3013,14719;2,42839
3011,09604;2,4226
3009,04488;2,42105
3006,99373;2,42349
3004,94257;2,42793
3002,89142;2,43344
3000,84026;2,43615
2998,7891;2,43479
2996,73795;2,43445
2994,68679;2,43813
2992,63564;2,44384
2990,58448;2,45042
2988,53333;2,45513
2986,48217;2,45369
2984,43102;2,44955
2982,37986;2,44908
2980,32871;2,45059
2978,27755;2,45179
2976,2264;2,45431
2974,17524;2,45744
2972,12409;2,45983
2970,07293;2,46059
2968,02177;2,45726
2965,97062;2,45345
2963,91946;2,45451
2961,86831;2,45827
2959,81715;2,46237
2957,766;2,46682
2955,71484;2,46996
2953,66369;2,46854
2951,61253;2,46492
2949,56138;2,46358
2947,51022;2,4643
2945,45907;2,46751
2943,40791;2,47247
2941,35675;2,47285
2939,3056;2,46781
2937,25444;2,46392
2935,20329;2,46336
2933,15213;2,46436
2931,10098;2,46481
2929,04982;2,46415
2926,99867;2,46431
2924,94751;2,46429
2922,89636;2,46215
2920,8452;2,45705
2918,79405;2,45209
2916,74289;2,45181
2914,69174;2,45377
2912,64058;2,45422
2910,58942;2,45321
2908,53827;2,45172
2906,48711;2,45183
2904,43596;2,45349
2902,3848;2,45334
2900,33365;2,4506
2898,28249;2,44578
2896,23134;2,44026
2894,18018;2,43855
2892,12903;2,442
2890,07787;2,44516
2888,02672;2,44386
2885,97556;2,44217
2883,92441;2,44264
2881,87325;2,44197
2879,82209;2,43934
2877,77094;2,43794
2875,71978;2,43957
2873,66863;2,44253
2871,61747;2,444
2869,56632;2,44204
2867,51516;2,43794
2865,46401;2,43633
2863,41285;2,43757
2861,3617;2,43572
2859,31054;2,43099
2857,25939;2,42866
2855,20823;2,42843
2853,15708;2,42752
2851,10592;2,42516
2849,05476;2,42322
2847,00361;2,42352
2844,95245;2,42398
2842,9013;2,42071
2840,85014;2,41386
2838,79899;2,40772
2836,74783;2,40494
2834,69668;2,4041
2832,64552;2,40095
2830,59437;2,39479
2828,54321;2,38906
2826,49206;2,38605
2824,4409;2,38501
2822,38975;2,38277
2820,33859;2,37943
2818,28743;2,37686
2816,23628;2,37481
2814,18512;2,37301
2812,13397;2,3703
2810,08281;2,36578
2808,03166;2,3617
2805,9805;2,35943
2803,92935;2,35915
2801,87819;2,36111
2799,82704;2,36213
2797,77588;2,3602
2795,72473;2,35779
2793,67357;2,35607
2791,62242;2,35335
2789,57126;2,34981
2787,5201;2,34775
2785,46895;2,34611
2783,41779;2,3441
2781,36664;2,34128
2779,31548;2,33714
2777,26433;2,3354
2775,21317;2,33597
2773,16202;2,33547
2771,11086;2,33532
2769,05971;2,33547
2767,00855;2,33412
2764,9574;2,33141
2762,90624;2,32753
2760,85509;2,32415
2758,80393;2,32294
2756,75277;2,32342
2754,70162;2,32276
2752,65046;2,32015
2750,59931;2,31827
2748,54815;2,31789
2746,497;2,31756
2744,44584;2,31607
2742,39469;2,31464
2740,34353;2,31603
2738,29238;2,31811
2736,24122;2,31798
2734,19007;2,31823
2732,13891;2,31863
2730,08776;2,31599
2728,0366;2,31259
2725,98544;2,31162
2723,93429;2,31126
2721,88313;2,31021
2719,83198;2,30998
2717,78082;2,31143
2715,72967;2,31265
2713,67851;2,31105
2711,62736;2,30836
2709,5762;2,3059
2707,52505;2,30327
2705,47389;2,30184
2703,42274;2,3016
2701,37158;2,30079
2699,32043;2,29988
2697,26927;2,30029
2695,21811;2,29999
2693,16696;2,29747
2691,1158;2,29494
2689,06465;2,29406
2687,01349;2,29361
2684,96234;2,29157
2682,91118;2,2897
2680,86003;2,2901
2678,80887;2,29064
2676,75772;2,29023
2674,70656;2,28965
2672,65541;2,28989
2670,60425;2,2916
2668,55309;2,29138
2666,50194;2,28815
2664,45078;2,28669
2662,39963;2,28897
2660,34847;2,29164
2658,29732;2,29144
2656,24616;2,28974
2654,19501;2,28954
2652,14385;2,29062
2650,0927;2,29066
2648,04154;2,28956
2645,99039;2,28936
2643,93923;2,29016
2641,88808;2,29155
2639,83692;2,29575
2637,78576;2,30203
2635,73461;2,30609
2633,68345;2,30885
2631,6323;2,31397
2629,58114;2,31997
2627,52999;2,32441
2625,47883;2,32801
2623,42768;2,33156
2621,37652;2,33462
2619,32537;2,33676
2617,27421;2,33894
2615,22306;2,34203
2613,1719;2,34603
2611,12075;2,35034
2609,06959;2,3532
2607,01843;2,35495
2604,96728;2,35661
2602,91612;2,35724
2600,86497;2,35765
2598,81381;2,35932
2596,76266;2,36143
2594,7115;2,36178
2592,66035;2,36006
2590,60919;2,3594
2588,55804;2,36017
2586,50688;2,35968
2584,45573;2,35895
2582,40457;2,35983
2580,35342;2,36134
2578,30226;2,36237
2576,2511;2,3617
2574,19995;2,35912
2572,14879;2,35848
2570,09764;2,36025
2568,04648;2,36029
2565,99533;2,35915
2563,94417;2,35981
2561,89302;2,36336
2559,84186;2,36731
2557,79071;2,36856
2555,73955;2,36847
2553,6884;2,36757
2551,63724;2,3665
2549,58609;2,36821
2547,53493;2,3708
2545,48377;2,37316
2543,43262;2,37762
2541,38146;2,38255
2539,33031;2,38626
2537,27915;2,38943
2535,228;2,3917
2533,17684;2,3959
2531,12569;2,40463
2529,07453;2,41238
2527,02338;2,4158
2524,97222;2,41877
2522,92107;2,4236
2520,86991;2,4276
2518,81876;2,42704
2516,7676;2,42526
2514,71644;2,42646
2512,66529;2,42871
2510,61413;2,42945
2508,56298;2,42665
2506,51182;2,42159
2504,46067;2,41832
2502,40951;2,41559
2500,35836;2,4102
2498,3072;2,40345
2496,25605;2,39684
2494,20489;2,38959
2492,15374;2,38002
2490,10258;2,36929
2488,05143;2,36308
2486,00027;2,36169
2483,94911;2,35761
2481,89796;2,34891
2479,8468;2,34045
2477,79565;2,33246
2475,74449;2,32331
2473,69334;2,31493
2471,64218;2,30697
2469,59103;2,29899
2467,53987;2,29293
2465,48872;2,28706
2463,43756;2,27983
2461,38641;2,27356
2459,33525;2,26976
2457,2841;2,26781
2455,23294;2,26588
2453,18178;2,26243
2451,13063;2,2581
2449,07947;2,25369
2447,02832;2,24907
2444,97716;2,24439
2442,92601;2,23959
2440,87485;2,23565
2438,8237;2,23322
2436,77254;2,22973
2434,72139;2,22526
2432,67023;2,22226
2430,61908;2,21977
2428,56792;2,21746
2426,51677;2,21577
2424,46561;2,21372
2422,41445;2,21056
2420,3633;2,20713
2418,31214;2,2054
2416,26099;2,20467
2414,20983;2,20316
2412,15868;2,20207
2410,10752;2,20208
2408,05637;2,20141
2406,00521;2,19966
2403,95406;2,19762
2401,9029;2,19567
2399,85175;2,19511
2397,80059;2,1957
2395,74944;2,19613
2393,69828;2,19586
2391,64712;2,19509
2389,59597;2,19354
2387,54481;2,1915
2385,49366;2,19021
2383,4425;2,19006
2381,39135;2,18984
2379,34019;2,18943
2377,28904;2,19025
2375,23788;2,19165
2373,18673;2,19153
2371,13557;2,19077
2369,08442;2,19143
2367,03326;2,19268
2364,9821;2,19339
2362,93095;2,19429
2360,87979;2,1965
2358,82864;2,19873
2356,77748;2,19844
2354,72633;2,19682
2352,67517;2,19586
2350,62402;2,19618
2348,57286;2,19639
2346,52171;2,19434
2344,47055;2,19097
2342,4194;2,18884
2340,36824;2,18919
2338,31709;2,1919
2336,26593;2,19501
2334,21477;2,1968
2332,16362;2,19742
2330,11246;2,19759
2328,06131;2,19866
2326,01015;2,20053
2323,959;2,20007
2321,90784;2,19615
2319,85669;2,19229
2317,80553;2,1919
2315,75438;2,19333
2313,70322;2,19304
2311,65207;2,19095
2309,60091;2,18883
2307,54976;2,18814
2305,4986;2,18931
2303,44744;2,19042
2301,39629;2,18987
2299,34513;2,18853
2297,29398;2,18777
2295,24282;2,1881
2293,19167;2,18849
2291,14051;2,1874
2289,08936;2,18543
2287,0382;2,18441
2284,98705;2,18478
2282,93589;2,18597
2280,88474;2,18755
2278,83358;2,18873
2276,78243;2,18928
2274,73127;2,19036
2272,68011;2,19198
2270,62896;2,19368
2268,5778;2,19574
2266,52665;2,19698
2264,47549;2,19599
2262,42434;2,19436
2260,37318;2,194
2258,32203;2,19517
2256,27087;2,19855
2254,21972;2,20374
2252,16856;2,20793
2250,11741;2,20957
2248,06625;2,2097
2246,0151;2,20914
2243,96394;2,20941
2241,91278;2,21145
2239,86163;2,21448
2237,81047;2,21617
2235,75932;2,21626
2233,70816;2,21783
2231,65701;2,22145
2229,60585;2,22483
2227,5547;2,22599
2225,50354;2,22502
2223,45239;2,22547
2221,40123;2,22836
2219,35008;2,23078
2217,29892;2,23176
2215,24777;2,23295
2213,19661;2,2351
2211,14545;2,2366
2209,0943;2,23689
2207,04314;2,23806
2204,99199;2,24035
2202,94083;2,24194
2200,88968;2,24273
2198,83852;2,24325
2196,78737;2,24296
2194,73621;2,24188
2192,68506;2,24215
2190,6339;2,24467
2188,58275;2,24694
2186,53159;2,24868
2184,48044;2,25173
2182,42928;2,25487
2180,37812;2,25615
2178,32697;2,25531
2176,27581;2,25411
2174,22466;2,25427
2172,1735;2,2555
2170,12235;2,25784
2168,07119;2,26108
2166,02004;2,26418
2163,96888;2,2675
2161,91773;2,27158
2159,86657;2,27658
2157,81542;2,28315
2155,76426;2,29017
2153,71311;2,29516
2151,66195;2,29888
2149,61079;2,30304
2147,55964;2,30596
2145,50848;2,30679
2143,45733;2,30749
2141,40617;2,30891
2139,35502;2,31074
2137,30386;2,31154
2135,25271;2,31053
2133,20155;2,30936
2131,1504;2,30748
2129,09924;2,30247
2127,04809;2,2961
2124,99693;2,29125
2122,94578;2,28738
2120,89462;2,28378
2118,84346;2,28033
2116,79231;2,27578
2114,74115;2,27104
2112,69;2,26875
2110,63884;2,26752
2108,58769;2,26524
2106,53653;2,263
2104,48538;2,26112
2102,43422;2,25979
2100,38307;2,26088
2098,33191;2,26347
2096,28076;2,26371
2094,2296;2,2609
2092,17844;2,2587
2090,12729;2,25965
2088,07613;2,26293
2086,02498;2,26574
2083,97382;2,26632
2081,92267;2,26502
2079,87151;2,26311
2077,82036;2,26194
2075,7692;2,26176
2073,71805;2,26241
2071,66689;2,26468
2069,61574;2,26728
2067,56458;2,26798
2065,51343;2,26774
2063,46227;2,26797
2061,41111;2,26833
2059,35996;2,26892
2057,3088;2,26902
2055,25765;2,26733
2053,20649;2,26595
2051,15534;2,26826
2049,10418;2,2732
2047,05303;2,27676
2045,00187;2,27639
2042,95072;2,27302
2040,89956;2,27085
2038,84841;2,27266
2036,79725;2,27646
2034,7461;2,2786
2032,69494;2,27856
2030,64378;2,27861
2028,59263;2,27846
2026,54147;2,27794
2024,49032;2,27917
2022,43916;2,28146
2020,38801;2,28274
2018,33685;2,28375
2016,2857;2,28578
2014,23454;2,28746
2012,18339;2,28775
2010,13223;2,28818
2008,08108;2,28815
2006,02992;2,28672
2003,97877;2,28675
2001,92761;2,28874
1999,87645;2,28943
1997,8253;2,28929
1995,77414;2,29124
1993,72299;2,29363
1991,67183;2,29413
1989,62068;2,29388
1987,56952;2,2934
1985,51837;2,29429
1983,46721;2,29691
1981,41606;2,29805
1979,3649;2,29634
1977,31375;2,29432
1975,26259;2,29467
1973,21144;2,29813
1971,16028;2,30265
1969,10912;2,3066
1967,05797;2,31159
1965,00681;2,31835
1962,95566;2,32397
1960,9045;2,32542
1958,85335;2,32227
1956,80219;2,31754
1954,75104;2,31409
1952,69988;2,31246
1950,64873;2,31211
1948,59757;2,31297
1946,54642;2,31581
1944,49526;2,31977
1942,44411;2,322
1940,39295;2,32217
1938,34179;2,32193
1936,29064;2,3222
1934,23948;2,32182
1932,18833;2,32142
1930,13717;2,32255
1928,08602;2,32449
1926,03486;2,32589
1923,98371;2,3262
1921,93255;2,32853
1919,8814;2,33233
1917,83024;2,33403
1915,77909;2,33585
1913,72793;2,3383
1911,67678;2,3401
1909,62562;2,34069
1907,57446;2,3411
1905,52331;2,33993
1903,47215;2,3366
1901,421;2,33541
1899,36984;2,33838
1897,31869;2,34303
1895,26753;2,34825
1893,21638;2,35363
1891,16522;2,3548
1889,11407;2,3527
1887,06291;2,35374
1885,01176;2,35785
1882,9606;2,36157
1880,90945;2,36237
1878,85829;2,36245
1876,80713;2,36445
1874,75598;2,36743
1872,70482;2,3715
1870,65367;2,37514
1868,60251;2,37613
1866,55136;2,37628
1864,5002;2,37738
1862,44905;2,37931
1860,39789;2,38217
1858,34674;2,38692
1856,29558;2,39294
1854,24443;2,39778
1852,19327;2,39991
1850,14212;2,40035
1848,09096;2,40231
1846,0398;2,40585
1843,98865;2,4099
1841,93749;2,41638
1839,88634;2,42153
1837,83518;2,42401
1835,78403;2,42748
1833,73287;2,43347
1831,68172;2,43972
1829,63056;2,4451
1827,57941;2,44919
1825,52825;2,45066
1823,4771;2,45322
1821,42594;2,45696
1819,37478;2,46076
1817,32363;2,46631
1815,27247;2,47382
1813,22132;2,48173
1811,17016;2,48968
1809,11901;2,49837
1807,06785;2,50551
1805,0167;2,50975
1802,96554;2,51347
1800,91439;2,52027
1798,86323;2,53134
1796,81208;2,5411
1794,76092;2,5437
1792,70977;2,54146
1790,65861;2,54015
1788,60745;2,53789
1786,5563;2,53229
1784,50514;2,52665
1782,45399;2,52198
1780,40283;2,5177
1778,35168;2,5168
1776,30052;2,5184
1774,24937;2,51746
1772,19821;2,51413
1770,14706;2,51427
1768,0959;2,51609
1766,04475;2,5187
1763,99359;2,52003
1761,94244;2,51981
1759,89128;2,52317
1757,84012;2,52723
1755,78897;2,5308
1753,73781;2,53313
1751,68666;2,53154
1749,6355;2,53238
1747,58435;2,53887
1745,53319;2,54648
1743,48204;2,55317
1741,43088;2,55778
1739,37973;2,55962
1737,32857;2,56007
1735,27742;2,55577
1733,22626;2,55471
1731,17511;2,56011
1729,12395;2,56345
1727,07279;2,56513
1725,02164;2,56599
1722,97048;2,57064
1720,91933;2,58041
1718,86817;2,58821
1716,81702;2,59312
1714,76586;2,59616
1712,71471;2,59753
1710,66355;2,60007
1708,6124;2,60438
1706,56124;2,60629
1704,51009;2,60698
1702,45893;2,61103
1700,40778;2,62183
1698,35662;2,63559
1696,30546;2,63541
1694,25431;2,63427
1692,20315;2,63842
1690,152;2,63826
1688,10084;2,63383
1686,04969;2,62701
1683,99853;2,62782
1681,94738;2,6423
1679,89622;2,65207
1677,84507;2,65132
1675,79391;2,64509
1673,74276;2,64285
1671,6916;2,64195
1669,64045;2,63923
1667,58929;2,64225
1665,53813;2,64427
1663,48698;2,63865
1661,43582;2,63572
1659,38467;2,64243
1657,33351;2,65041
1655,28236;2,64281
1653,2312;2,62512
1651,18005;2,63069
1649,12889;2,63974
1647,07774;2,6364
1645,02658;2,63917
1642,97543;2,6515
1640,92427;2,66616
1638,87312;2,67618
1636,82196;2,6707
1634,7708;2,65745
1632,71965;2,64888
1630,66849;2,6324
1628,61734;2,60309
1626,56618;2,5728
1624,51503;2,54792
1622,46387;2,53373
1620,41272;2,53481
1618,36156;2,53671
1616,31041;2,53048
1614,25925;2,52226
1612,2081;2,51234
1610,15694;2,50125
1608,10579;2,49355
1606,05463;2,48901
1604,00347;2,48331
1601,95232;2,47593
1599,90116;2,4693
1597,85001;2,46428
1595,79885;2,46099
1593,7477;2,46097
1591,69654;2,46441
1589,64539;2,46645
1587,59423;2,46301
1585,54308;2,45639
1583,49192;2,45062
1581,44077;2,4475
1579,38961;2,4461
1577,33846;2,44243
1575,2873;2,44002
1573,23614;2,43993
1571,18499;2,43179
1569,13383;2,42066
1567,08268;2,41615
1565,03152;2,4141
1562,98037;2,41195
1560,92921;2,39951
1558,87806;2,37799
1556,8269;2,37161
1554,77575;2,36795
1552,72459;2,3565
1550,67344;2,34132
1548,62228;2,32999
1546,57113;2,32354
1544,51997;2,31753
1542,46881;2,30948
1540,41766;2,29646
1538,3665;2,29174
1536,31535;2,29367
1534,26419;2,28844
1532,21304;2,28454
1530,16188;2,28549
1528,11073;2,28441
1526,05957;2,28393
1524,00842;2,28247
1521,95726;2,27753
1519,90611;2,28131
1517,85495;2,2882
1515,80379;2,28841
1513,75264;2,28766
1511,70148;2,29179
1509,65033;2,29832
1507,59917;2,29578
1505,54802;2,29114
1503,49686;2,29689
1501,44571;2,3049
1499,39455;2,31117
1497,3434;2,31817
1495,29224;2,3308
1493,24109;2,3487
1491,18993;2,37255
1489,13878;2,40852
1487,08762;2,44384
1485,03646;2,45955
1482,98531;2,45309
1480,93415;2,43451
1478,883;2,41715
1476,83184;2,40685
1474,78069;2,40365
1472,72953;2,40757
1470,67838;2,42576
1468,62722;2,45667
1466,57607;2,49031
1464,52491;2,51408
1462,47376;2,51609
1460,4226;2,49818
1458,37145;2,4691
1456,32029;2,44267
1454,26913;2,43157
1452,21798;2,42929
1450,16682;2,42853
1448,11567;2,42737
1446,06451;2,42823
1444,01336;2,43002
1441,9622;2,43214
1439,91105;2,43647
1437,85989;2,43901
1435,80874;2,44142
1433,75758;2,44628
1431,70643;2,44636
1429,65527;2,44275
1427,60412;2,44223
1425,55296;2,44466
1423,5018;2,44971
1421,45065;2,45401
1419,39949;2,45192
1417,34834;2,44939
1415,29718;2,44731
1413,24603;2,44138
1411,19487;2,4329
1409,14372;2,42582
1407,09256;2,42386
1405,04141;2,4307
1402,99025;2,4443
1400,9391;2,45463
1398,88794;2,46139
1396,83679;2,46959
1394,78563;2,4749
1392,73447;2,47542
1390,68332;2,47356
1388,63216;2,47308
1386,58101;2,47815
1384,52985;2,48483
1382,4787;2,48672
1380,42754;2,48691
1378,37639;2,4879
1376,32523;2,4866
1374,27408;2,48385
1372,22292;2,48541
1370,17177;2,49044
1368,12061;2,49607
1366,06946;2,5003
1364,0183;2,50075
1361,96714;2,50139
1359,91599;2,50497
1357,86483;2,50731
1355,81368;2,50791
1353,76252;2,50973
1351,71137;2,51189
1349,66021;2,51248
1347,60906;2,51376
1345,5579;2,51821
1343,50675;2,5263
1341,45559;2,53573
1339,40444;2,54
1337,35328;2,53653
1335,30213;2,53259
1333,25097;2,53294
1331,19981;2,53552
1329,14866;2,54073
1327,0975;2,54845
1325,04635;2,55464
1322,99519;2,55903
1320,94404;2,56116
1318,89288;2,55617
1316,84173;2,5451
1314,79057;2,53489
1312,73942;2,52935
1310,68826;2,52814
1308,63711;2,53005
1306,58595;2,5349
1304,5348;2,54217
1302,48364;2,54831
1300,43248;2,54567
1298,38133;2,53332
1296,33017;2,52296
1294,27902;2,52131
1292,22786;2,52289
1290,17671;2,52354
1288,12555;2,52392
1286,0744;2,52577
1284,02324;2,52876
1281,97209;2,52719
1279,92093;2,5196
1277,86978;2,51635
1275,81862;2,52253
1273,76747;2,52888
1271,71631;2,53127
1269,66515;2,53518
1267,614;2,54025
1265,56284;2,54249
1263,51169;2,54267
1261,46053;2,54213
1259,40938;2,54041
1257,35822;2,53998
1255,30707;2,54265
1253,25591;2,54552
1251,20476;2,54724
1249,1536;2,54978
1247,10245;2,55465
1245,05129;2,5609
1243,00013;2,5654
1240,94898;2,56762
1238,89782;2,56997
1236,84667;2,5727
1234,79551;2,57398
1232,74436;2,57517
1230,6932;2,57663
1228,64205;2,57629
1226,59089;2,57632
1224,53974;2,57976
1222,48858;2,58334
1220,43743;2,58255
1218,38627;2,58111
1216,33512;2,58522
1214,28396;2,5947
1212,2328;2,60463
1210,18165;2,612
1208,13049;2,61782
1206,07934;2,62596
1204,02818;2,63959
1201,97703;2,64864
1199,92587;2,64418
1197,87472;2,63759
1195,82356;2,64081
1193,77241;2,64966
1191,72125;2,65408
1189,6701;2,6566
1187,61894;2,66447
1185,56779;2,67269
1183,51663;2,67649
1181,46547;2,68309
1179,41432;2,69308
1177,36316;2,69452
1175,31201;2,68699
1173,26085;2,67888
1171,2097;2,66871
1169,15854;2,65488
1167,10739;2,64721
1165,05623;2,65302
1163,00508;2,66511
1160,95392;2,67337
1158,90277;2,67862
1156,85161;2,68839
1154,80046;2,70123
1152,7493;2,7036
1150,69814;2,69455
1148,64699;2,68689
1146,59583;2,68374
1144,54468;2,67821
1142,49352;2,67239
1140,44237;2,67172
1138,39121;2,66788
1136,34006;2,65564
1134,2889;2,64281
1132,23775;2,63262
1130,18659;2,62098
1128,13544;2,60519
1126,08428;2,58871
1124,03313;2,57912
1121,98197;2,57711
1119,93081;2,57872
1117,87966;2,58203
1115,8285;2,58607
1113,77735;2,59215
1111,72619;2,59428
1109,67504;2,5844
1107,62388;2,57183
1105,57273;2,56686
1103,52157;2,56033
1101,47042;2,54637
1099,41926;2,53425
1097,36811;2,52519
1095,31695;2,51255
1093,2658;2,49979
1091,21464;2,49212
1089,16348;2,48493
1087,11233;2,47085
1085,06117;2,44471
1083,01002;2,40777
1080,95886;2,36689
1078,90771;2,32964
1076,85655;2,30127
1074,8054;2,28298
1072,75424;2,27233
1070,70309;2,26472
1068,65193;2,25878
1066,60078;2,2559
1064,54962;2,25672
1062,49847;2,26081
1060,44731;2,26582
1058,39615;2,2701
1056,345;2,2729
1054,29384;2,27267
1052,24269;2,27069
1050,19153;2,2702
1048,14038;2,27021
1046,08922;2,26746
1044,03807;2,26321
1041,98691;2,26014
1039,93576;2,25683
1037,8846;2,25113
1035,83345;2,24397
1033,78229;2,23815
1031,73114;2,2339
1029,67998;2,22935
1027,62882;2,2257
1025,57767;2,2235
1023,52651;2,2208
1021,47536;2,21945
1019,4242;2,22042
1017,37305;2,22192
1015,32189;2,22452
1013,27074;2,22784
1011,21958;2,23118
1009,16843;2,23212
1007,11727;2,23028
1005,06612;2,23136
1003,01496;2,23717
1000,96381;2,2455
998,91265;2,25405
996,86149;2,26208
994,81034;2,27013
992,75918;2,27729
990,70803;2,28243
988,65687;2,28568
986,60572;2,28725
984,55456;2,28705
982,50341;2,2866
980,45225;2,28618
978,4011;2,28424
976,34994;2,28056
974,29879;2,27659
972,24763;2,2746
970,19647;2,27508
968,14532;2,27447
966,09416;2,27088
964,04301;2,26798
961,99185;2,26845
959,9407;2,27254
957,88954;2,27952
955,83839;2,28656
953,78723;2,29056
951,73608;2,29362
949,68492;2,29915
947,63377;2,30395
945,58261;2,30697
943,53146;2,313
941,4803;2,32092
939,42914;2,3232
937,37799;2,321
935,32683;2,32267
933,27568;2,32843
931,22452;2,33214
929,17337;2,33512
927,12221;2,34141
925,07106;2,34734
923,0199;2,35013
920,96875;2,35266
918,91759;2,3549
916,86644;2,35569
914,81528;2,36029
912,76413;2,3701
910,71297;2,37473
908,66181;2,37154
906,61066;2,36877
904,5595;2,36753
902,50835;2,36609
900,45719;2,36699
898,40604;2,37152
896,35488;2,37377
894,30373;2,36761
892,25257;2,35637
890,20142;2,3431
888,15026;2,33522
886,09911;2,34392
884,04795;2,36416
881,9968;2,37765
879,94564;2,37417
877,89448;2,36369
875,84333;2,35817
873,79217;2,3584
871,74102;2,3662
869,68986;2,38172
867,63871;2,39806
865,58755;2,41179
863,5364;2,42013
861,48524;2,42114
859,43409;2,4197
857,38293;2,41863
855,33178;2,41789
853,28062;2,42029
851,22947;2,42769
849,17831;2,43354
847,12715;2,42877
845,076;2,41999
843,02484;2,42017
840,97369;2,42828
838,92253;2,43306
836,87138;2,4322
834,82022;2,43426
832,76907;2,43823
830,71791;2,43821
828,66676;2,43458
826,6156;2,43402
824,56445;2,44104
822,51329;2,44821
820,46214;2,45408
818,41098;2,46197
816,35982;2,46574
814,30867;2,46441
812,25751;2,46303
810,20636;2,45903
808,1552;2,45293
806,10405;2,45415
804,05289;2,46028
802,00174;2,46123
799,95058;2,45972
797,89943;2,45985
795,84827;2,4582
793,79712;2,45522
791,74596;2,4557
789,69481;2,4641
787,64365;2,47581
785,59249;2,47853
783,54134;2,47167
781,49018;2,46266
779,43903;2,45561
777,38787;2,45282
775,33672;2,45568
773,28556;2,45498
771,23441;2,4432
769,18325;2,43519
767,1321;2,44364
765,08094;2,45778
763,02979;2,46415
760,97863;2,46604
758,92748;2,47049
756,87632;2,47099
754,82516;2,45503
752,77401;2,43254
750,72285;2,42422
748,6717;2,43029
746,62054;2,43617
744,56939;2,4341
742,51823;2,43008
740,46708;2,42879
738,41592;2,42871
736,36477;2,4278
734,31361;2,42679
732,26246;2,431
730,2113;2,44059
728,16015;2,44893
726,10899;2,45309
724,05783;2,45513
722,00668;2,45322
719,95552;2,44462
717,90437;2,43073
715,85321;2,4191
713,80206;2,41302
711,7509;2,40923
709,69975;2,40795
707,64859;2,41124
705,59744;2,41393
703,54628;2,41127
701,49513;2,40479
699,44397;2,39404
697,39281;2,37923
695,34166;2,36705
693,2905;2,36385
691,23935;2,37068
689,18819;2,38447
687,13704;2,39761
685,08588;2,40095
683,03473;2,3974
680,98357;2,3997
678,93242;2,40967
676,88126;2,41513
674,83011;2,41157
672,77895;2,40805
670,7278;2,40864
668,67664;2,40889
666,62548;2,40744
664,57433;2,40423
662,52317;2,4
660,47202;2,39698
658,42086;2,39365
656,36971;2,39064
654,31855;2,38758
652,2674;2,38148
650,21624;2,37574
648,16509;2,37303
646,11393;2,36778
644,06278;2,36012
642,01162;2,36242
639,96047;2,37517
637,90931;2,38142
635,85815;2,37711
633,807;2,37021
631,75584;2,36242
629,70469;2,35644
627,65353;2,35768
625,60238;2,36265
623,55122;2,36154
621,50007;2,35721
619,44891;2,36074
617,39776;2,36364
615,3466;2,35346
613,29545;2,34231
611,24429;2,34026
609,19314;2,33868
607,14198;2,33754
605,09082;2,34148
603,03967;2,34124
600,98851;2,33195
598,93736;2,32589
596,8862;2,33048
594,83505;2,33911
592,78389;2,34692
590,73274;2,34858
588,68158;2,34021
586,63043;2,33087
584,57927;2,33142
582,52812;2,33738
580,47696;2,3407
578,42581;2,34081
576,37465;2,34014
574,32349;2,34635
572,27234;2,35985
570,22118;2,36616
568,17003;2,36194
566,11887;2,34663
564,06772;2,31584
562,01656;2,28573
559,96541;2,2717
557,91425;2,27007
555,8631;2,27064
553,81194;2,26804
551,76079;2,26449
549,70963;2,27071
547,65848;2,28877
545,60732;2,30074
543,55616;2,29703
541,50501;2,29318
539,45385;2,2944
537,4027;2,28723
535,35154;2,27651
533,30039;2,27906
531,24923;2,28876
529,19808;2,29077
527,14692;2,28721
525,09577;2,2818
523,04461;2,27702
520,99346;2,278
518,9423;2,28276
516,89115;2,28895
514,83999;2,29857
512,78883;2,30677
510,73768;2,30086
508,68652;2,28137
506,63537;2,2651
504,58421;2,26124
502,53306;2,27185
500,4819;2,29195
498,43075;2,30153
496,37959;2,29798
494,32844;2,29199
492,27728;2,28451
490,22613;2,27997
488,17497;2,28265
486,12382;2,29067
484,07266;2,30018
482,0215;2,29455
479,97035;2,26931
477,91919;2,25346
475,86804;2,25925
473,81688;2,25989
471,76573;2,24085
469,71457;2,22557
467,66342;2,2377
465,61226;2,26728
463,56111;2,2805
461,50995;2,26725
459,4588;2,24626
457,40764;2,23727
455,35649;2,2476
453,30533;2,27355
451,25417;2,29711
449,20302;2,28865
447,15186;2,2589
445,10071;2,2436
443,04955;2,24715
440,9984;2,25473
438,94724;2,25723
436,89609;2,25319
434,84493;2,24848
432,79378;2,25112
430,74262;2,26259
428,69147;2,27051
426,64031;2,26909
424,58916;2,27335
422,538;2,27804
420,48684;2,25392
418,43569;2,21134
416,38453;2,2052
414,33338;2,23401
412,28222;2,25256
410,23107;2,2318
408,17991;2,18947
406,12876;2,16858
404,0776;2,1851
402,02645;2,20232
399,97529;2,18465
