3997,70175;1,91123
3995,6506;1,91253
3993,59944;1,91262
3991,54829;1,91154
3989,49713;1,91106
3987,44598;1,91128
3985,39482;1,91047
3983,34367;1,90958
3981,29251;1,91043
3979,24136;1,91277
3977,1902;1,9162
3975,13905;1,91999
3973,08789;1,92161
3971,03673;1,92122
3968,98558;1,9217
3966,93442;1,92349
3964,88327;1,92558
3962,83211;1,92745
3960,78096;1,92884
3958,7298;1,93017
3956,67865;1,93291
3954,62749;1,93718
3952,57634;1,94056
3950,52518;1,94168
3948,47403;1,94257
3946,42287;1,94478
3944,37172;1,94566
3942,32056;1,94427
3940,2694;1,94239
3938,21825;1,94086
3936,16709;1,94033
3934,11594;1,93899
3932,06478;1,93536
3930,01363;1,93075
3927,96247;1,92686
3925,91132;1,92353
3923,86016;1,92049
3921,80901;1,91683
3919,75785;1,91204
3917,7067;1,90753
3915,65554;1,90381
3913,60439;1,8998
3911,55323;1,89593
3909,50207;1,89459
3907,45092;1,89461
3905,39976;1,89238
3903,34861;1,88753
3901,29745;1,88136
3899,2463;1,87536
3897,19514;1,8728
3895,14399;1,87177
3893,09283;1,86735
3891,04168;1,86178
3888,99052;1,86068
3886,93937;1,86019
3884,88821;1,8606
3882,83706;1,86138
3880,7859;1,85784
3878,73474;1,85488
3876,68359;1,85271
3874,63243;1,85055
3872,58128;1,85133
3870,53012;1,8507
3868,47897;1,8503
3866,42781;1,8497
3864,37666;1,8471
3862,3255;1,84522
3860,27435;1,8452
3858,22319;1,84783
3856,17204;1,8481
3854,12088;1,84282
3852,06973;1,84022
3850,01857;1,83997
3847,96741;1,83785
3845,91626;1,83597
3843,8651;1,8367
3841,81395;1,83946
3839,76279;1,83891
3837,71164;1,83583
3835,66048;1,83484
3833,60933;1,83417
3831,55817;1,8345
3829,50702;1,83694
3827,45586;1,83769
3825,40471;1,83815
3823,35355;1,83753
3821,3024;1,83666
3819,25124;1,84118
3817,20008;1,84116
3815,14893;1,83735
3813,09777;1,83735
3811,04662;1,83816
3808,99546;1,83688
3806,94431;1,83568
3804,89315;1,83943
3802,842;1,84133
3800,79084;1,84189
3798,73969;1,84369
3796,68853;1,84134
3794,63738;1,83852
3792,58622;1,83693
3790,53506;1,83658
3788,48391;1,83876
3786,43275;1,84145
3784,3816;1,84298
3782,33044;1,8441
3780,27929;1,84476
3778,22813;1,84658
3776,17698;1,84923
3774,12582;1,85187
3772,07467;1,85336
3770,02351;1,85314
3767,97236;1,85374
3765,9212;1,85374
3763,87005;1,85506
3761,81889;1,85757
3759,76773;1,85966
3757,71658;1,86337
3755,66542;1,868
3753,61427;1,86998
3751,56311;1,86999
3749,51196;1,87385
3747,4608;1,87937
3745,40965;1,87829
3743,35849;1,87956
3741,30734;1,88606
3739,25618;1,88985
3737,20503;1,89293
3735,15387;1,89798
3733,10272;1,9012
3731,05156;1,90248
3729,0004;1,90529
3726,94925;1,90833
3724,89809;1,9121
3722,84694;1,91594
3720,79578;1,91926
3718,74463;1,92199
3716,69347;1,92608
3714,64232;1,9324
3712,59116;1,93904
3710,54001;1,94666
3708,48885;1,95526
3706,4377;1,96307
3704,38654;1,97113
3702,33539;1,98305
3700,28423;2,00073
3698,23307;2,01906
3696,18192;2,03532
3694,13076;2,05111
3692,07961;2,06441
3690,02845;2,07135
3687,9773;2,07286
3685,92614;2,07616
3683,87499;2,08364
3681,82383;2,09571
3679,77268;2,11119
3677,72152;2,12591
3675,67037;2,13921
3673,61921;2,15636
3671,56806;2,17174
3669,5169;2,18795
3667,46574;2,2089
3665,41459;2,22761
3663,36343;2,24288
3661,31228;2,25643
3659,26112;2,27091
3657,20997;2,28907
3655,15881;2,31255
3653,10766;2,33544
3651,0565;2,35627
3649,00535;2,38461
3646,95419;2,41543
3644,90304;2,43645
3642,85188;2,44701
3640,80073;2,45264
3638,74957;2,45567
3636,69841;2,45728
3634,64726;2,46234
3632,5961;2,47677
3630,54495;2,49339
3628,49379;2,50128
3626,44264;2,50485
3624,39148;2,51453
3622,34033;2,53457
3620,28917;2,55491
3618,23802;2,56578
3616,18686;2,57319
3614,13571;2,58222
3612,08455;2,59284
3610,0334;2,60548
3607,98224;2,61292
3605,93108;2,60819
3603,87993;2,60261
3601,82877;2,60848
3599,77762;2,62299
3597,72646;2,63665
3595,67531;2,64452
3593,62415;2,64854
3591,573;2,65316
3589,52184;2,66062
3587,47069;2,6689
3585,41953;2,67337
3583,36838;2,67182
3581,31722;2,66982
3579,26607;2,67564
3577,21491;2,6863
3575,16375;2,69504
3573,1126;2,70609
3571,06144;2,71944
3569,01029;2,7231
3566,95913;2,71487
3564,90798;2,7076
3562,85682;2,70701
3560,80567;2,71098
3558,75451;2,71571
3556,70336;2,71878
3554,6522;2,71975
3552,60105;2,72115
3550,54989;2,72723
3548,49874;2,73126
3546,44758;2,72596
3544,39642;2,7228
3542,34527;2,72963
3540,29411;2,73433
3538,24296;2,72996
3536,1918;2,72695
3534,14065;2,73146
3532,08949;2,73451
3530,03834;2,73095
3527,98718;2,72773
3525,93603;2,72995
3523,88487;2,73227
3521,83372;2,73324
3519,78256;2,73928
3517,73141;2,74658
3515,68025;2,7465
3513,62909;2,74002
3511,57794;2,73819
3509,52678;2,74701
3507,47563;2,75195
3505,42447;2,74507
3503,37332;2,74143
3501,32216;2,74614
3499,27101;2,74889
3497,21985;2,74567
3495,1687;2,73974
3493,11754;2,7372
3491,06639;2,73978
3489,01523;2,74422
3486,96407;2,75364
3484,91292;2,76484
3482,86176;2,77109
3480,81061;2,77536
3478,75945;2,77298
3476,7083;2,76188
3474,65714;2,75358
3472,60599;2,75326
3470,55483;2,75722
3468,50368;2,76234
3466,45252;2,76311
3464,40137;2,75965
3462,35021;2,76307
3460,29906;2,77096
3458,2479;2,76726
3456,19674;2,75389
3454,14559;2,74506
3452,09443;2,74717
3450,04328;2,75182
3447,99212;2,75042
3445,94097;2,75181
3443,88981;2,75749
3441,83866;2,75871
3439,7875;2,7582
3437,73635;2,76091
3435,68519;2,76625
3433,63404;2,76887
3431,58288;2,76091
3429,53173;2,74541
3427,48057;2,73786
3425,42941;2,74229
3423,37826;2,74663
3421,3271;2,74825
3419,27595;2,75303
3417,22479;2,76003
3415,17364;2,76534
3413,12248;2,76613
3411,07133;2,76782
3409,02017;2,77412
3406,96902;2,77608
3404,91786;2,77032
3402,86671;2,76539
3400,81555;2,76709
3398,7644;2,76656
3396,71324;2,7625
3394,66208;2,76737
3392,61093;2,77805
3390,55977;2,77954
3388,50862;2,77366
3386,45746;2,77679
3384,40631;2,78415
3382,35515;2,77388
3380,304;2,75743
3378,25284;2,75664
3376,20169;2,76518
3374,15053;2,77495
3372,09938;2,78325
3370,04822;2,78316
3367,99707;2,77708
3365,94591;2,77234
3363,89475;2,77354
3361,8436;2,78172
3359,79244;2,79105
3357,74129;2,7906
3355,69013;2,77651
3353,63898;2,76041
3351,58782;2,75829
3349,53667;2,76659
3347,48551;2,76908
3345,43436;2,76806
3343,3832;2,77127
3341,33205;2,76936
3339,28089;2,76006
3337,22974;2,75511
3335,17858;2,75877
3333,12742;2,76861
3331,07627;2,77711
3329,02511;2,77666
3326,97396;2,77239
3324,9228;2,7693
3322,87165;2,76816
3320,82049;2,76834
3318,76934;2,7645
3316,71818;2,75795
3314,66703;2,75265
3312,61587;2,75185
3310,56472;2,75762
3308,51356;2,76013
3306,46241;2,75811
3304,41125;2,76068
3302,36009;2,7628
3300,30894;2,76073
3298,25778;2,75786
3296,20663;2,75306
3294,15547;2,74854
3292,10432;2,74644
3290,05316;2,74193
3288,00201;2,73757
3285,95085;2,73968
3283,8997;2,7409
3281,84854;2,73366
3279,79739;2,7261
3277,74623;2,72369
3275,69508;2,72593
3273,64392;2,73278
3271,59276;2,7364
3269,54161;2,73335
3267,49045;2,72832
3265,4393;2,72387
3263,38814;2,72078
3261,33699;2,71693
3259,28583;2,71235
3257,23468;2,70955
3255,18352;2,71044
3253,13237;2,71393
3251,08121;2,71549
3249,03006;2,71609
3246,9789;2,71768
3244,92775;2,72291
3242,87659;2,73024
3240,82543;2,72448
3238,77428;2,71082
3236,72312;2,71053
3234,67197;2,71891
3232,62081;2,72019
3230,56966;2,71529
3228,5185;2,71348
3226,46735;2,71346
3224,41619;2,70454
3222,36504;2,69065
3220,31388;2,68716
3218,26273;2,69574
3216,21157;2,70559
3214,16041;2,71034
3212,10926;2,70953
3210,0581;2,70735
3208,00695;2,70735
3205,95579;2,70567
3203,90464;2,7051
3201,85348;2,70701
3199,80233;2,70308
3197,75117;2,6982
3195,70002;2,69987
3193,64886;2,70059
3191,59771;2,70112
3189,54655;2,70741
3187,4954;2,71275
3185,44424;2,71178
3183,39308;2,70489
3181,34193;2,69584
3179,29077;2,69209
3177,23962;2,69876
3175,18846;2,71216
3173,13731;2,71861
3171,08615;2,71173
3169,035;2,70505
3166,98384;2,70966
3164,93269;2,71184
3162,88153;2,70093
3160,83038;2,68931
3158,77922;2,68672
3156,72807;2,68842
3154,67691;2,69095
3152,62575;2,69845
3150,5746;2,70869
3148,52344;2,71328
3146,47229;2,70947
3144,42113;2,7033
3142,36998;2,69986
3140,31882;2,69981
3138,26767;2,70432
3136,21651;2,70497
3134,16536;2,6959
3132,1142;2,6907
3130,06305;2,69483
3128,01189;2,69552
3125,96074;2,69094
3123,90958;2,69272
3121,85842;2,7003
3119,80727;2,70027
3117,75611;2,69355
3115,70496;2,69194
3113,6538;2,69529
3111,60265;2,69785
3109,55149;2,69447
3107,50034;2,68715
3105,44918;2,68754
3103,39803;2,69559
3101,34687;2,69859
3099,29572;2,69531
3097,24456;2,69608
3095,19341;2,70428
3093,14225;2,7103
3091,09109;2,70788
3089,03994;2,70373
3086,98878;2,70504
3084,93763;2,70883
3082,88647;2,70619
3080,83532;2,69645
3078,78416;2,68924
3076,73301;2,69076
3074,68185;2,69497
3072,6307;2,69536
3070,57954;2,69764
3068,52839;2,70154
3066,47723;2,69747
3064,42608;2,68841
3062,37492;2,68427
3060,32376;2,68519
3058,27261;2,68625
3056,22145;2,68806
3054,1703;2,69272
3052,11914;2,69858
3050,06799;2,7025
3048,01683;2,70025
3045,96568;2,69659
3043,91452;2,69813
3041,86337;2,69864
3039,81221;2,69615
3037,76106;2,69552
3035,7099;2,69478
3033,65875;2,69359
3031,60759;2,69219
3029,55643;2,68873
3027,50528;2,6881
3025,45412;2,69065
3023,40297;2,69052
3021,35181;2,68881
3019,30066;2,68929
3017,2495;2,69296
3015,19835;2,69612
3013,14719;2,69663
3011,09604;2,6985
3009,04488;2,70027
3006,99373;2,69494
3004,94257;2,68365
3002,89142;2,67619
3000,84026;2,68032
2998,7891;2,68941
2996,73795;2,69256
2994,68679;2,69588
2992,63564;2,70124
2990,58448;2,70324
2988,53333;2,70778
2986,48217;2,71716
2984,43102;2,72111
2982,37986;2,71618
2980,32871;2,709
2978,27755;2,70705
2976,2264;2,71381
2974,17524;2,7233
2972,12409;2,72928
2970,07293;2,73157
2968,02177;2,73276
2965,97062;2,73361
2963,91946;2,73268
2961,86831;2,73016
2959,81715;2,72775
2957,766;2,72943
2955,71484;2,73106
2953,66369;2,72743
2951,61253;2,72562
2949,56138;2,72729
2947,51022;2,7284
2945,45907;2,73376
2943,40791;2,74515
2941,35675;2,75255
2939,3056;2,75592
2937,25444;2,75548
2935,20329;2,74502
2933,15213;2,73291
2931,10098;2,72746
2929,04982;2,72098
2926,99867;2,71036
2924,94751;2,70078
2922,89636;2,69098
2920,8452;2,68099
2918,79405;2,67163
2916,74289;2,66224
2914,69174;2,6609
2912,64058;2,67132
2910,58942;2,6796
2908,53827;2,67464
2906,48711;2,66639
2904,43596;2,66673
2902,3848;2,67339
2900,33365;2,67814
2898,28249;2,67887
2896,23134;2,67673
2894,18018;2,67544
2892,12903;2,6784
2890,07787;2,68005
2888,02672;2,67821
2885,97556;2,67312
2883,92441;2,66755
2881,87325;2,67125
2879,82209;2,67794
2877,77094;2,67862
2875,71978;2,67774
2873,66863;2,67827
2871,61747;2,68053
2869,56632;2,68342
2867,51516;2,68814
2865,46401;2,69075
2863,41285;2,6871
2861,3617;2,68425
2859,31054;2,68498
2857,25939;2,68551
2855,20823;2,68185
2853,15708;2,6737
2851,10592;2,66699
2849,05476;2,66254
2847,00361;2,65628
2844,95245;2,65164
2842,9013;2,64907
2840,85014;2,64341
2838,79899;2,6368
2836,74783;2,6353
2834,69668;2,63537
2832,64552;2,6313
2830,59437;2,62719
2828,54321;2,62539
2826,49206;2,625
2824,4409;2,6253
2822,38975;2,6253
2820,33859;2,62282
2818,28743;2,61558
2816,23628;2,60667
2814,18512;2,60081
2812,13397;2,59906
2810,08281;2,59978
2808,03166;2,59969
2805,9805;2,5983
2803,92935;2,59844
2801,87819;2,59817
2799,82704;2,59669
2797,77588;2,59563
2795,72473;2,59455
2793,67357;2,59331
2791,62242;2,58795
2789,57126;2,57952
2787,5201;2,57659
2785,46895;2,581
2783,41779;2,58303
2781,36664;2,57664
2779,31548;2,56903
2777,26433;2,56599
2775,21317;2,56503
2773,16202;2,56514
2771,11086;2,5671
2769,05971;2,5685
2767,00855;2,56938
2764,9574;2,56885
2762,90624;2,5664
2760,85509;2,56574
2758,80393;2,56285
2756,75277;2,55551
2754,70162;2,55158
2752,65046;2,55269
2750,59931;2,55269
2748,54815;2,55023
2746,497;2,54708
2744,44584;2,54387
2742,39469;2,54361
2740,34353;2,54653
2738,29238;2,5476
2736,24122;2,5444
2734,19007;2,53719
2732,13891;2,5304
2730,08776;2,5288
2728,0366;2,53089
2725,98544;2,53359
2723,93429;2,53539
2721,88313;2,53608
2719,83198;2,53506
2717,78082;2,53358
2715,72967;2,53385
2713,67851;2,53152
2711,62736;2,52615
2709,5762;2,52538
2707,52505;2,52671
2705,47389;2,52313
2703,42274;2,51794
2701,37158;2,51551
2699,32043;2,51488
2697,26927;2,514
2695,21811;2,51291
2693,16696;2,51171
2691,1158;2,50952
2689,06465;2,50815
2687,01349;2,50867
2684,96234;2,50878
2682,91118;2,50772
2680,86003;2,50661
2678,80887;2,50747
2676,75772;2,51125
2674,70656;2,51605
2672,65541;2,51906
2670,60425;2,51604
2668,55309;2,50876
2666,50194;2,50502
2664,45078;2,50617
2662,39963;2,50822
2660,34847;2,50974
2658,29732;2,51151
2656,24616;2,51517
2654,19501;2,52007
2652,14385;2,52109
2650,0927;2,51735
2648,04154;2,51292
2645,99039;2,51075
2643,93923;2,51306
2641,88808;2,51638
2639,83692;2,51509
2637,78576;2,51203
2635,73461;2,51569
2633,68345;2,52624
2631,6323;2,53459
2629,58114;2,53678
2627,52999;2,53706
2625,47883;2,5408
2623,42768;2,5455
2621,37652;2,54388
2619,32537;2,54049
2617,27421;2,54216
2615,22306;2,54714
2613,1719;2,55112
2611,12075;2,55186
2609,06959;2,55316
2607,01843;2,55557
2604,96728;2,55481
2602,91612;2,55277
2600,86497;2,55093
2598,81381;2,55041
2596,76266;2,55439
2594,7115;2,55764
2592,66035;2,55396
2590,60919;2,54925
2588,55804;2,54989
2586,50688;2,5545
2584,45573;2,55756
2582,40457;2,55393
2580,35342;2,54838
2578,30226;2,54901
2576,2511;2,55329
2574,19995;2,55549
2572,14879;2,55451
2570,09764;2,55292
2568,04648;2,55451
2565,99533;2,55477
2563,94417;2,54938
2561,89302;2,54623
2559,84186;2,54881
2557,79071;2,55209
2555,73955;2,5552
2553,6884;2,55736
2551,63724;2,556
2549,58609;2,55426
2547,53493;2,55477
2545,48377;2,55691
2543,43262;2,56104
2541,38146;2,56407
2539,33031;2,56203
2537,27915;2,55722
2535,228;2,55703
2533,17684;2,56343
2531,12569;2,57106
2529,07453;2,57758
2527,02338;2,58194
2524,97222;2,5835
2522,92107;2,58475
2520,86991;2,58696
2518,81876;2,59052
2516,7676;2,59204
2514,71644;2,59109
2512,66529;2,59493
2510,61413;2,59935
2508,56298;2,59593
2506,51182;2,59092
2504,46067;2,58779
2502,40951;2,58466
2500,35836;2,58284
2498,3072;2,58017
2496,25605;2,57346
2494,20489;2,5652
2492,15374;2,55721
2490,10258;2,54602
2488,05143;2,53243
2486,00027;2,52304
2483,94911;2,51923
2481,89796;2,51375
2479,8468;2,50495
2477,79565;2,49935
2475,74449;2,49433
2473,69334;2,48566
2471,64218;2,4768
2469,59103;2,4701
2467,53987;2,46499
2465,48872;2,46042
2463,43756;2,45702
2461,38641;2,45336
2459,33525;2,44672
2457,2841;2,44001
2455,23294;2,43587
2453,18178;2,43192
2451,13063;2,42599
2449,07947;2,4204
2447,02832;2,41767
2444,97716;2,41587
2442,92601;2,41338
2440,87485;2,41024
2438,8237;2,40621
2436,77254;2,40139
2434,72139;2,39759
2432,67023;2,39588
2430,61908;2,39297
2428,56792;2,38844
2426,51677;2,38504
2424,46561;2,38243
2422,41445;2,38056
2420,3633;2,37945
2418,31214;2,37749
2416,26099;2,37624
2414,20983;2,37657
2412,15868;2,37454
2410,10752;2,37106
2408,05637;2,37048
2406,00521;2,36959
2403,95406;2,36587
2401,9029;2,36408
2399,85175;2,36458
2397,80059;2,36464
2395,74944;2,36405
2393,69828;2,36305
2391,64712;2,36101
2389,59597;2,35892
2387,54481;2,35846
2385,49366;2,35827
2383,4425;2,35523
2381,39135;2,34979
2379,34019;2,34568
2377,28904;2,34504
2375,23788;2,3469
2373,18673;2,34892
2371,13557;2,3497
2369,08442;2,34834
2367,03326;2,34364
2364,9821;2,33848
2362,93095;2,34015
2360,87979;2,34802
2358,82864;2,35044
2356,77748;2,34348
2354,72633;2,33761
2352,67517;2,33821
2350,62402;2,34149
2348,57286;2,34351
2346,52171;2,34262
2344,47055;2,34198
2342,4194;2,34484
2340,36824;2,34737
2338,31709;2,34495
2336,26593;2,33958
2334,21477;2,33996
2332,16362;2,34805
2330,11246;2,35247
2328,06131;2,34706
2326,01015;2,33996
2323,959;2,33875
2321,90784;2,34121
2319,85669;2,34233
2317,80553;2,3411
2315,75438;2,33907
2313,70322;2,33629
2311,65207;2,33096
2309,60091;2,32518
2307,54976;2,32315
2305,4986;2,32423
2303,44744;2,32482
2301,39629;2,32391
2299,34513;2,32353
2297,29398;2,32351
2295,24282;2,32173
2293,19167;2,31927
2291,14051;2,31822
2289,08936;2,31811
2287,0382;2,31748
2284,98705;2,31575
2282,93589;2,31335
2280,88474;2,31181
2278,83358;2,31239
2276,78243;2,31406
2274,73127;2,31537
2272,68011;2,31603
2270,62896;2,31637
2268,5778;2,31737
2266,52665;2,31913
2264,47549;2,32157
2262,42434;2,32427
2260,37318;2,32479
2258,32203;2,32419
2256,27087;2,32506
2254,21972;2,32591
2252,16856;2,32666
2250,11741;2,32839
2248,06625;2,3293
2246,0151;2,32918
2243,96394;2,33136
2241,91278;2,33444
2239,86163;2,33606
2237,81047;2,33567
2235,75932;2,33416
2233,70816;2,33287
2231,65701;2,33406
2229,60585;2,33715
2227,5547;2,33783
2225,50354;2,33725
2223,45239;2,33955
2221,40123;2,34308
2219,35008;2,34417
2217,29892;2,3442
2215,24777;2,34633
2213,19661;2,34895
2211,14545;2,34918
2209,0943;2,34791
2207,04314;2,34642
2204,99199;2,34625
2202,94083;2,34779
2200,88968;2,34852
2198,83852;2,34808
2196,78737;2,34754
2194,73621;2,34724
2192,68506;2,34813
2190,6339;2,34917
2188,58275;2,34842
2186,53159;2,34844
2184,48044;2,3505
2182,42928;2,35287
2180,37812;2,35539
2178,32697;2,35642
2176,27581;2,35557
2174,22466;2,35612
2172,1735;2,35941
2170,12235;2,36386
2168,07119;2,36819
2166,02004;2,37144
2163,96888;2,37479
2161,91773;2,37939
2159,86657;2,38324
2157,81542;2,3862
2155,76426;2,38933
2153,71311;2,39251
2151,66195;2,39532
2149,61079;2,39774
2147,55964;2,40073
2145,50848;2,40559
2143,45733;2,4119
2141,40617;2,41627
2139,35502;2,41703
2137,30386;2,41764
2135,25271;2,41752
2133,20155;2,41372
2131,1504;2,40878
2129,09924;2,40373
2127,04809;2,39836
2124,99693;2,39378
2122,94578;2,39007
2120,89462;2,38539
2118,84346;2,37921
2116,79231;2,37478
2114,74115;2,37222
2112,69;2,36838
2110,63884;2,36374
2108,58769;2,36036
2106,53653;2,35807
2104,48538;2,35684
2102,43422;2,35622
2100,38307;2,35444
2098,33191;2,35198
2096,28076;2,35192
2094,2296;2,35482
2092,17844;2,35829
2090,12729;2,36068
2088,07613;2,36077
2086,02498;2,35959
2083,97382;2,36
2081,92267;2,36212
2079,87151;2,36499
2077,82036;2,36703
2075,7692;2,36569
2073,71805;2,36195
2071,66689;2,35838
2069,61574;2,35695
2067,56458;2,35882
2065,51343;2,36095
2063,46227;2,36222
2061,41111;2,36507
2059,35996;2,36781
2057,3088;2,36786
2055,25765;2,36709
2053,20649;2,36695
2051,15534;2,3667
2049,10418;2,36697
2047,05303;2,3685
2045,00187;2,37092
2042,95072;2,37291
2040,89956;2,37299
2038,84841;2,37262
2036,79725;2,37365
2034,7461;2,37579
2032,69494;2,37786
2030,64378;2,37828
2028,59263;2,37743
2026,54147;2,37837
2024,49032;2,38198
2022,43916;2,38611
2020,38801;2,38963
2018,33685;2,39092
2016,2857;2,38884
2014,23454;2,3862
2012,18339;2,38462
2010,13223;2,38286
2008,08108;2,38118
2006,02992;2,38214
2003,97877;2,38493
2001,92761;2,3857
1999,87645;2,38328
1997,8253;2,3806
1995,77414;2,38161
1993,72299;2,38512
1991,67183;2,38763
1989,62068;2,38869
1987,56952;2,38903
1985,51837;2,38968
1983,46721;2,39084
1981,41606;2,39222
1979,3649;2,39313
1977,31375;2,39425
1975,26259;2,3959
1973,21144;2,39801
1971,16028;2,40209
1969,10912;2,40675
1967,05797;2,41019
1965,00681;2,41484
1962,95566;2,42048
1960,9045;2,4233
1958,85335;2,42229
1956,80219;2,42158
1954,75104;2,42426
1952,69988;2,42839
1950,64873;2,43128
1948,59757;2,43405
1946,54642;2,43874
1944,49526;2,4419
1942,44411;2,44062
1940,39295;2,43827
1938,34179;2,43582
1936,29064;2,43378
1934,23948;2,43321
1932,18833;2,4327
1930,13717;2,43012
1928,08602;2,42806
1926,03486;2,42978
1923,98371;2,43206
1921,93255;2,43344
1919,8814;2,43506
1917,83024;2,43922
1915,77909;2,44759
1913,72793;2,45398
1911,67678;2,45498
1909,62562;2,45299
1907,57446;2,45177
1905,52331;2,45054
1903,47215;2,44736
1901,421;2,44443
1899,36984;2,4442
1897,31869;2,44518
1895,26753;2,4453
1893,21638;2,44562
1891,16522;2,44623
1889,11407;2,44911
1887,06291;2,45582
1885,01176;2,46196
1882,9606;2,46574
1880,90945;2,46798
1878,85829;2,46982
1876,80713;2,47301
1874,75598;2,4768
1872,70482;2,47801
1870,65367;2,47674
1868,60251;2,47779
1866,55136;2,48182
1864,5002;2,48464
1862,44905;2,48622
1860,39789;2,48758
1858,34674;2,48813
1856,29558;2,4894
1854,24443;2,4936
1852,19327;2,49857
1850,14212;2,50233
1848,09096;2,50674
1846,0398;2,51063
1843,98865;2,51386
1841,93749;2,52035
1839,88634;2,52675
1837,83518;2,53155
1835,78403;2,53739
1833,73287;2,54416
1831,68172;2,54928
1829,63056;2,5541
1827,57941;2,5603
1825,52825;2,56532
1823,4771;2,57229
1821,42594;2,58099
1819,37478;2,58728
1817,32363;2,58975
1815,27247;2,59054
1813,22132;2,59441
1811,17016;2,60329
1809,11901;2,61455
1807,06785;2,62668
1805,0167;2,64138
1802,96554;2,65728
1800,91439;2,67084
1798,86323;2,68082
1796,81208;2,6882
1794,76092;2,69317
1792,70977;2,69235
1790,65861;2,68504
1788,60745;2,6759
1786,5563;2,66853
1784,50514;2,66365
1782,45399;2,66123
1780,40283;2,66259
1778,35168;2,66786
1776,30052;2,67264
1774,24937;2,67315
1772,19821;2,67395
1770,14706;2,68287
1768,0959;2,69537
1766,04475;2,70959
1763,99359;2,72562
1761,94244;2,74053
1759,89128;2,7524
1757,84012;2,76207
1755,78897;2,77311
1753,73781;2,78191
1751,68666;2,78533
1749,6355;2,78694
1747,58435;2,78318
1745,53319;2,77281
1743,48204;2,76223
1741,43088;2,75479
1739,37973;2,75055
1737,32857;2,74873
1735,27742;2,7465
1733,22626;2,75228
1731,17511;2,76145
1729,12395;2,75812
1727,07279;2,74832
1725,02164;2,74261
1722,97048;2,74539
1720,91933;2,75413
1718,86817;2,76021
1716,81702;2,76478
1714,76586;2,77264
1712,71471;2,77819
1710,66355;2,77888
1708,6124;2,7778
1706,56124;2,77838
1704,51009;2,78699
1702,45893;2,80139
1700,40778;2,81518
1698,35662;2,82324
1696,30546;2,81639
1694,25431;2,81074
1692,20315;2,81106
1690,152;2,81026
1688,10084;2,80935
1686,04969;2,80096
1683,99853;2,78637
1681,94738;2,78398
1679,89622;2,78882
1677,84507;2,78951
1675,79391;2,78455
1673,74276;2,78355
1671,6916;2,7832
1669,64045;2,77696
1667,58929;2,77489
1665,53813;2,77454
1663,48698;2,76335
1661,43582;2,74452
1659,38467;2,73093
1657,33351;2,72714
1655,28236;2,72382
1653,2312;2,71507
1651,18005;2,71556
1649,12889;2,71714
1647,07774;2,71011
1645,02658;2,70697
1642,97543;2,71206
1640,92427;2,71793
1638,87312;2,71712
1636,82196;2,70434
1634,7708;2,68825
1632,71965;2,67475
1630,66849;2,65083
1628,61734;2,61426
1626,56618;2,58052
1624,51503;2,55886
1622,46387;2,55142
1620,41272;2,55623
1618,36156;2,56001
1616,31041;2,55956
1614,25925;2,56045
1612,2081;2,56106
1610,15694;2,56304
1608,10579;2,56918
1606,05463;2,57697
1604,00347;2,58311
1601,95232;2,58705
1599,90116;2,5901
1597,85001;2,59375
1595,79885;2,59797
1593,7477;2,60221
1591,69654;2,60707
1589,64539;2,61288
1587,59423;2,61813
1585,54308;2,62078
1583,49192;2,62079
1581,44077;2,6221
1579,38961;2,62616
1577,33846;2,62759
1575,2873;2,63093
1573,23614;2,63859
1571,18499;2,63939
1569,13383;2,63917
1567,08268;2,646
1565,03152;2,65226
1562,98037;2,65437
1560,92921;2,64602
1558,87806;2,6322
1556,8269;2,63143
1554,77575;2,63252
1552,72459;2,63322
1550,67344;2,63525
1548,62228;2,63577
1546,57113;2,63505
1544,51997;2,63708
1542,46881;2,63946
1540,41766;2,62963
1538,3665;2,61761
1536,31535;2,61276
1534,26419;2,60626
1532,21304;2,60108
1530,16188;2,59758
1528,11073;2,59149
1526,05957;2,58857
1524,00842;2,59022
1521,95726;2,58851
1519,90611;2,58607
1517,85495;2,58721
1515,80379;2,59331
1513,75264;2,59874
1511,70148;2,59778
1509,65033;2,59214
1507,59917;2,582
1505,54802;2,57877
1503,49686;2,58499
1501,44571;2,58957
1499,39455;2,5925
1497,3434;2,59666
1495,29224;2,60372
1493,24109;2,61389
1491,18993;2,62476
1489,13878;2,63604
1487,08762;2,64213
1485,03646;2,63865
1482,98531;2,62784
1480,93415;2,61611
1478,883;2,61106
1476,83184;2,61611
1474,78069;2,62773
1472,72953;2,63857
1470,67838;2,65209
1468,62722;2,66492
1466,57607;2,66343
1464,52491;2,64446
1462,47376;2,62012
1460,4226;2,60121
1458,37145;2,59225
1456,32029;2,59362
1454,26913;2,59481
1452,21798;2,5899
1450,16682;2,58303
1448,11567;2,57761
1446,06451;2,57749
1444,01336;2,58111
1441,9622;2,5845
1439,91105;2,58679
1437,85989;2,58691
1435,80874;2,58992
1433,75758;2,59668
1431,70643;2,59858
1429,65527;2,59521
1427,60412;2,59315
1425,55296;2,59671
1423,5018;2,60563
1421,45065;2,61233
1419,39949;2,61556
1417,34834;2,62354
1415,29718;2,62777
1413,24603;2,62305
1411,19487;2,61692
1409,14372;2,61319
1407,09256;2,61027
1405,04141;2,60948
1402,99025;2,61283
1400,9391;2,61563
1398,88794;2,61587
1396,83679;2,61283
1394,78563;2,60507
1392,73447;2,60042
1390,68332;2,601
1388,63216;2,60122
1386,58101;2,59971
1384,52985;2,59826
1382,4787;2,5995
1380,42754;2,60503
1378,37639;2,61052
1376,32523;2,6124
1374,27408;2,6118
1372,22292;2,60992
1370,17177;2,60678
1368,12061;2,60657
1366,06946;2,61005
1364,0183;2,61032
1361,96714;2,60785
1359,91599;2,60954
1357,86483;2,61551
1355,81368;2,62114
1353,76252;2,62235
1351,71137;2,61933
1349,66021;2,61687
1347,60906;2,61803
1345,5579;2,62038
1343,50675;2,62145
1341,45559;2,62199
1339,40444;2,6236
1337,35328;2,62558
1335,30213;2,62793
1333,25097;2,63249
1331,19981;2,63743
1329,14866;2,64032
1327,0975;2,64244
1325,04635;2,64401
1322,99519;2,64183
1320,94404;2,63449
1318,89288;2,62504
1316,84173;2,61874
1314,79057;2,61727
1312,73942;2,61848
1310,68826;2,61963
1308,63711;2,61909
1306,58595;2,61835
1304,5348;2,61897
1302,48364;2,61939
1300,43248;2,61717
1298,38133;2,61276
1296,33017;2,60843
1294,27902;2,6059
1292,22786;2,60674
1290,17671;2,61028
1288,12555;2,61419
1286,0744;2,61728
1284,02324;2,61844
1281,97209;2,61669
1279,92093;2,61357
1277,86978;2,61371
1275,81862;2,61914
1273,76747;2,62495
1271,71631;2,62686
1269,66515;2,62656
1267,614;2,62626
1265,56284;2,62515
1263,51169;2,62621
1261,46053;2,63381
1259,40938;2,64142
1257,35822;2,64253
1255,30707;2,63981
1253,25591;2,63465
1251,20476;2,62964
1249,1536;2,63112
1247,10245;2,63626
1245,05129;2,63593
1243,00013;2,63422
1240,94898;2,63607
1238,89782;2,63499
1236,84667;2,62691
1234,79551;2,616
1232,74436;2,61031
1230,6932;2,61119
1228,64205;2,61546
1226,59089;2,62009
1224,53974;2,61945
1222,48858;2,61658
1220,43743;2,6198
1218,38627;2,62477
1216,33512;2,62227
1214,28396;2,61606
1212,2328;2,61613
1210,18165;2,62484
1208,13049;2,63525
1206,07934;2,63731
1204,02818;2,63175
1201,97703;2,62626
1199,92587;2,62303
1197,87472;2,62226
1195,82356;2,62216
1193,77241;2,61861
1191,72125;2,61248
1189,6701;2,60902
1187,61894;2,61059
1185,56779;2,61324
1183,51663;2,61314
1181,46547;2,61232
1179,41432;2,61232
1177,36316;2,61046
1175,31201;2,60447
1173,26085;2,59462
1171,2097;2,58484
1169,15854;2,57957
1167,10739;2,57569
1165,05623;2,57132
1163,00508;2,57536
1160,95392;2,58751
1158,90277;2,59538
1156,85161;2,59632
1154,80046;2,59663
1152,7493;2,60196
1150,69814;2,61258
1148,64699;2,6208
1146,59583;2,62412
1144,54468;2,62945
1142,49352;2,63649
1140,44237;2,63881
1138,39121;2,63559
1136,34006;2,63034
1134,2889;2,62633
1132,23775;2,62223
1130,18659;2,61385
1128,13544;2,59982
1126,08428;2,58424
1124,03313;2,57487
1121,98197;2,57177
1119,93081;2,57106
1117,87966;2,57573
1115,8285;2,58452
1113,77735;2,59012
1111,72619;2,59514
1109,67504;2,60585
1107,62388;2,61251
1105,57273;2,6061
1103,52157;2,59727
1101,47042;2,59471
1099,41926;2,59879
1097,36811;2,60215
1095,31695;2,5938
1093,2658;2,58184
1091,21464;2,58206
1089,16348;2,59455
1087,11233;2,60771
1085,06117;2,60986
1083,01002;2,59937
1080,95886;2,57889
1078,90771;2,55223
1076,85655;2,52884
1074,8054;2,51322
1072,75424;2,50219
1070,70309;2,49309
1068,65193;2,48742
1066,60078;2,48587
1064,54962;2,48549
1062,49847;2,48628
1060,44731;2,48977
1058,39615;2,49514
1056,345;2,50003
1054,29384;2,50216
1052,24269;2,50448
1050,19153;2,50918
1048,14038;2,50933
1046,08922;2,50347
1044,03807;2,49648
1041,98691;2,48938
1039,93576;2,48858
1037,8846;2,49479
1035,83345;2,49913
1033,78229;2,50165
1031,73114;2,50516
1029,67998;2,50984
1027,62882;2,51414
1025,57767;2,51455
1023,52651;2,51246
1021,47536;2,50799
1019,4242;2,50058
1017,37305;2,49894
1015,32189;2,50818
1013,27074;2,5158
1011,21958;2,51276
1009,16843;2,50853
1007,11727;2,51067
1005,06612;2,51485
1003,01496;2,51462
1000,96381;2,5107
998,91265;2,50874
996,86149;2,50994
994,81034;2,51133
992,75918;2,51372
990,70803;2,51721
988,65687;2,51896
986,60572;2,52123
984,55456;2,52416
982,50341;2,5247
980,45225;2,52313
978,4011;2,52365
976,34994;2,52604
974,29879;2,52432
972,24763;2,52159
970,19647;2,51839
968,14532;2,51279
966,09416;2,51094
964,04301;2,51037
961,99185;2,50834
959,9407;2,50981
957,88954;2,51064
955,83839;2,50832
953,78723;2,51059
951,73608;2,51768
949,68492;2,52171
947,63377;2,52144
945,58261;2,51955
943,53146;2,51546
941,4803;2,51497
939,42914;2,51834
937,37799;2,51837
935,32683;2,51614
933,27568;2,5143
931,22452;2,5157
929,17337;2,51789
927,12221;2,51475
925,07106;2,51039
923,0199;2,5113
920,96875;2,51486
918,91759;2,51344
916,86644;2,50933
914,81528;2,51394
912,76413;2,52478
910,71297;2,52594
908,66181;2,52266
906,61066;2,52595
904,5595;2,53009
902,50835;2,53402
900,45719;2,53768
898,40604;2,53489
896,35488;2,52689
894,30373;2,52033
892,25257;2,5166
890,20142;2,51384
888,15026;2,51765
886,09911;2,53189
884,04795;2,54732
881,9968;2,55502
879,94564;2,55287
877,89448;2,54214
875,84333;2,5272
873,79217;2,51559
871,74102;2,51485
869,68986;2,52457
867,63871;2,53978
865,58755;2,55132
863,5364;2,55385
861,48524;2,55754
859,43409;2,56667
857,38293;2,57198
855,33178;2,56663
853,28062;2,55573
851,22947;2,54979
849,17831;2,55261
847,12715;2,55779
845,076;2,55711
843,02484;2,55218
840,97369;2,55283
838,92253;2,55735
836,87138;2,55622
834,82022;2,5485
832,76907;2,54128
830,71791;2,54472
828,66676;2,5593
826,6156;2,56485
824,56445;2,55399
822,51329;2,55015
820,46214;2,56017
818,41098;2,56919
816,35982;2,56956
814,30867;2,56647
812,25751;2,56438
810,20636;2,56068
808,1552;2,55888
806,10405;2,55954
804,05289;2,55958
802,00174;2,55871
799,95058;2,5558
797,89943;2,55293
795,84827;2,55379
793,79712;2,55942
791,74596;2,56796
789,69481;2,5742
787,64365;2,57493
785,59249;2,57114
783,54134;2,56391
781,49018;2,5608
779,43903;2,56395
777,38787;2,56472
775,33672;2,5669
773,28556;2,57587
771,23441;2,58547
769,18325;2,59266
767,1321;2,59332
765,08094;2,58955
763,02979;2,59139
760,97863;2,59991
758,92748;2,60867
756,87632;2,60329
754,82516;2,58062
752,77401;2,565
750,72285;2,56279
748,6717;2,55722
746,62054;2,54585
744,56939;2,53636
742,51823;2,53867
740,46708;2,55212
738,41592;2,56182
736,36477;2,56138
734,31361;2,56056
732,26246;2,56596
730,2113;2,57381
728,16015;2,57985
726,10899;2,58419
724,05783;2,58344
722,00668;2,57027
719,95552;2,55218
717,90437;2,54473
715,85321;2,5488
713,80206;2,55162
711,7509;2,54793
709,69975;2,54112
707,64859;2,53559
705,59744;2,5384
703,54628;2,54691
701,49513;2,54464
699,44397;2,52665
697,39281;2,50832
695,34166;2,50317
693,2905;2,50967
691,23935;2,51563
689,18819;2,51312
687,13704;2,50926
685,08588;2,51684
683,03473;2,53537
680,98357;2,54547
678,93242;2,53384
676,88126;2,51846
674,83011;2,51809
672,77895;2,52603
670,7278;2,53188
668,67664;2,53471
666,62548;2,53505
664,57433;2,53354
662,52317;2,52756
660,47202;2,52219
658,42086;2,52689
656,36971;2,53857
654,31855;2,55068
652,2674;2,55707
650,21624;2,55065
648,16509;2,53957
646,11393;2,52982
644,06278;2,51793
642,01162;2,51007
639,96047;2,5078
637,90931;2,51039
635,85815;2,51656
633,807;2,51382
631,75584;2,5012
629,70469;2,49727
627,65353;2,50816
625,60238;2,51815
623,55122;2,5241
621,50007;2,52535
619,44891;2,52518
617,39776;2,53106
615,3466;2,53519
613,29545;2,52673
611,24429;2,50875
609,19314;2,49783
607,14198;2,5067
605,09082;2,52173
603,03967;2,52483
600,98851;2,51941
598,93736;2,50923
596,8862;2,4963
594,83505;2,4889
592,78389;2,49159
590,73274;2,49914
588,68158;2,50545
586,63043;2,50859
584,57927;2,51444
582,52812;2,51938
580,47696;2,51167
578,42581;2,505
576,37465;2,51236
574,32349;2,52112
572,27234;2,52837
570,22118;2,5471
568,17003;2,5526
566,11887;2,52125
564,06772;2,4931
562,01656;2,48181
559,96541;2,46552
557,91425;2,45321
555,8631;2,46359
553,81194;2,48436
551,76079;2,4879
549,70963;2,47114
547,65848;2,45724
545,60732;2,45987
543,55616;2,46516
541,50501;2,46146
539,45385;2,45335
537,4027;2,44142
535,35154;2,43174
533,30039;2,43569
531,24923;2,44469
529,19808;2,45742
527,14692;2,47856
525,09577;2,48836
523,04461;2,47782
520,99346;2,46198
518,9423;2,45249
516,89115;2,45705
514,83999;2,47851
512,78883;2,49479
510,73768;2,48157
508,68652;2,44979
506,63537;2,42749
504,58421;2,42855
502,53306;2,44223
500,4819;2,44702
498,43075;2,44232
496,37959;2,44401
494,32844;2,44793
492,27728;2,44413
490,22613;2,43131
488,17497;2,42204
486,12382;2,43151
484,07266;2,45035
482,0215;2,4628
479,97035;2,46649
477,91919;2,46461
475,86804;2,45577
473,81688;2,44274
471,76573;2,43517
469,71457;2,4433
467,66342;2,46133
465,61226;2,45909
463,56111;2,43162
461,50995;2,4145
459,4588;2,42695
457,40764;2,45081
455,35649;2,46211
453,30533;2,4553
451,25417;2,43413
449,20302;2,40738
447,15186;2,39197
445,10071;2,40296
443,04955;2,43746
440,9984;2,47101
438,94724;2,4857
436,89609;2,48564
434,84493;2,47054
432,79378;2,45695
430,74262;2,45317
428,69147;2,44223
426,64031;2,43646
424,58916;2,44952
422,538;2,4429
420,48684;2,40446
418,43569;2,39935
416,38453;2,43877
414,33338;2,45324
412,28222;2,40998
410,23107;2,34331
408,17991;2,33038
406,12876;2,40894
404,0776;2,5072
402,02645;2,51457
399,97529;2,43887
