3997,70175;1,78011
3995,6506;1,7805
3993,59944;1,78171
3991,54829;1,78296
3989,49713;1,78358
3987,44598;1,78404
3985,39482;1,78517
3983,34367;1,78632
3981,29251;1,78691
3979,24136;1,7874
3977,1902;1,78828
3975,13905;1,78997
3973,08789;1,79182
3971,03673;1,79245
3968,98558;1,79196
3966,93442;1,79173
3964,88327;1,79239
3962,83211;1,79384
3960,78096;1,79625
3958,7298;1,79961
3956,67865;1,80275
3954,62749;1,80414
3952,57634;1,80427
3950,52518;1,80466
3948,47403;1,80514
3946,42287;1,805
3944,37172;1,8046
3942,32056;1,80464
3940,2694;1,80532
3938,21825;1,8054
3936,16709;1,80413
3934,11594;1,80237
3932,06478;1,80013
3930,01363;1,79744
3927,96247;1,79483
3925,91132;1,79167
3923,86016;1,78764
3921,80901;1,78398
3919,75785;1,78085
3917,7067;1,77718
3915,65554;1,77392
3913,60439;1,77272
3911,55323;1,77248
3909,50207;1,77084
3907,45092;1,76763
3905,39976;1,76451
3903,34861;1,76282
3901,29745;1,76265
3899,2463;1,76248
3897,19514;1,76098
3895,14399;1,75963
3893,09283;1,75966
3891,04168;1,75921
3888,99052;1,75783
3886,93937;1,75764
3884,88821;1,75736
3882,83706;1,75704
3880,7859;1,75815
3878,73474;1,75852
3876,68359;1,75864
3874,63243;1,75898
3872,58128;1,75803
3870,53012;1,75636
3868,47897;1,75402
3866,42781;1,75276
3864,37666;1,7521
3862,3255;1,74984
3860,27435;1,74795
3858,22319;1,7479
3856,17204;1,74906
3854,12088;1,7488
3852,06973;1,74496
3850,01857;1,74189
3847,96741;1,7421
3845,91626;1,74324
3843,8651;1,74302
3841,81395;1,74145
3839,76279;1,73996
3837,71164;1,73813
3835,66048;1,73606
3833,60933;1,7358
3831,55817;1,73706
3829,50702;1,73821
3827,45586;1,73857
3825,40471;1,7379
3823,35355;1,7377
3821,3024;1,73736
3819,25124;1,73596
3817,20008;1,73692
3815,14893;1,73856
3813,09777;1,73883
3811,04662;1,7397
3808,99546;1,74109
3806,94431;1,74069
3804,89315;1,73857
3802,842;1,73833
3800,79084;1,7393
3798,73969;1,74056
3796,68853;1,7428
3794,63738;1,74447
3792,58622;1,7457
3790,53506;1,74648
3788,48391;1,74659
3786,43275;1,74748
3784,3816;1,74918
3782,33044;1,75075
3780,27929;1,75199
3778,22813;1,75242
3776,17698;1,75288
3774,12582;1,75419
3772,07467;1,75579
3770,02351;1,75666
3767,97236;1,75655
3765,9212;1,75641
3763,87005;1,75668
3761,81889;1,75881
3759,76773;1,7619
3757,71658;1,76289
3755,66542;1,76292
3753,61427;1,76492
3751,56311;1,76798
3749,51196;1,76966
3747,4608;1,77223
3745,40965;1,77785
3743,35849;1,78166
3741,30734;1,78262
3739,25618;1,78535
3737,20503;1,79119
3735,15387;1,7976
3733,10272;1,8011
3731,05156;1,80289
3729,0004;1,80624
3726,94925;1,81147
3724,89809;1,81635
3722,84694;1,82067
3720,79578;1,82518
3718,74463;1,82958
3716,69347;1,83289
3714,64232;1,83589
3712,59116;1,84104
3710,54001;1,84793
3708,48885;1,85454
3706,4377;1,86142
3704,38654;1,87168
3702,33539;1,88951
3700,28423;1,91426
3698,23307;1,93938
3696,18192;1,95914
3694,13076;1,97037
3692,07961;1,97388
3690,02845;1,97339
3687,9773;1,97063
3685,92614;1,96749
3683,87499;1,96731
3681,82383;1,97
3679,77268;1,97436
3677,72152;1,98301
3675,67037;1,99648
3673,61921;2,00878
3671,56806;2,02088
3669,5169;2,0357
3667,46574;2,05018
3665,41459;2,06302
3663,36343;2,07446
3661,31228;2,08605
3659,26112;2,10067
3657,20997;2,11777
3655,15881;2,13237
3653,10766;2,14577
3651,0565;2,16852
3649,00535;2,20242
3646,95419;2,23187
3644,90304;2,24695
3642,85188;2,25211
3640,80073;2,25129
3638,74957;2,24535
3636,69841;2,23798
3634,64726;2,23387
3632,5961;2,2335
3630,54495;2,23602
3628,49379;2,24102
3626,44264;2,2463
3624,39148;2,24991
3622,34033;2,25065
3620,28917;2,25156
3618,23802;2,2569
3616,18686;2,26316
3614,13571;2,26545
3612,08455;2,26618
3610,0334;2,27049
3607,98224;2,2779
3605,93108;2,28489
3603,87993;2,2901
3601,82877;2,29264
3599,77762;2,29409
3597,72646;2,29683
3595,67531;2,29934
3593,62415;2,29871
3591,573;2,29547
3589,52184;2,29452
3587,47069;2,29765
3585,41953;2,30108
3583,36838;2,30348
3581,31722;2,30523
3579,26607;2,3062
3577,21491;2,30645
3575,16375;2,30499
3573,1126;2,30279
3571,06144;2,30272
3569,01029;2,30601
3566,95913;2,31251
3564,90798;2,31777
3562,85682;2,3173
3560,80567;2,31427
3558,75451;2,31172
3556,70336;2,30918
3554,6522;2,30675
3552,60105;2,30578
3550,54989;2,30704
3548,49874;2,30992
3546,44758;2,31451
3544,39642;2,31972
3542,34527;2,32
3540,29411;2,31375
3538,24296;2,30916
3536,1918;2,31297
3534,14065;2,31951
3532,08949;2,31941
3530,03834;2,3137
3527,98718;2,31013
3525,93603;2,31026
3523,88487;2,31093
3521,83372;2,31224
3519,78256;2,31325
3517,73141;2,31101
3515,68025;2,30811
3513,62909;2,30855
3511,57794;2,31043
3509,52678;2,31154
3507,47563;2,31212
3505,42447;2,31061
3503,37332;2,30681
3501,32216;2,30504
3499,27101;2,3077
3497,21985;2,31016
3495,1687;2,30828
3493,11754;2,30506
3491,06639;2,30346
3489,01523;2,30328
3486,96407;2,30436
3484,91292;2,30537
3482,86176;2,30556
3480,81061;2,30773
3478,75945;2,31164
3476,7083;2,31242
3474,65714;2,31027
3472,60599;2,30828
3470,55483;2,30601
3468,50368;2,30335
3466,45252;2,30123
3464,40137;2,30096
3462,35021;2,30466
3460,29906;2,30935
3458,2479;2,30805
3456,19674;2,30225
3454,14559;2,29916
3452,09443;2,29827
3450,04328;2,29686
3447,99212;2,2962
3445,94097;2,29596
3443,88981;2,29861
3441,83866;2,30449
3439,7875;2,30569
3437,73635;2,30177
3435,68519;2,3002
3433,63404;2,30203
3431,58288;2,30291
3429,53173;2,30114
3427,48057;2,29925
3425,42941;2,30075
3423,37826;2,30508
3421,3271;2,3047
3419,27595;2,29739
3417,22479;2,2928
3415,17364;2,29527
3413,12248;2,29819
3411,07133;2,29862
3409,02017;2,30015
3406,96902;2,30211
3404,91786;2,3025
3402,86671;2,30102
3400,81555;2,29528
3398,7644;2,28735
3396,71324;2,28183
3394,66208;2,28187
3392,61093;2,28491
3390,55977;2,28722
3388,50862;2,28908
3386,45746;2,28917
3384,40631;2,28766
3382,35515;2,28823
3380,304;2,28972
3378,25284;2,28807
3376,20169;2,28472
3374,15053;2,28465
3372,09938;2,2883
3370,04822;2,29088
3367,99707;2,29003
3365,94591;2,28764
3363,89475;2,2854
3361,8436;2,28511
3359,79244;2,28449
3357,74129;2,2806
3355,69013;2,27758
3353,63898;2,27815
3351,58782;2,27918
3349,53667;2,27951
3347,48551;2,28023
3345,43436;2,27953
3343,3832;2,2769
3341,33205;2,27566
3339,28089;2,27731
3337,22974;2,27864
3335,17858;2,27736
3333,12742;2,27688
3331,07627;2,27937
3329,02511;2,28096
3326,97396;2,27955
3324,9228;2,27845
3322,87165;2,27788
3320,82049;2,27499
3318,76934;2,27106
3316,71818;2,26923
3314,66703;2,27119
3312,61587;2,27408
3310,56472;2,27219
3308,51356;2,26652
3306,46241;2,26328
3304,41125;2,2648
3302,36009;2,26788
3300,30894;2,26911
3298,25778;2,26819
3296,20663;2,26521
3294,15547;2,26091
3292,10432;2,25771
3290,05316;2,2568
3288,00201;2,2569
3285,95085;2,25682
3283,8997;2,25728
3281,84854;2,25766
3279,79739;2,25469
3277,74623;2,24953
3275,69508;2,24742
3273,64392;2,24825
3271,59276;2,24787
3269,54161;2,24629
3267,49045;2,24624
3265,4393;2,2459
3263,38814;2,24312
3261,33699;2,24072
3259,28583;2,24093
3257,23468;2,24257
3255,18352;2,24249
3253,13237;2,24088
3251,08121;2,24052
3249,03006;2,23987
3246,9789;2,2384
3244,92775;2,23851
3242,87659;2,24021
3240,82543;2,24214
3238,77428;2,24232
3236,72312;2,24065
3234,67197;2,24041
3232,62081;2,24183
3230,56966;2,2424
3228,5185;2,24357
3226,46735;2,2466
3224,41619;2,247
3222,36504;2,24221
3220,31388;2,23714
3218,26273;2,23534
3216,21157;2,23518
3214,16041;2,23537
3212,10926;2,23483
3210,0581;2,23425
3208,00695;2,23657
3205,95579;2,2411
3203,90464;2,24452
3201,85348;2,24523
3199,80233;2,2432
3197,75117;2,2395
3195,70002;2,23629
3193,64886;2,23537
3191,59771;2,23595
3189,54655;2,23558
3187,4954;2,23407
3185,44424;2,23314
3183,39308;2,23379
3181,34193;2,23629
3179,29077;2,23992
3177,23962;2,24135
3175,18846;2,23843
3173,13731;2,23459
3171,08615;2,23468
3169,035;2,23802
3166,98384;2,23825
3164,93269;2,23398
3162,88153;2,23096
3160,83038;2,23191
3158,77922;2,23354
3156,72807;2,23383
3154,67691;2,23498
3152,62575;2,23528
3150,5746;2,23278
3148,52344;2,23209
3146,47229;2,23503
3144,42113;2,23766
3142,36998;2,23734
3140,31882;2,23573
3138,26767;2,23511
3136,21651;2,23417
3134,16536;2,23327
3132,1142;2,23482
3130,06305;2,23703
3128,01189;2,23812
3125,96074;2,23788
3123,90958;2,23608
3121,85842;2,23551
3119,80727;2,23786
3117,75611;2,23986
3115,70496;2,23915
3113,6538;2,23734
3111,60265;2,23631
3109,55149;2,23575
3107,50034;2,23528
3105,44918;2,23584
3103,39803;2,23667
3101,34687;2,23586
3099,29572;2,23484
3097,24456;2,23536
3095,19341;2,23583
3093,14225;2,23595
3091,09109;2,23668
3089,03994;2,23743
3086,98878;2,23709
3084,93763;2,23546
3082,88647;2,23383
3080,83532;2,23288
3078,78416;2,23309
3076,73301;2,23432
3074,68185;2,23429
3072,6307;2,23316
3070,57954;2,23337
3068,52839;2,23412
3066,47723;2,23424
3064,42608;2,23641
3062,37492;2,24018
3060,32376;2,24058
3058,27261;2,23778
3056,22145;2,23539
3054,1703;2,23439
3052,11914;2,23409
3050,06799;2,2331
3048,01683;2,232
3045,96568;2,23306
3043,91452;2,23586
3041,86337;2,23661
3039,81221;2,23422
3037,76106;2,23309
3035,7099;2,23444
3033,65875;2,2355
3031,60759;2,23672
3029,55643;2,23765
3027,50528;2,23616
3025,45412;2,23507
3023,40297;2,23683
3021,35181;2,23936
3019,30066;2,24131
3017,2495;2,24321
3015,19835;2,24467
3013,14719;2,24473
3011,09604;2,24406
3009,04488;2,24347
3006,99373;2,24316
3004,94257;2,24311
3002,89142;2,24359
3000,84026;2,24494
2998,7891;2,24562
2996,73795;2,24483
2994,68679;2,24441
2992,63564;2,2453
2990,58448;2,2471
2988,53333;2,24978
2986,48217;2,25249
2984,43102;2,25257
2982,37986;2,25224
2980,32871;2,25481
2978,27755;2,25731
2976,2264;2,25873
2974,17524;2,26109
2972,12409;2,26374
2970,07293;2,26439
2968,02177;2,26372
2965,97062;2,26532
2963,91946;2,26732
2961,86831;2,26695
2959,81715;2,26617
2957,766;2,26468
2955,71484;2,26246
2953,66369;2,26106
2951,61253;2,2596
2949,56138;2,25843
2947,51022;2,25982
2945,45907;2,26505
2943,40791;2,27066
2941,35675;2,27091
2939,3056;2,26811
2937,25444;2,26735
2935,20329;2,26651
2933,15213;2,26211
2931,10098;2,25368
2929,04982;2,24147
2926,99867;2,22807
2924,94751;2,21517
2922,89636;2,20198
2920,8452;2,19117
2918,79405;2,18521
2916,74289;2,18233
2914,69174;2,18088
2912,64058;2,18078
2910,58942;2,18152
2908,53827;2,18348
2906,48711;2,18672
2904,43596;2,18946
2902,3848;2,1909
2900,33365;2,19071
2898,28249;2,1897
2896,23134;2,1903
2894,18018;2,19218
2892,12903;2,19328
2890,07787;2,19361
2888,02672;2,19476
2885,97556;2,19752
2883,92441;2,20098
2881,87325;2,2047
2879,82209;2,20746
2877,77094;2,20702
2875,71978;2,20569
2873,66863;2,20706
2871,61747;2,20959
2869,56632;2,21033
2867,51516;2,21013
2865,46401;2,21151
2863,41285;2,21441
2861,3617;2,21603
2859,31054;2,21383
2857,25939;2,20836
2855,20823;2,20056
2853,15708;2,19108
2851,10592;2,18114
2849,05476;2,17269
2847,00361;2,16856
2844,95245;2,16838
2842,9013;2,16911
2840,85014;2,17037
2838,79899;2,17247
2836,74783;2,17427
2834,69668;2,17476
2832,64552;2,17331
2830,59437;2,17205
2828,54321;2,1743
2826,49206;2,1773
2824,4409;2,17665
2822,38975;2,17385
2820,33859;2,17256
2818,28743;2,17397
2816,23628;2,17505
2814,18512;2,17335
2812,13397;2,17111
2810,08281;2,16989
2808,03166;2,16902
2805,9805;2,16918
2803,92935;2,17085
2801,87819;2,17059
2799,82704;2,16766
2797,77588;2,16728
2795,72473;2,1697
2793,67357;2,16966
2791,62242;2,16702
2789,57126;2,16642
2787,5201;2,16797
2785,46895;2,16728
2783,41779;2,16396
2781,36664;2,16198
2779,31548;2,16272
2777,26433;2,16416
2775,21317;2,16477
2773,16202;2,16464
2771,11086;2,16381
2769,05971;2,16222
2767,00855;2,16134
2764,9574;2,16149
2762,90624;2,16118
2760,85509;2,16116
2758,80393;2,16144
2756,75277;2,15967
2754,70162;2,15755
2752,65046;2,15824
2750,59931;2,16021
2748,54815;2,16132
2746,497;2,16113
2744,44584;2,15916
2742,39469;2,157
2740,34353;2,15708
2738,29238;2,15802
2736,24122;2,15806
2734,19007;2,15742
2732,13891;2,15655
2730,08776;2,1569
2728,0366;2,15716
2725,98544;2,15553
2723,93429;2,15459
2721,88313;2,15571
2719,83198;2,15709
2717,78082;2,15766
2715,72967;2,15718
2713,67851;2,1551
2711,62736;2,15248
2709,5762;2,15192
2707,52505;2,15323
2705,47389;2,15291
2703,42274;2,15093
2701,37158;2,15078
2699,32043;2,15243
2697,26927;2,15308
2695,21811;2,15203
2693,16696;2,15158
2691,1158;2,15224
2689,06465;2,15209
2687,01349;2,15104
2684,96234;2,14958
2682,91118;2,14836
2680,86003;2,14902
2678,80887;2,1508
2676,75772;2,15118
2674,70656;2,15041
2672,65541;2,15085
2670,60425;2,15228
2668,55309;2,15319
2666,50194;2,15329
2664,45078;2,15233
2662,39963;2,15073
2660,34847;2,14909
2658,29732;2,14746
2656,24616;2,14624
2654,19501;2,14567
2652,14385;2,14459
2650,0927;2,14358
2648,04154;2,14374
2645,99039;2,14359
2643,93923;2,14376
2641,88808;2,14532
2639,83692;2,14651
2637,78576;2,1469
2635,73461;2,14843
2633,68345;2,15116
2631,6323;2,1526
2629,58114;2,1526
2627,52999;2,15349
2625,47883;2,1556
2623,42768;2,15726
2621,37652;2,1567
2619,32537;2,15437
2617,27421;2,15433
2615,22306;2,15754
2613,1719;2,16008
2611,12075;2,16089
2609,06959;2,16193
2607,01843;2,16327
2604,96728;2,16281
2602,91612;2,16013
2600,86497;2,15832
2598,81381;2,15865
2596,76266;2,15969
2594,7115;2,16069
2592,66035;2,16079
2590,60919;2,15988
2588,55804;2,15886
2586,50688;2,1584
2584,45573;2,15897
2582,40457;2,15956
2580,35342;2,15802
2578,30226;2,15537
2576,2511;2,15572
2574,19995;2,15862
2572,14879;2,15954
2570,09764;2,15796
2568,04648;2,15766
2565,99533;2,15963
2563,94417;2,16058
2561,89302;2,16034
2559,84186;2,16082
2557,79071;2,16095
2555,73955;2,16094
2553,6884;2,16073
2551,63724;2,1595
2549,58609;2,15953
2547,53493;2,16181
2545,48377;2,16431
2543,43262;2,1651
2541,38146;2,16468
2539,33031;2,16461
2537,27915;2,16554
2535,228;2,16765
2533,17684;2,17014
2531,12569;2,1717
2529,07453;2,17215
2527,02338;2,17218
2524,97222;2,17204
2522,92107;2,17217
2520,86991;2,17373
2518,81876;2,17639
2516,7676;2,17819
2514,71644;2,17853
2512,66529;2,1779
2510,61413;2,1766
2508,56298;2,17567
2506,51182;2,17553
2504,46067;2,17494
2502,40951;2,17299
2500,35836;2,16982
2498,3072;2,16633
2496,25605;2,16327
2494,20489;2,16063
2492,15374;2,1582
2490,10258;2,15537
2488,05143;2,15304
2486,00027;2,15195
2483,94911;2,14946
2481,89796;2,14547
2479,8468;2,14195
2477,79565;2,13804
2475,74449;2,1335
2473,69334;2,12932
2471,64218;2,12515
2469,59103;2,1211
2467,53987;2,11857
2465,48872;2,11788
2463,43756;2,11763
2461,38641;2,11604
2459,33525;2,11294
2457,2841;2,11016
2455,23294;2,10838
2453,18178;2,10669
2451,13063;2,10511
2449,07947;2,10339
2447,02832;2,10099
2444,97716;2,0991
2442,92601;2,0985
2440,87485;2,09786
2438,8237;2,09566
2436,77254;2,09271
2434,72139;2,09085
2432,67023;2,09044
2430,61908;2,09041
2428,56792;2,089
2426,51677;2,08628
2424,46561;2,08498
2422,41445;2,08615
2420,3633;2,08708
2418,31214;2,08622
2416,26099;2,08496
2414,20983;2,08349
2412,15868;2,08146
2410,10752;2,08023
2408,05637;2,08
2406,00521;2,0794
2403,95406;2,078
2401,9029;2,07659
2399,85175;2,07663
2397,80059;2,07732
2395,74944;2,07718
2393,69828;2,07653
2391,64712;2,07594
2389,59597;2,07456
2387,54481;2,07256
2385,49366;2,07128
2383,4425;2,07175
2381,39135;2,07364
2379,34019;2,075
2377,28904;2,07507
2375,23788;2,07474
2373,18673;2,07393
2371,13557;2,07338
2369,08442;2,07486
2367,03326;2,07781
2364,9821;2,08034
2362,93095;2,08148
2360,87979;2,08015
2358,82864;2,07644
2356,77748;2,07336
2354,72633;2,0733
2352,67517;2,07509
2350,62402;2,07598
2348,57286;2,07452
2346,52171;2,07281
2344,47055;2,07337
2342,4194;2,07363
2340,36824;2,07201
2338,31709;2,0713
2336,26593;2,07068
2334,21477;2,06858
2332,16362;2,06765
2330,11246;2,06939
2328,06131;2,07161
2326,01015;2,07288
2323,959;2,07354
2321,90784;2,0729
2319,85669;2,07076
2317,80553;2,06936
2315,75438;2,06979
2313,70322;2,06998
2311,65207;2,06834
2309,60091;2,06627
2307,54976;2,06609
2305,4986;2,06763
2303,44744;2,06827
2301,39629;2,06704
2299,34513;2,0659
2297,29398;2,06594
2295,24282;2,06606
2293,19167;2,06526
2291,14051;2,06359
2289,08936;2,06207
2287,0382;2,06201
2284,98705;2,06315
2282,93589;2,06382
2280,88474;2,06348
2278,83358;2,063
2276,78243;2,06274
2274,73127;2,06241
2272,68011;2,06253
2270,62896;2,06397
2268,5778;2,06563
2266,52665;2,06539
2264,47549;2,06363
2262,42434;2,06297
2260,37318;2,06402
2258,32203;2,06499
2256,27087;2,06526
2254,21972;2,06516
2252,16856;2,0651
2250,11741;2,06582
2248,06625;2,06693
2246,0151;2,0675
2243,96394;2,06792
2241,91278;2,06779
2239,86163;2,06764
2237,81047;2,06831
2235,75932;2,06834
2233,70816;2,06737
2231,65701;2,06734
2229,60585;2,06848
2227,5547;2,06978
2225,50354;2,07112
2223,45239;2,07204
2221,40123;2,07208
2219,35008;2,0723
2217,29892;2,07353
2215,24777;2,07477
2213,19661;2,07566
2211,14545;2,07602
2209,0943;2,07515
2207,04314;2,0752
2204,99199;2,07723
2202,94083;2,07827
2200,88968;2,07733
2198,83852;2,07642
2196,78737;2,07665
2194,73621;2,07795
2192,68506;2,07992
2190,6339;2,08169
2188,58275;2,0823
2186,53159;2,0818
2184,48044;2,0811
2182,42928;2,081
2180,37812;2,08164
2178,32697;2,08207
2176,27581;2,08171
2174,22466;2,08126
2172,1735;2,08185
2170,12235;2,08402
2168,07119;2,08561
2166,02004;2,08543
2163,96888;2,08594
2161,91773;2,08839
2159,86657;2,09198
2157,81542;2,09518
2155,76426;2,09596
2153,71311;2,09531
2151,66195;2,09639
2149,61079;2,09963
2147,55964;2,10247
2145,50848;2,10328
2143,45733;2,10322
2141,40617;2,10358
2139,35502;2,10392
2137,30386;2,10293
2135,25271;2,10123
2133,20155;2,10113
2131,1504;2,10175
2129,09924;2,10105
2127,04809;2,09953
2124,99693;2,09748
2122,94578;2,09499
2120,89462;2,09356
2118,84346;2,09364
2116,79231;2,0934
2114,74115;2,09212
2112,69;2,09111
2110,63884;2,09075
2108,58769;2,08982
2106,53653;2,08792
2104,48538;2,08742
2102,43422;2,08903
2100,38307;2,0896
2098,33191;2,08909
2096,28076;2,08949
2094,2296;2,08966
2092,17844;2,08934
2090,12729;2,09016
2088,07613;2,09136
2086,02498;2,09172
2083,97382;2,09122
2081,92267;2,0907
2079,87151;2,09089
2077,82036;2,09127
2075,7692;2,09146
2073,71805;2,09155
2071,66689;2,09153
2069,61574;2,09234
2067,56458;2,09369
2065,51343;2,09373
2063,46227;2,09271
2061,41111;2,09172
2059,35996;2,09159
2057,3088;2,09346
2055,25765;2,09581
2053,20649;2,09597
2051,15534;2,09531
2049,10418;2,09588
2047,05303;2,09668
2045,00187;2,09722
2042,95072;2,09823
2040,89956;2,09952
2038,84841;2,10032
2036,79725;2,09995
2034,7461;2,09899
2032,69494;2,09928
2030,64378;2,10069
2028,59263;2,10166
2026,54147;2,10172
2024,49032;2,10128
2022,43916;2,1013
2020,38801;2,10201
2018,33685;2,10319
2016,2857;2,10526
2014,23454;2,10745
2012,18339;2,10776
2010,13223;2,10638
2008,08108;2,10587
2006,02992;2,10676
2003,97877;2,10752
2001,92761;2,10764
1999,87645;2,10763
1997,8253;2,10786
1995,77414;2,10892
1993,72299;2,1108
1991,67183;2,1115
1989,62068;2,11074
1987,56952;2,11082
1985,51837;2,11182
1983,46721;2,11227
1981,41606;2,11153
1979,3649;2,11066
1977,31375;2,11142
1975,26259;2,11367
1973,21144;2,11611
1971,16028;2,11755
1969,10912;2,11811
1967,05797;2,11943
1965,00681;2,12154
1962,95566;2,1237
1960,9045;2,12496
1958,85335;2,12406
1956,80219;2,12222
1954,75104;2,12108
1952,69988;2,12067
1950,64873;2,1215
1948,59757;2,1229
1946,54642;2,1232
1944,49526;2,12274
1942,44411;2,12264
1940,39295;2,12322
1938,34179;2,12468
1936,29064;2,12629
1934,23948;2,12708
1932,18833;2,12771
1930,13717;2,12889
1928,08602;2,12979
1926,03486;2,12986
1923,98371;2,12975
1921,93255;2,12896
1919,8814;2,12841
1917,83024;2,12983
1915,77909;2,13167
1913,72793;2,13326
1911,67678;2,13524
1909,62562;2,13714
1907,57446;2,1387
1905,52331;2,13982
1903,47215;2,13988
1901,421;2,13936
1899,36984;2,13909
1897,31869;2,13902
1895,26753;2,13878
1893,21638;2,13813
1891,16522;2,13841
1889,11407;2,14061
1887,06291;2,14336
1885,01176;2,14519
1882,9606;2,14577
1880,90945;2,14622
1878,85829;2,14729
1876,80713;2,14831
1874,75598;2,14877
1872,70482;2,14839
1870,65367;2,14799
1868,60251;2,1494
1866,55136;2,1522
1864,5002;2,15412
1862,44905;2,1545
1860,39789;2,1549
1858,34674;2,1566
1856,29558;2,15919
1854,24443;2,16169
1852,19327;2,16326
1850,14212;2,16392
1848,09096;2,16509
1846,0398;2,16761
1843,98865;2,16986
1841,93749;2,17087
1839,88634;2,17235
1837,83518;2,1741
1835,78403;2,17531
1833,73287;2,17727
1831,68172;2,18086
1829,63056;2,18476
1827,57941;2,18769
1825,52825;2,19011
1823,4771;2,1921
1821,42594;2,19412
1819,37478;2,19684
1817,32363;2,19962
1815,27247;2,20131
1813,22132;2,20204
1811,17016;2,20416
1809,11901;2,20977
1807,06785;2,21661
1805,0167;2,22132
1802,96554;2,22439
1800,91439;2,22807
1798,86323;2,23305
1796,81208;2,23781
1794,76092;2,24134
1792,70977;2,24375
1790,65861;2,24333
1788,60745;2,24036
1786,5563;2,23853
1784,50514;2,23973
1782,45399;2,2429
1780,40283;2,24526
1778,35168;2,24494
1776,30052;2,24388
1774,24937;2,24623
1772,19821;2,2528
1770,14706;2,25992
1768,0959;2,26638
1766,04475;2,27264
1763,99359;2,27998
1761,94244;2,28966
1759,89128;2,30018
1757,84012;2,31011
1755,78897;2,31698
1753,73781;2,31931
1751,68666;2,31711
1749,6355;2,30827
1747,58435;2,29434
1745,53319;2,27933
1743,48204;2,26422
1741,43088;2,25007
1739,37973;2,23857
1737,32857;2,23072
1735,27742;2,22819
1733,22626;2,22917
1731,17511;2,23017
1729,12395;2,23129
1727,07279;2,23234
1725,02164;2,23287
1722,97048;2,23292
1720,91933;2,23375
1718,86817;2,23763
1716,81702;2,24409
1714,76586;2,24995
1712,71471;2,25403
1710,66355;2,25707
1708,6124;2,25934
1706,56124;2,26115
1704,51009;2,26291
1702,45893;2,26605
1700,40778;2,27173
1698,35662;2,27905
1696,30546;2,28768
1694,25431;2,29255
1692,20315;2,2922
1690,152;2,29137
1688,10084;2,29242
1686,04969;2,29626
1683,99853;2,29877
1681,94738;2,29497
1679,89622;2,2906
1677,84507;2,28894
1675,79391;2,28724
1673,74276;2,28325
1671,6916;2,28079
1669,64045;2,28139
1667,58929;2,27877
1665,53813;2,27226
1663,48698;2,26579
1661,43582;2,25882
1659,38467;2,25014
1657,33351;2,24049
1655,28236;2,23073
1653,2312;2,22032
1651,18005;2,21077
1649,12889;2,20561
1647,07774;2,20271
1645,02658;2,19953
1642,97543;2,19639
1640,92427;2,19275
1638,87312;2,1882
1636,82196;2,18324
1634,7708;2,1775
1632,71965;2,17211
1630,66849;2,16819
1628,61734;2,16412
1626,56618;2,15932
1624,51503;2,15634
1622,46387;2,15531
1620,41272;2,15436
1618,36156;2,15503
1616,31041;2,15752
1614,25925;2,15984
1612,2081;2,16295
1610,15694;2,16758
1608,10579;2,17176
1606,05463;2,17381
1604,00347;2,17509
1601,95232;2,17737
1599,90116;2,18039
1597,85001;2,18402
1595,79885;2,18831
1593,7477;2,19267
1591,69654;2,19734
1589,64539;2,2024
1587,59423;2,20663
1585,54308;2,20953
1583,49192;2,21153
1581,44077;2,21207
1579,38961;2,21031
1577,33846;2,20714
1575,2873;2,20228
1573,23614;2,19602
1571,18499;2,19025
1569,13383;2,18491
1567,08268;2,18076
1565,03152;2,17734
1562,98037;2,17204
1560,92921;2,16618
1558,87806;2,16107
1556,8269;2,15587
1554,77575;2,15296
1552,72459;2,15201
1550,67344;2,1506
1548,62228;2,14683
1546,57113;2,14095
1544,51997;2,13479
1542,46881;2,13131
1540,41766;2,13199
1538,3665;2,13182
1536,31535;2,1306
1534,26419;2,13223
1532,21304;2,1341
1530,16188;2,13341
1528,11073;2,13218
1526,05957;2,13158
1524,00842;2,13238
1521,95726;2,13494
1519,90611;2,13593
1517,85495;2,13552
1515,80379;2,13624
1513,75264;2,13728
1511,70148;2,137
1509,65033;2,13698
1507,59917;2,14309
1505,54802;2,15224
1503,49686;2,15512
1501,44571;2,15456
1499,39455;2,15494
1497,3434;2,15757
1495,29224;2,16224
1493,24109;2,16785
1491,18993;2,17367
1489,13878;2,17852
1487,08762;2,18189
1485,03646;2,18381
1482,98531;2,18461
1480,93415;2,18558
1478,883;2,1876
1476,83184;2,19041
1474,78069;2,1929
1472,72953;2,19368
1470,67838;2,19114
1468,62722;2,18558
1466,57607;2,17812
1464,52491;2,17014
1462,47376;2,164
1460,4226;2,1611
1458,37145;2,16106
1456,32029;2,16033
1454,26913;2,15676
1452,21798;2,15432
1450,16682;2,15506
1448,11567;2,15701
1446,06451;2,15722
1444,01336;2,15521
1441,9622;2,1521
1439,91105;2,14924
1437,85989;2,14857
1435,80874;2,14936
1433,75758;2,14953
1431,70643;2,15006
1429,65527;2,15186
1427,60412;2,15426
1425,55296;2,15632
1423,5018;2,15691
1421,45065;2,15674
1419,39949;2,15727
1417,34834;2,15613
1415,29718;2,15263
1413,24603;2,14952
1411,19487;2,14785
1409,14372;2,14631
1407,09256;2,14477
1405,04141;2,14391
1402,99025;2,14291
1400,9391;2,14185
1398,88794;2,14152
1396,83679;2,14176
1394,78563;2,14203
1392,73447;2,14202
1390,68332;2,14257
1388,63216;2,14452
1386,58101;2,14633
1384,52985;2,14577
1382,4787;2,14337
1380,42754;2,14007
1378,37639;2,13625
1376,32523;2,13371
1374,27408;2,13411
1372,22292;2,13589
1370,17177;2,13728
1368,12061;2,13787
1366,06946;2,137
1364,0183;2,13565
1361,96714;2,13582
1359,91599;2,13753
1357,86483;2,13908
1355,81368;2,13936
1353,76252;2,13897
1351,71137;2,13965
1349,66021;2,14309
1347,60906;2,14793
1345,5579;2,15001
1343,50675;2,14814
1341,45559;2,1458
1339,40444;2,1462
1337,35328;2,14851
1335,30213;2,15055
1333,25097;2,1523
1331,19981;2,15457
1329,14866;2,15758
1327,0975;2,16049
1325,04635;2,16239
1322,99519;2,1632
1320,94404;2,16339
1318,89288;2,16341
1316,84173;2,16257
1314,79057;2,1602
1312,73942;2,15612
1310,68826;2,15081
1308,63711;2,14638
1306,58595;2,14446
1304,5348;2,14428
1302,48364;2,14502
1300,43248;2,14649
1298,38133;2,14748
1296,33017;2,14697
1294,27902;2,14385
1292,22786;2,13844
1290,17671;2,13375
1288,12555;2,13111
1286,0744;2,12941
1284,02324;2,12799
1281,97209;2,12656
1279,92093;2,12544
1277,86978;2,12548
1275,81862;2,12619
1273,76747;2,12678
1271,71631;2,12714
1269,66515;2,1268
1267,614;2,12519
1265,56284;2,12303
1263,51169;2,12189
1261,46053;2,1211
1259,40938;2,11767
1257,35822;2,11213
1255,30707;2,10792
1253,25591;2,10442
1251,20476;2,0994
1249,1536;2,09448
1247,10245;2,09131
1245,05129;2,08835
1243,00013;2,08563
1240,94898;2,08442
1238,89782;2,08382
1236,84667;2,08383
1234,79551;2,0854
1232,74436;2,08721
1230,6932;2,08766
1228,64205;2,08804
1226,59089;2,08957
1224,53974;2,09033
1222,48858;2,08932
1220,43743;2,08767
1218,38627;2,08622
1216,33512;2,0864
1214,28396;2,08908
1212,2328;2,09217
1210,18165;2,09367
1208,13049;2,09408
1206,07934;2,09525
1204,02818;2,09838
1201,97703;2,10202
1199,92587;2,10475
1197,87472;2,10717
1195,82356;2,10913
1193,77241;2,1108
1191,72125;2,11267
1189,6701;2,1148
1187,61894;2,11619
1185,56779;2,11666
1183,51663;2,11795
1181,46547;2,11989
1179,41432;2,12099
1177,36316;2,1207
1175,31201;2,11937
1173,26085;2,11877
1171,2097;2,11951
1169,15854;2,12016
1167,10739;2,12033
1165,05623;2,11961
1163,00508;2,11764
1160,95392;2,11529
1158,90277;2,1128
1156,85161;2,11012
1154,80046;2,10785
1152,7493;2,10614
1150,69814;2,10463
1148,64699;2,10419
1146,59583;2,10454
1144,54468;2,10437
1142,49352;2,10423
1140,44237;2,10375
1138,39121;2,10339
1136,34006;2,10458
1134,2889;2,10705
1132,23775;2,1118
1130,18659;2,11798
1128,13544;2,12123
1126,08428;2,12257
1124,03313;2,12586
1121,98197;2,12881
1119,93081;2,12794
1117,87966;2,12536
1115,8285;2,12407
1113,77735;2,12379
1111,72619;2,12365
1109,67504;2,12341
1107,62388;2,12362
1105,57273;2,12383
1103,52157;2,12198
1101,47042;2,11998
1099,41926;2,1201
1097,36811;2,11879
1095,31695;2,11506
1093,2658;2,1128
1091,21464;2,11218
1089,16348;2,10937
1087,11233;2,10405
1085,06117;2,09865
1083,01002;2,09293
1080,95886;2,08694
1078,90771;2,08055
1076,85655;2,07438
1074,8054;2,07151
1072,75424;2,07141
1070,70309;2,07311
1068,65193;2,07617
1066,60078;2,07679
1064,54962;2,07466
1062,49847;2,07257
1060,44731;2,07071
1058,39615;2,06913
1056,345;2,0674
1054,29384;2,06509
1052,24269;2,06264
1050,19153;2,05929
1048,14038;2,05564
1046,08922;2,05278
1044,03807;2,05002
1041,98691;2,04861
1039,93576;2,05
1037,8846;2,05244
1035,83345;2,05388
1033,78229;2,05425
1031,73114;2,05429
1029,67998;2,05433
1027,62882;2,05454
1025,57767;2,05512
1023,52651;2,05504
1021,47536;2,05409
1019,4242;2,054
1017,37305;2,0548
1015,32189;2,05484
1013,27074;2,05296
1011,21958;2,04986
1009,16843;2,04738
1007,11727;2,04591
1005,06612;2,04576
1003,01496;2,04666
1000,96381;2,04768
998,91265;2,04883
996,86149;2,0511
994,81034;2,05408
992,75918;2,05492
990,70803;2,05431
988,65687;2,05558
986,60572;2,05901
984,55456;2,06196
982,50341;2,06267
980,45225;2,06226
978,4011;2,06167
976,34994;2,06016
974,29879;2,0574
972,24763;2,05419
970,19647;2,05175
968,14532;2,05059
966,09416;2,04984
964,04301;2,04919
961,99185;2,04999
959,9407;2,05268
957,88954;2,05487
955,83839;2,05513
953,78723;2,055
951,73608;2,05559
949,68492;2,05766
947,63377;2,06069
945,58261;2,06264
943,53146;2,06326
941,4803;2,06445
939,42914;2,068
937,37799;2,072
935,32683;2,07312
933,27568;2,07243
931,22452;2,07302
929,17337;2,07523
927,12221;2,07626
925,07106;2,0747
923,0199;2,07332
920,96875;2,07281
918,91759;2,07269
916,86644;2,07464
914,81528;2,07712
912,76413;2,07825
910,71297;2,08004
908,66181;2,08231
906,61066;2,08326
904,5595;2,083
902,50835;2,08201
900,45719;2,08209
898,40604;2,08381
896,35488;2,08355
894,30373;2,08045
892,25257;2,07847
890,20142;2,07746
888,15026;2,07668
886,09911;2,07868
884,04795;2,08297
881,9968;2,0876
879,94564;2,08946
877,89448;2,08676
875,84333;2,08162
873,79217;2,07707
871,74102;2,07812
869,68986;2,08552
867,63871;2,0924
865,58755;2,09575
863,5364;2,09716
861,48524;2,09797
859,43409;2,10002
857,38293;2,10211
855,33178;2,10226
853,28062;2,10014
851,22947;2,09776
849,17831;2,0991
847,12715;2,10225
845,076;2,10272
843,02484;2,10106
840,97369;2,09888
838,92253;2,0966
836,87138;2,09624
834,82022;2,09916
832,76907;2,10334
830,71791;2,10666
828,66676;2,10829
826,6156;2,10702
824,56445;2,1031
822,51329;2,0995
820,46214;2,0969
818,41098;2,09405
816,35982;2,09272
814,30867;2,09323
812,25751;2,09393
810,20636;2,09577
808,1552;2,09866
806,10405;2,10018
804,05289;2,10082
802,00174;2,10384
799,95058;2,10759
797,89943;2,10814
795,84827;2,10716
793,79712;2,10788
791,74596;2,11037
789,69481;2,11264
787,64365;2,11407
785,59249;2,11509
783,54134;2,11589
781,49018;2,11711
779,43903;2,11831
777,38787;2,11871
775,33672;2,11859
773,28556;2,11718
771,23441;2,11301
769,18325;2,10827
767,1321;2,10638
765,08094;2,10622
763,02979;2,10568
760,97863;2,1079
758,92748;2,1122
756,87632;2,11222
754,82516;2,10846
752,77401;2,10543
750,72285;2,10432
748,6717;2,10545
746,62054;2,10878
744,56939;2,11088
742,51823;2,11256
740,46708;2,11635
738,41592;2,11518
736,36477;2,10915
734,31361;2,10757
732,26246;2,11022
730,2113;2,11233
728,16015;2,11282
726,10899;2,11216
724,05783;2,11194
722,00668;2,11088
719,95552;2,10883
717,90437;2,1076
715,85321;2,10638
713,80206;2,10355
711,7509;2,10016
709,69975;2,09671
707,64859;2,09373
705,59744;2,09263
703,54628;2,09291
701,49513;2,09446
699,44397;2,09754
697,39281;2,09974
695,34166;2,10011
693,2905;2,10027
691,23935;2,09932
689,18819;2,09837
687,13704;2,10111
685,08588;2,1031
683,03473;2,09905
680,98357;2,09504
678,93242;2,09613
676,88126;2,09732
674,83011;2,09468
672,77895;2,09065
670,7278;2,08549
668,67664;2,07671
666,62548;2,06785
664,57433;2,06206
662,52317;2,0571
660,47202;2,05446
658,42086;2,05492
656,36971;2,05671
654,31855;2,06
652,2674;2,06547
650,21624;2,07078
648,16509;2,07298
646,11393;2,07435
644,06278;2,07721
642,01162;2,07874
639,96047;2,07717
637,90931;2,07426
635,85815;2,07284
633,807;2,07506
631,75584;2,07956
629,70469;2,08116
627,65353;2,07862
625,60238;2,07563
623,55122;2,06673
621,50007;2,05203
619,44891;2,04146
617,39776;2,03763
615,3466;2,03946
613,29545;2,04228
611,24429;2,03986
609,19314;2,03592
607,14198;2,03405
605,09082;2,03023
603,03967;2,02441
600,98851;2,0221
598,93736;2,02455
596,8862;2,02824
594,83505;2,03172
592,78389;2,03663
590,73274;2,04037
588,68158;2,03839
586,63043;2,03263
584,57927;2,02696
582,52812;2,0243
580,47696;2,02529
578,42581;2,02699
576,37465;2,02711
574,32349;2,02392
572,27234;2,02124
570,22118;2,02392
568,17003;2,02569
566,11887;2,02414
564,06772;2,02547
562,01656;2,02874
559,96541;2,03084
557,91425;2,03304
555,8631;2,03561
553,81194;2,03882
551,76079;2,04162
549,70963;2,03838
547,65848;2,02973
545,60732;2,02187
543,55616;2,0156
541,50501;2,00895
539,45385;2,00286
537,4027;2,00115
535,35154;2,00395
533,30039;2,00654
531,24923;2,00664
529,19808;2,00677
527,14692;2,00734
525,09577;2,00576
523,04461;2,00206
520,99346;1,99705
518,9423;1,99371
516,89115;1,99404
514,83999;1,99649
512,78883;2,00076
510,73768;2,00317
508,68652;1,99922
506,63537;1,99288
504,58421;1,99071
502,53306;1,99397
500,4819;2,00012
498,43075;2,00452
496,37959;2,00531
494,32844;2,00508
492,27728;2,00388
490,22613;2,00137
488,17497;1,9976
486,12382;1,99371
484,07266;1,99376
482,0215;1,99595
479,97035;1,99821
477,91919;2,00275
475,86804;2,00418
473,81688;1,99827
471,76573;1,99394
469,71457;1,99569
467,66342;1,99595
465,61226;1,9927
463,56111;1,99054
461,50995;1,9921
459,4588;1,99311
457,40764;1,98443
455,35649;1,97401
453,30533;1,97459
451,25417;1,97789
449,20302;1,97027
447,15186;1,95571
445,10071;1,95654
443,04955;1,97975
440,9984;1,99788
438,94724;1,99312
436,89609;1,98277
434,84493;1,98121
432,79378;1,98449
430,74262;1,98569
428,69147;1,98616
426,64031;1,99271
424,58916;1,99968
422,538;2,00565
420,48684;2,02222
418,43569;2,03148
416,38453;2,01073
414,33338;1,98265
412,28222;1,96638
410,23107;1,96124
408,17991;1,95826
406,12876;1,95169
404,0776;1,94613
402,02645;1,94791
399,97529;1,95559
