3997,70175;1,70773
3995,6506;1,70983
3993,59944;1,71144
3991,54829;1,71278
3989,49713;1,71394
3987,44598;1,71441
3985,39482;1,7147
3983,34367;1,71524
3981,29251;1,71566
3979,24136;1,71602
3977,1902;1,71667
3975,13905;1,7174
3973,08789;1,71819
3971,03673;1,71951
3968,98558;1,72116
3966,93442;1,72172
3964,88327;1,72132
3962,83211;1,72188
3960,78096;1,72328
3958,7298;1,72441
3956,67865;1,72551
3954,62749;1,72706
3952,57634;1,72881
3950,52518;1,73037
3948,47403;1,73185
3946,42287;1,73303
3944,37172;1,73314
3942,32056;1,73218
3940,2694;1,7315
3938,21825;1,73138
3936,16709;1,73118
3934,11594;1,73081
3932,06478;1,72909
3930,01363;1,7256
3927,96247;1,72219
3925,91132;1,7194
3923,86016;1,71622
3921,80901;1,71357
3919,75785;1,71246
3917,7067;1,71141
3915,65554;1,70933
3913,60439;1,70717
3911,55323;1,70559
3909,50207;1,70403
3907,45092;1,70244
3905,39976;1,7011
3903,34861;1,69949
3901,29745;1,69771
3899,2463;1,69635
3897,19514;1,69546
3895,14399;1,69521
3893,09283;1,69525
3891,04168;1,69474
3888,99052;1,6944
3886,93937;1,69521
3884,88821;1,69564
3882,83706;1,69627
3880,7859;1,69708
3878,73474;1,69591
3876,68359;1,6952
3874,63243;1,69554
3872,58128;1,69532
3870,53012;1,69481
3868,47897;1,69295
3866,42781;1,6912
3864,37666;1,69067
3862,3255;1,69064
3860,27435;1,69072
3858,22319;1,68989
3856,17204;1,68851
3854,12088;1,6862
3852,06973;1,68284
3850,01857;1,682
3847,96741;1,68304
3845,91626;1,6828
3843,8651;1,68124
3841,81395;1,68069
3839,76279;1,68228
3837,71164;1,68333
3835,66048;1,68223
3833,60933;1,68118
3831,55817;1,68111
3829,50702;1,68146
3827,45586;1,68167
3825,40471;1,68094
3823,35355;1,68033
3821,3024;1,67993
3819,25124;1,68
3817,20008;1,68292
3815,14893;1,68539
3813,09777;1,68576
3811,04662;1,68676
3808,99546;1,68835
3806,94431;1,68838
3804,89315;1,68715
3802,842;1,68763
3800,79084;1,6883
3798,73969;1,68926
3796,68853;1,6916
3794,63738;1,69276
3792,58622;1,69341
3790,53506;1,69508
3788,48391;1,69699
3786,43275;1,69816
3784,3816;1,69822
3782,33044;1,69845
3780,27929;1,70004
3778,22813;1,70175
3776,17698;1,70319
3774,12582;1,70535
3772,07467;1,70798
3770,02351;1,70922
3767,97236;1,70903
3765,9212;1,70956
3763,87005;1,71016
3761,81889;1,71108
3759,76773;1,71316
3757,71658;1,71502
3755,66542;1,71606
3753,61427;1,71673
3751,56311;1,71716
3749,51196;1,71886
3747,4608;1,72425
3745,40965;1,73221
3743,35849;1,73704
3741,30734;1,73907
3739,25618;1,74212
3737,20503;1,74466
3735,15387;1,74567
3733,10272;1,74878
3731,05156;1,75528
3729,0004;1,76211
3726,94925;1,7673
3724,89809;1,77084
3722,84694;1,77456
3720,79578;1,77879
3718,74463;1,78249
3716,69347;1,78604
3714,64232;1,79112
3712,59116;1,79755
3710,54001;1,80284
3708,48885;1,80755
3706,4377;1,81504
3704,38654;1,82776
3702,33539;1,84603
3700,28423;1,86738
3698,23307;1,88836
3696,18192;1,90537
3694,13076;1,9157
3692,07961;1,91927
3690,02845;1,91646
3687,9773;1,90982
3685,92614;1,90624
3683,87499;1,90903
3681,82383;1,91492
3679,77268;1,92059
3677,72152;1,92758
3675,67037;1,93741
3673,61921;1,94761
3671,56806;1,95995
3669,5169;1,97534
3667,46574;1,98993
3665,41459;2,00287
3663,36343;2,0153
3661,31228;2,02783
3659,26112;2,04067
3657,20997;2,05367
3655,15881;2,06617
3653,10766;2,0792
3651,0565;2,0959
3649,00535;2,11764
3646,95419;2,14253
3644,90304;2,16499
3642,85188;2,17761
3640,80073;2,17718
3638,74957;2,16982
3636,69841;2,16309
3634,64726;2,15774
3632,5961;2,15403
3630,54495;2,15557
3628,49379;2,16073
3626,44264;2,1658
3624,39148;2,17224
3622,34033;2,17815
3620,28917;2,18034
3618,23802;2,18028
3616,18686;2,18269
3614,13571;2,18904
3612,08455;2,19677
3610,0334;2,20338
3607,98224;2,20562
3605,93108;2,20446
3603,87993;2,20538
3601,82877;2,20884
3599,77762;2,21282
3597,72646;2,21702
3595,67531;2,22104
3593,62415;2,22446
3591,573;2,22785
3589,52184;2,23119
3587,47069;2,23147
3585,41953;2,22848
3583,36838;2,22821
3581,31722;2,23073
3579,26607;2,23099
3577,21491;2,22977
3575,16375;2,23051
3573,1126;2,23273
3571,06144;2,23477
3569,01029;2,23531
3566,95913;2,23367
3564,90798;2,23312
3562,85682;2,23576
3560,80567;2,23823
3558,75451;2,23832
3556,70336;2,23681
3554,6522;2,23443
3552,60105;2,23109
3550,54989;2,22797
3548,49874;2,22859
3546,44758;2,23213
3544,39642;2,23395
3542,34527;2,23412
3540,29411;2,2337
3538,24296;2,23156
3536,1918;2,22872
3534,14065;2,22765
3532,08949;2,22828
3530,03834;2,22902
3527,98718;2,22937
3525,93603;2,22823
3523,88487;2,22446
3521,83372;2,22072
3519,78256;2,22001
3517,73141;2,22019
3515,68025;2,21851
3513,62909;2,21571
3511,57794;2,21277
3509,52678;2,20912
3507,47563;2,20576
3505,42447;2,20446
3503,37332;2,20463
3501,32216;2,20682
3499,27101;2,21034
3497,21985;2,21004
3495,1687;2,20536
3493,11754;2,20198
3491,06639;2,20211
3489,01523;2,20271
3486,96407;2,20097
3484,91292;2,19887
3482,86176;2,1985
3480,81061;2,19732
3478,75945;2,19613
3476,7083;2,19723
3474,65714;2,19694
3472,60599;2,1932
3470,55483;2,18956
3468,50368;2,18762
3466,45252;2,18601
3464,40137;2,18457
3462,35021;2,18306
3460,29906;2,18061
3458,2479;2,17855
3456,19674;2,17733
3454,14559;2,1746
3452,09443;2,17086
3450,04328;2,16848
3447,99212;2,16642
3445,94097;2,16331
3443,88981;2,16048
3441,83866;2,15873
3439,7875;2,15804
3437,73635;2,15678
3435,68519;2,15275
3433,63404;2,14883
3431,58288;2,1492
3429,53173;2,15123
3427,48057;2,14915
3425,42941;2,1436
3423,37826;2,13811
3421,3271;2,13459
3419,27595;2,13401
3417,22479;2,13507
3415,17364;2,13527
3413,12248;2,13313
3411,07133;2,13019
3409,02017;2,12738
3406,96902;2,12503
3404,91786;2,12535
3402,86671;2,1255
3400,81555;2,12121
3398,7644;2,11737
3396,71324;2,11744
3394,66208;2,11821
3392,61093;2,11601
3390,55977;2,1109
3388,50862;2,10618
3386,45746;2,10571
3384,40631;2,10693
3382,35515;2,10502
3380,304;2,10251
3378,25284;2,10234
3376,20169;2,1018
3374,15053;2,09941
3372,09938;2,09723
3370,04822;2,09626
3367,99707;2,09448
3365,94591;2,09162
3363,89475;2,08995
3361,8436;2,08886
3359,79244;2,08629
3357,74129;2,08265
3355,69013;2,07963
3353,63898;2,07858
3351,58782;2,07843
3349,53667;2,07748
3347,48551;2,07769
3345,43436;2,07955
3343,3832;2,07989
3341,33205;2,07705
3339,28089;2,07285
3337,22974;2,06991
3335,17858;2,06877
3333,12742;2,06942
3331,07627;2,0703
3329,02511;2,06907
3326,97396;2,06782
3324,9228;2,06835
3322,87165;2,06843
3320,82049;2,06625
3318,76934;2,06191
3316,71818;2,05817
3314,66703;2,05754
3312,61587;2,05863
3310,56472;2,05916
3308,51356;2,05835
3306,46241;2,05683
3304,41125;2,05625
3302,36009;2,05673
3300,30894;2,05574
3298,25778;2,0529
3296,20663;2,05091
3294,15547;2,0508
3292,10432;2,0507
3290,05316;2,04906
3288,00201;2,04766
3285,95085;2,04835
3283,8997;2,04987
3281,84854;2,05007
3279,79739;2,04854
3277,74623;2,04683
3275,69508;2,0455
3273,64392;2,04364
3271,59276;2,04181
3269,54161;2,04064
3267,49045;2,03922
3265,4393;2,03789
3263,38814;2,03755
3261,33699;2,03793
3259,28583;2,03895
3257,23468;2,04004
3255,18352;2,03931
3253,13237;2,03584
3251,08121;2,03197
3249,03006;2,03102
3246,9789;2,0323
3244,92775;2,03278
3242,87659;2,03208
3240,82543;2,03094
3238,77428;2,0297
3236,72312;2,02942
3234,67197;2,03013
3232,62081;2,02962
3230,56966;2,02846
3228,5185;2,02929
3226,46735;2,03036
3224,41619;2,02974
3222,36504;2,02879
3220,31388;2,02784
3218,26273;2,02622
3216,21157;2,02428
3214,16041;2,02276
3212,10926;2,02178
3210,0581;2,0216
3208,00695;2,02258
3205,95579;2,02302
3203,90464;2,02133
3201,85348;2,01955
3199,80233;2,01977
3197,75117;2,02072
3195,70002;2,02071
3193,64886;2,02059
3191,59771;2,02105
3189,54655;2,02113
3187,4954;2,0205
3185,44424;2,0193
3183,39308;2,01814
3181,34193;2,01756
3179,29077;2,01709
3177,23962;2,01662
3175,18846;2,01647
3173,13731;2,01675
3171,08615;2,01721
3169,035;2,01705
3166,98384;2,01663
3164,93269;2,01713
3162,88153;2,01864
3160,83038;2,02028
3158,77922;2,02122
3156,72807;2,02121
3154,67691;2,02093
3152,62575;2,02087
3150,5746;2,02006
3148,52344;2,01817
3146,47229;2,01629
3144,42113;2,01498
3142,36998;2,01507
3140,31882;2,01695
3138,26767;2,01891
3136,21651;2,01945
3134,16536;2,01871
3132,1142;2,01798
3130,06305;2,01783
3128,01189;2,01766
3125,96074;2,01795
3123,90958;2,01927
3121,85842;2,02029
3119,80727;2,01982
3117,75611;2,01935
3115,70496;2,02011
3113,6538;2,02104
3111,60265;2,02066
3109,55149;2,01935
3107,50034;2,01919
3105,44918;2,02077
3103,39803;2,02248
3101,34687;2,02183
3099,29572;2,01892
3097,24456;2,01718
3095,19341;2,01781
3093,14225;2,01911
3091,09109;2,01979
3089,03994;2,0196
3086,98878;2,01958
3084,93763;2,02054
3082,88647;2,02178
3080,83532;2,02163
3078,78416;2,01984
3076,73301;2,01884
3074,68185;2,01977
3072,6307;2,02131
3070,57954;2,02228
3068,52839;2,02258
3066,47723;2,02301
3064,42608;2,02405
3062,37492;2,02493
3060,32376;2,02471
3058,27261;2,02425
3056,22145;2,02448
3054,1703;2,02448
3052,11914;2,02375
3050,06799;2,02358
3048,01683;2,02446
3045,96568;2,02505
3043,91452;2,02482
3041,86337;2,02465
3039,81221;2,02534
3037,76106;2,02721
3035,7099;2,02926
3033,65875;2,02951
3031,60759;2,02879
3029,55643;2,0289
3027,50528;2,02873
3025,45412;2,02736
3023,40297;2,02573
3021,35181;2,02547
3019,30066;2,02726
3017,2495;2,02983
3015,19835;2,03125
3013,14719;2,03089
3011,09604;2,0296
3009,04488;2,02861
3006,99373;2,02935
3004,94257;2,0316
3002,89142;2,03271
3000,84026;2,03241
2998,7891;2,03351
2996,73795;2,03625
2994,68679;2,03891
2992,63564;2,04087
2990,58448;2,04163
2988,53333;2,04189
2986,48217;2,0428
2984,43102;2,04448
2982,37986;2,0457
2980,32871;2,04517
2978,27755;2,04469
2976,2264;2,04625
2974,17524;2,04788
2972,12409;2,04774
2970,07293;2,0474
2968,02177;2,04737
2965,97062;2,04774
2963,91946;2,0497
2961,86831;2,05231
2959,81715;2,05419
2957,766;2,05478
2955,71484;2,05357
2953,66369;2,05154
2951,61253;2,05095
2949,56138;2,05187
2947,51022;2,05167
2945,45907;2,05023
2943,40791;2,04971
2941,35675;2,04978
2939,3056;2,04901
2937,25444;2,04744
2935,20329;2,04587
2933,15213;2,04517
2931,10098;2,04542
2929,04982;2,04516
2926,99867;2,04366
2924,94751;2,04159
2922,89636;2,03874
2920,8452;2,03623
2918,79405;2,03574
2916,74289;2,03663
2914,69174;2,03802
2912,64058;2,03807
2910,58942;2,03603
2908,53827;2,03412
2906,48711;2,03355
2904,43596;2,03369
2902,3848;2,0332
2900,33365;2,03206
2898,28249;2,0312
2896,23134;2,03027
2894,18018;2,02872
2892,12903;2,02679
2890,07787;2,02544
2888,02672;2,02511
2885,97556;2,02582
2883,92441;2,02698
2881,87325;2,02708
2879,82209;2,02643
2877,77094;2,02612
2875,71978;2,02561
2873,66863;2,02518
2871,61747;2,02558
2869,56632;2,02568
2867,51516;2,02513
2865,46401;2,02461
2863,41285;2,02368
2861,3617;2,02301
2859,31054;2,02365
2857,25939;2,0242
2855,20823;2,02311
2853,15708;2,02114
2851,10592;2,01925
2849,05476;2,01723
2847,00361;2,01538
2844,95245;2,01462
2842,9013;2,01472
2840,85014;2,01479
2838,79899;2,01471
2836,74783;2,01412
2834,69668;2,0125
2832,64552;2,01041
2830,59437;2,00848
2828,54321;2,00792
2826,49206;2,00897
2824,4409;2,00945
2822,38975;2,00803
2820,33859;2,00612
2818,28743;2,00518
2816,23628;2,00453
2814,18512;2,00341
2812,13397;2,00234
2810,08281;2,00248
2808,03166;2,00321
2805,9805;2,00293
2803,92935;2,00237
2801,87819;2,00255
2799,82704;2,00244
2797,77588;2,00131
2795,72473;2,00036
2793,67357;1,99995
2791,62242;1,99857
2789,57126;1,99693
2787,5201;1,99719
2785,46895;1,99797
2783,41779;1,99679
2781,36664;1,99474
2779,31548;1,99431
2777,26433;1,99511
2775,21317;1,99539
2773,16202;1,99566
2771,11086;1,99603
2769,05971;1,99549
2767,00855;1,99407
2764,9574;1,99241
2762,90624;1,99104
2760,85509;1,98988
2758,80393;1,98918
2756,75277;1,98912
2754,70162;1,98935
2752,65046;1,98947
2750,59931;1,98924
2748,54815;1,98959
2746,497;1,99091
2744,44584;1,99149
2742,39469;1,99047
2740,34353;1,9888
2738,29238;1,98754
2736,24122;1,98786
2734,19007;1,98928
2732,13891;1,98964
2730,08776;1,98903
2728,0366;1,98849
2725,98544;1,98822
2723,93429;1,98805
2721,88313;1,98744
2719,83198;1,98668
2717,78082;1,98603
2715,72967;1,9853
2713,67851;1,98514
2711,62736;1,98562
2709,5762;1,9856
2707,52505;1,98545
2705,47389;1,98575
2703,42274;1,98566
2701,37158;1,98516
2699,32043;1,98445
2697,26927;1,98387
2695,21811;1,98373
2693,16696;1,98303
2691,1158;1,98193
2689,06465;1,98163
2687,01349;1,98174
2684,96234;1,98162
2682,91118;1,98111
2680,86003;1,98046
2678,80887;1,98
2676,75772;1,97937
2674,70656;1,97915
2672,65541;1,97916
2670,60425;1,9781
2668,55309;1,97647
2666,50194;1,97615
2664,45078;1,97786
2662,39963;1,9795
2660,34847;1,97928
2658,29732;1,97783
2656,24616;1,97596
2654,19501;1,97431
2652,14385;1,97362
2650,0927;1,97412
2648,04154;1,97566
2645,99039;1,97746
2643,93923;1,97822
2641,88808;1,97842
2639,83692;1,97933
2637,78576;1,98006
2635,73461;1,97989
2633,68345;1,97979
2631,6323;1,98008
2629,58114;1,98038
2627,52999;1,98064
2625,47883;1,98112
2623,42768;1,98228
2621,37652;1,98424
2619,32537;1,98581
2617,27421;1,98608
2615,22306;1,98602
2613,1719;1,98659
2611,12075;1,98813
2609,06959;1,99045
2607,01843;1,99256
2604,96728;1,99393
2602,91612;1,99456
2600,86497;1,99442
2598,81381;1,99493
2596,76266;1,99669
2594,7115;1,99746
2592,66035;1,99626
2590,60919;1,99452
2588,55804;1,99381
2586,50688;1,99386
2584,45573;1,99333
2582,40457;1,99299
2580,35342;1,99416
2578,30226;1,99592
2576,2511;1,99622
2574,19995;1,99559
2572,14879;1,99641
2570,09764;1,99795
2568,04648;1,99872
2565,99533;1,99938
2563,94417;1,99976
2561,89302;1,9994
2559,84186;1,99917
2557,79071;1,99915
2555,73955;1,99932
2553,6884;2,00044
2551,63724;2,00126
2549,58609;2,00102
2547,53493;2,00132
2545,48377;2,00153
2543,43262;2,00114
2541,38146;2,00263
2539,33031;2,00609
2537,27915;2,0088
2535,228;2,00987
2533,17684;2,00997
2531,12569;2,01087
2529,07453;2,01389
2527,02338;2,01732
2524,97222;2,01959
2522,92107;2,02099
2520,86991;2,02158
2518,81876;2,0215
2516,7676;2,02196
2514,71644;2,0229
2512,66529;2,02336
2510,61413;2,0233
2508,56298;2,02256
2506,51182;2,02152
2504,46067;2,02072
2502,40951;2,01926
2500,35836;2,01637
2498,3072;2,01288
2496,25605;2,00982
2494,20489;2,00679
2492,15374;2,00347
2490,10258;2
2488,05143;1,99648
2486,00027;1,99297
2483,94911;1,9897
2481,89796;1,98751
2479,8468;1,98591
2477,79565;1,98336
2475,74449;1,98011
2473,69334;1,97706
2471,64218;1,9741
2469,59103;1,97065
2467,53987;1,96692
2465,48872;1,96388
2463,43756;1,96197
2461,38641;1,96067
2459,33525;1,95936
2457,2841;1,95826
2455,23294;1,95698
2453,18178;1,95483
2451,13063;1,95242
2449,07947;1,95043
2447,02832;1,94891
2444,97716;1,94743
2442,92601;1,94625
2440,87485;1,94566
2438,8237;1,94459
2436,77254;1,94337
2434,72139;1,94316
2432,67023;1,94268
2430,61908;1,94077
2428,56792;1,93843
2426,51677;1,93687
2424,46561;1,93655
2422,41445;1,93698
2420,3633;1,93665
2418,31214;1,9357
2416,26099;1,93536
2414,20983;1,93497
2412,15868;1,93404
2410,10752;1,93294
2408,05637;1,9319
2406,00521;1,93145
2403,95406;1,93117
2401,9029;1,93044
2399,85175;1,92989
2397,80059;1,9298
2395,74944;1,9298
2393,69828;1,92963
2391,64712;1,92941
2389,59597;1,92915
2387,54481;1,92918
2385,49366;1,93034
2383,4425;1,93218
2381,39135;1,93288
2379,34019;1,9318
2377,28904;1,93021
2375,23788;1,92982
2373,18673;1,93109
2371,13557;1,93314
2369,08442;1,93469
2367,03326;1,93481
2364,9821;1,93364
2362,93095;1,93257
2360,87979;1,93183
2358,82864;1,93041
2356,77748;1,92967
2354,72633;1,93058
2352,67517;1,93183
2350,62402;1,93316
2348,57286;1,93409
2346,52171;1,9342
2344,47055;1,9351
2342,4194;1,93683
2340,36824;1,93696
2338,31709;1,93545
2336,26593;1,93401
2334,21477;1,93338
2332,16362;1,9335
2330,11246;1,93431
2328,06131;1,93578
2326,01015;1,93756
2323,959;1,93869
2321,90784;1,93814
2319,85669;1,93629
2317,80553;1,93445
2315,75438;1,93312
2313,70322;1,93242
2311,65207;1,93215
2309,60091;1,93194
2307,54976;1,93175
2305,4986;1,93163
2303,44744;1,93161
2301,39629;1,93186
2299,34513;1,9324
2297,29398;1,93293
2295,24282;1,93306
2293,19167;1,93277
2291,14051;1,9327
2289,08936;1,93306
2287,0382;1,93326
2284,98705;1,93318
2282,93589;1,93342
2280,88474;1,93386
2278,83358;1,93413
2276,78243;1,9348
2274,73127;1,9355
2272,68011;1,93514
2270,62896;1,93458
2268,5778;1,93494
2266,52665;1,93555
2264,47549;1,93575
2262,42434;1,93646
2260,37318;1,93839
2258,32203;1,93992
2256,27087;1,9399
2254,21972;1,93948
2252,16856;1,93962
2250,11741;1,94036
2248,06625;1,94178
2246,0151;1,9432
2243,96394;1,9435
2241,91278;1,94279
2239,86163;1,94219
2237,81047;1,94245
2235,75932;1,94404
2233,70816;1,94611
2231,65701;1,94707
2229,60585;1,94732
2227,5547;1,94771
2225,50354;1,94766
2223,45239;1,94778
2221,40123;1,94899
2219,35008;1,95033
2217,29892;1,95098
2215,24777;1,95135
2213,19661;1,952
2211,14545;1,95245
2209,0943;1,95235
2207,04314;1,95252
2204,99199;1,95345
2202,94083;1,95439
2200,88968;1,95458
2198,83852;1,95427
2196,78737;1,9544
2194,73621;1,95542
2192,68506;1,95684
2190,6339;1,95754
2188,58275;1,95749
2186,53159;1,95791
2184,48044;1,95833
2182,42928;1,95834
2180,37812;1,95905
2178,32697;1,96028
2176,27581;1,96084
2174,22466;1,96075
2172,1735;1,96082
2170,12235;1,9612
2168,07119;1,96197
2166,02004;1,9635
2163,96888;1,96492
2161,91773;1,96554
2159,86657;1,96636
2157,81542;1,96782
2155,76426;1,96906
2153,71311;1,96959
2151,66195;1,97006
2149,61079;1,97126
2147,55964;1,97331
2145,50848;1,97541
2143,45733;1,9762
2141,40617;1,97607
2139,35502;1,97651
2137,30386;1,97712
2135,25271;1,97648
2133,20155;1,97571
2131,1504;1,97632
2129,09924;1,97658
2127,04809;1,97526
2124,99693;1,97317
2122,94578;1,9711
2120,89462;1,96995
2118,84346;1,96978
2116,79231;1,96991
2114,74115;1,97013
2112,69;1,97018
2110,63884;1,96981
2108,58769;1,96943
2106,53653;1,96907
2104,48538;1,96838
2102,43422;1,96816
2100,38307;1,96865
2098,33191;1,96843
2096,28076;1,96762
2094,2296;1,96785
2092,17844;1,96881
2090,12729;1,96929
2088,07613;1,96924
2086,02498;1,96885
2083,97382;1,96833
2081,92267;1,96841
2079,87151;1,96946
2077,82036;1,97017
2075,7692;1,96981
2073,71805;1,96999
2071,66689;1,97085
2069,61574;1,97059
2067,56458;1,96948
2065,51343;1,96918
2063,46227;1,9701
2061,41111;1,97157
2059,35996;1,97248
2057,3088;1,97285
2055,25765;1,9732
2053,20649;1,97315
2051,15534;1,97316
2049,10418;1,97352
2047,05303;1,97322
2045,00187;1,97301
2042,95072;1,97408
2040,89956;1,97497
2038,84841;1,97461
2036,79725;1,9744
2034,7461;1,97537
2032,69494;1,97696
2030,64378;1,97813
2028,59263;1,97882
2026,54147;1,97961
2024,49032;1,97992
2022,43916;1,9793
2020,38801;1,97912
2018,33685;1,97989
2016,2857;1,98031
2014,23454;1,98023
2012,18339;1,98066
2010,13223;1,98169
2008,08108;1,98273
2006,02992;1,98335
2003,97877;1,98349
2001,92761;1,98328
1999,87645;1,98357
1997,8253;1,98468
1995,77414;1,98504
1993,72299;1,98426
1991,67183;1,98353
1989,62068;1,98332
1987,56952;1,98395
1985,51837;1,98506
1983,46721;1,98616
1981,41606;1,98714
1979,3649;1,98774
1977,31375;1,98839
1975,26259;1,98929
1973,21144;1,98944
1971,16028;1,9892
1969,10912;1,98981
1967,05797;1,99116
1965,00681;1,99296
1962,95566;1,99505
1960,9045;1,99657
1958,85335;1,99647
1956,80219;1,99448
1954,75104;1,99262
1952,69988;1,99311
1950,64873;1,99497
1948,59757;1,99576
1946,54642;1,995
1944,49526;1,99392
1942,44411;1,99346
1940,39295;1,99402
1938,34179;1,99542
1936,29064;1,99627
1934,23948;1,99666
1932,18833;1,99741
1930,13717;1,99831
1928,08602;1,99912
1926,03486;1,99952
1923,98371;1,99942
1921,93255;1,99943
1919,8814;2,00085
1917,83024;2,00294
1915,77909;2,00361
1913,72793;2,0035
1911,67678;2,00331
1909,62562;2,00302
1907,57446;2,00376
1905,52331;2,00596
1903,47215;2,00775
1901,421;2,00815
1899,36984;2,00817
1897,31869;2,00861
1895,26753;2,00907
1893,21638;2,00921
1891,16522;2,00969
1889,11407;2,01007
1887,06291;2,01043
1885,01176;2,0117
1882,9606;2,01309
1880,90945;2,01395
1878,85829;2,01473
1876,80713;2,01575
1874,75598;2,01697
1872,70482;2,01829
1870,65367;2,01935
1868,60251;2,01939
1866,55136;2,01937
1864,5002;2,02072
1862,44905;2,02222
1860,39789;2,02326
1858,34674;2,0245
1856,29558;2,02545
1854,24443;2,02596
1852,19327;2,02651
1850,14212;2,02666
1848,09096;2,02649
1846,0398;2,02694
1843,98865;2,02803
1841,93749;2,02991
1839,88634;2,03286
1837,83518;2,03563
1835,78403;2,03767
1833,73287;2,03924
1831,68172;2,04009
1829,63056;2,0403
1827,57941;2,04145
1825,52825;2,04414
1823,4771;2,04629
1821,42594;2,04754
1819,37478;2,04875
1817,32363;2,05008
1815,27247;2,05207
1813,22132;2,05504
1811,17016;2,05837
1809,11901;2,06199
1807,06785;2,06676
1805,0167;2,0726
1802,96554;2,07776
1800,91439;2,08024
1798,86323;2,08111
1796,81208;2,0828
1794,76092;2,08468
1792,70977;2,08478
1790,65861;2,08296
1788,60745;2,08188
1786,5563;2,08287
1784,50514;2,08372
1782,45399;2,0821
1780,40283;2,07866
1778,35168;2,07622
1776,30052;2,07616
1774,24937;2,07696
1772,19821;2,07683
1770,14706;2,07675
1768,0959;2,07781
1766,04475;2,07828
1763,99359;2,07847
1761,94244;2,07982
1759,89128;2,0825
1757,84012;2,0855
1755,78897;2,08667
1753,73781;2,08666
1751,68666;2,0867
1749,6355;2,08655
1747,58435;2,08807
1745,53319;2,09177
1743,48204;2,0949
1741,43088;2,09594
1739,37973;2,09637
1737,32857;2,098
1735,27742;2,1003
1733,22626;2,10034
1731,17511;2,10093
1729,12395;2,10479
1727,07279;2,10879
1725,02164;2,1116
1722,97048;2,11376
1720,91933;2,11601
1718,86817;2,11861
1716,81702;2,11996
1714,76586;2,12055
1712,71471;2,12289
1710,66355;2,12688
1708,6124;2,13069
1706,56124;2,13277
1704,51009;2,13327
1702,45893;2,13543
1700,40778;2,13903
1698,35662;2,14051
1696,30546;2,1429
1694,25431;2,14724
1692,20315;2,15243
1690,152;2,15677
1688,10084;2,15847
1686,04969;2,1598
1683,99853;2,16181
1681,94738;2,16366
1679,89622;2,1661
1677,84507;2,16799
1675,79391;2,16766
1673,74276;2,16597
1671,6916;2,1663
1669,64045;2,16683
1667,58929;2,16535
1665,53813;2,16531
1663,48698;2,16575
1661,43582;2,16328
1659,38467;2,15981
1657,33351;2,15792
1655,28236;2,15746
1653,2312;2,15516
1651,18005;2,14961
1649,12889;2,14544
1647,07774;2,14171
1645,02658;2,13765
1642,97543;2,13569
1640,92427;2,13442
1638,87312;2,13168
1636,82196;2,12746
1634,7708;2,12296
1632,71965;2,12136
1630,66849;2,12224
1628,61734;2,12218
1626,56618;2,12046
1624,51503;2,11828
1622,46387;2,11628
1620,41272;2,11579
1618,36156;2,11633
1616,31041;2,11431
1614,25925;2,11012
1612,2081;2,10699
1610,15694;2,10354
1608,10579;2,09796
1606,05463;2,09172
1604,00347;2,08585
1601,95232;2,07974
1599,90116;2,07383
1597,85001;2,06919
1595,79885;2,06621
1593,7477;2,06505
1591,69654;2,06521
1589,64539;2,06569
1587,59423;2,0662
1585,54308;2,06679
1583,49192;2,06742
1581,44077;2,06837
1579,38961;2,06934
1577,33846;2,06869
1575,2873;2,0654
1573,23614;2,06223
1571,18499;2,06011
1569,13383;2,05671
1567,08268;2,05306
1565,03152;2,05038
1562,98037;2,04693
1560,92921;2,04157
1558,87806;2,03297
1556,8269;2,02516
1554,77575;2,02226
1552,72459;2,01999
1550,67344;2,01632
1548,62228;2,01221
1546,57113;2,00815
1544,51997;2,0034
1542,46881;1,99792
1540,41766;1,99273
1538,3665;1,98852
1536,31535;1,98737
1534,26419;1,98782
1532,21304;1,98673
1530,16188;1,9859
1528,11073;1,98667
1526,05957;1,98662
1524,00842;1,98567
1521,95726;1,98555
1519,90611;1,9861
1517,85495;1,98768
1515,80379;1,99009
1513,75264;1,99282
1511,70148;1,99501
1509,65033;1,99657
1507,59917;1,99936
1505,54802;2,00273
1503,49686;2,00743
1501,44571;2,01447
1499,39455;2,02212
1497,3434;2,02953
1495,29224;2,03627
1493,24109;2,0424
1491,18993;2,04985
1489,13878;2,05924
1487,08762;2,06856
1485,03646;2,07606
1482,98531;2,08241
1480,93415;2,0882
1478,883;2,0925
1476,83184;2,0944
1474,78069;2,09443
1472,72953;2,09528
1470,67838;2,09799
1468,62722;2,10033
1466,57607;2,09928
1464,52491;2,0942
1462,47376;2,08965
1460,4226;2,08978
1458,37145;2,09247
1456,32029;2,09236
1454,26913;2,08942
1452,21798;2,08795
1450,16682;2,08897
1448,11567;2,09031
1446,06451;2,08997
1444,01336;2,08928
1441,9622;2,08968
1439,91105;2,09076
1437,85989;2,09145
1435,80874;2,08972
1433,75758;2,08683
1431,70643;2,08513
1429,65527;2,08378
1427,60412;2,08254
1425,55296;2,08118
1423,5018;2,07768
1421,45065;2,07218
1419,39949;2,06641
1417,34834;2,06146
1415,29718;2,05794
1413,24603;2,05391
1411,19487;2,04887
1409,14372;2,04487
1407,09256;2,0427
1405,04141;2,04164
1402,99025;2,04135
1400,9391;2,04202
1398,88794;2,04306
1396,83679;2,04435
1394,78563;2,04599
1392,73447;2,04756
1390,68332;2,04928
1388,63216;2,05086
1386,58101;2,05165
1384,52985;2,05144
1382,4787;2,0506
1380,42754;2,05003
1378,37639;2,05007
1376,32523;2,05062
1374,27408;2,05205
1372,22292;2,05382
1370,17177;2,05464
1368,12061;2,05374
1366,06946;2,0523
1364,0183;2,05188
1361,96714;2,05206
1359,91599;2,05208
1357,86483;2,05197
1355,81368;2,05155
1353,76252;2,05107
1351,71137;2,05168
1349,66021;2,05367
1347,60906;2,05574
1345,5579;2,05696
1343,50675;2,0578
1341,45559;2,05886
1339,40444;2,05971
1337,35328;2,05973
1335,30213;2,05977
1333,25097;2,06064
1331,19981;2,06165
1329,14866;2,06233
1327,0975;2,06356
1325,04635;2,06614
1322,99519;2,06974
1320,94404;2,07279
1318,89288;2,07336
1316,84173;2,07203
1314,79057;2,07091
1312,73942;2,06942
1310,68826;2,06623
1308,63711;2,06242
1306,58595;2,05968
1304,5348;2,05813
1302,48364;2,05746
1300,43248;2,05815
1298,38133;2,05966
1296,33017;2,05978
1294,27902;2,05776
1292,22786;2,05463
1290,17671;2,05064
1288,12555;2,0463
1286,0744;2,04279
1284,02324;2,04069
1281,97209;2,03986
1279,92093;2,03993
1277,86978;2,04038
1275,81862;2,04121
1273,76747;2,04299
1271,71631;2,04497
1269,66515;2,04562
1267,614;2,04451
1265,56284;2,04219
1263,51169;2,04069
1261,46053;2,0413
1259,40938;2,04145
1257,35822;2,03959
1255,30707;2,03701
1253,25591;2,03437
1251,20476;2,03208
1249,1536;2,02954
1247,10245;2,02701
1245,05129;2,0266
1243,00013;2,02821
1240,94898;2,02966
1238,89782;2,03073
1236,84667;2,03299
1234,79551;2,0362
1232,74436;2,03839
1230,6932;2,03965
1228,64205;2,04207
1226,59089;2,04505
1224,53974;2,04653
1222,48858;2,04739
1220,43743;2,04879
1218,38627;2,0502
1216,33512;2,05224
1214,28396;2,05595
1212,2328;2,05963
1210,18165;2,062
1208,13049;2,06542
1206,07934;2,0713
1204,02818;2,07747
1201,97703;2,08237
1199,92587;2,08737
1197,87472;2,0934
1195,82356;2,09953
1193,77241;2,1064
1191,72125;2,11395
1189,6701;2,12149
1187,61894;2,12949
1185,56779;2,13794
1183,51663;2,14623
1181,46547;2,15432
1179,41432;2,16206
1177,36316;2,16772
1175,31201;2,17088
1173,26085;2,17467
1171,2097;2,1794
1169,15854;2,18192
1167,10739;2,18305
1165,05623;2,18542
1163,00508;2,18683
1160,95392;2,18522
1158,90277;2,18254
1156,85161;2,17937
1154,80046;2,17414
1152,7493;2,16704
1150,69814;2,16032
1148,64699;2,15456
1146,59583;2,14844
1144,54468;2,14198
1142,49352;2,1372
1140,44237;2,13483
1138,39121;2,13355
1136,34006;2,13305
1134,2889;2,13222
1132,23775;2,13009
1130,18659;2,12825
1128,13544;2,12736
1126,08428;2,12672
1124,03313;2,12565
1121,98197;2,12324
1119,93081;2,1209
1117,87966;2,1201
1115,8285;2,11863
1113,77735;2,11634
1111,72619;2,11356
1109,67504;2,10793
1107,62388;2,09996
1105,57273;2,09212
1103,52157;2,08513
1101,47042;2,07794
1099,41926;2,06782
1097,36811;2,05279
1095,31695;2,03541
1093,2658;2,01825
1091,21464;1,99959
1089,16348;1,97756
1087,11233;1,95337
1085,06117;1,92894
1083,01002;1,90573
1080,95886;1,88481
1078,90771;1,86586
1076,85655;1,84999
1074,8054;1,83892
1072,75424;1,8316
1070,70309;1,82668
1068,65193;1,82353
1066,60078;1,82117
1064,54962;1,81904
1062,49847;1,81753
1060,44731;1,8158
1058,39615;1,81249
1056,345;1,8092
1054,29384;1,80704
1052,24269;1,80435
1050,19153;1,80079
1048,14038;1,79681
1046,08922;1,79142
1044,03807;1,78423
1041,98691;1,77653
1039,93576;1,76884
1037,8846;1,76116
1035,83345;1,75379
1033,78229;1,74624
1031,73114;1,73907
1029,67998;1,73432
1027,62882;1,73215
1025,57767;1,7307
1023,52651;1,72884
1021,47536;1,72689
1019,4242;1,7256
1017,37305;1,72486
1015,32189;1,72468
1013,27074;1,7262
1011,21958;1,72895
1009,16843;1,73177
1007,11727;1,73523
1005,06612;1,73977
1003,01496;1,74469
1000,96381;1,74945
998,91265;1,75415
996,86149;1,75922
994,81034;1,76493
992,75918;1,77086
990,70803;1,77672
988,65687;1,78244
986,60572;1,78681
984,55456;1,78836
982,50341;1,78746
980,45225;1,7848
978,4011;1,78135
976,34994;1,77871
974,29879;1,77672
972,24763;1,77534
970,19647;1,77524
968,14532;1,77519
966,09416;1,77498
964,04301;1,77621
961,99185;1,77852
959,9407;1,78127
957,88954;1,78556
955,83839;1,79097
953,78723;1,79607
951,73608;1,80153
949,68492;1,80807
947,63377;1,81423
945,58261;1,81912
943,53146;1,82324
941,4803;1,82664
939,42914;1,83002
937,37799;1,83475
935,32683;1,84072
933,27568;1,8468
931,22452;1,85282
929,17337;1,85852
927,12221;1,86259
925,07106;1,86552
923,0199;1,86955
920,96875;1,87478
918,91759;1,87912
916,86644;1,88208
914,81528;1,884
912,76413;1,88442
910,71297;1,88455
908,66181;1,88654
906,61066;1,89018
904,5595;1,89401
902,50835;1,89705
900,45719;1,89794
898,40604;1,89719
896,35488;1,8973
894,30373;1,89774
892,25257;1,89679
890,20142;1,89373
888,15026;1,88941
886,09911;1,88828
884,04795;1,89091
881,9968;1,89155
879,94564;1,88828
877,89448;1,88513
875,84333;1,88431
873,79217;1,88445
871,74102;1,88786
869,68986;1,89819
867,63871;1,91136
865,58755;1,9204
863,5364;1,92509
861,48524;1,92852
859,43409;1,93182
857,38293;1,93477
855,33178;1,93682
853,28062;1,93827
851,22947;1,93952
849,17831;1,94067
847,12715;1,94158
845,076;1,94239
843,02484;1,94289
840,97369;1,94202
838,92253;1,94242
836,87138;1,94589
834,82022;1,94976
832,76907;1,95233
830,71791;1,95377
828,66676;1,95595
826,6156;1,95945
824,56445;1,96209
822,51329;1,96417
820,46214;1,96452
818,41098;1,96067
816,35982;1,9572
814,30867;1,95737
812,25751;1,95694
810,20636;1,95336
808,1552;1,94894
806,10405;1,94801
804,05289;1,95104
802,00174;1,95329
799,95058;1,95335
797,89943;1,95295
795,84827;1,95267
793,79712;1,95266
791,74596;1,95246
789,69481;1,95255
787,64365;1,95409
785,59249;1,95607
783,54134;1,95517
781,49018;1,95101
779,43903;1,94868
777,38787;1,94946
775,33672;1,94827
773,28556;1,94505
771,23441;1,94401
769,18325;1,94435
767,1321;1,9434
765,08094;1,94278
763,02979;1,94396
760,97863;1,94564
758,92748;1,94737
756,87632;1,94777
754,82516;1,94657
752,77401;1,94691
750,72285;1,94945
748,6717;1,95036
746,62054;1,94827
744,56939;1,94771
742,51823;1,95054
740,46708;1,95229
738,41592;1,9494
736,36477;1,94456
734,31361;1,94211
732,26246;1,94264
730,2113;1,94408
728,16015;1,94464
726,10899;1,94434
724,05783;1,94399
722,00668;1,94234
719,95552;1,93794
717,90437;1,93343
715,85321;1,93255
713,80206;1,93264
711,7509;1,93042
709,69975;1,92654
707,64859;1,92176
705,59744;1,91707
703,54628;1,91519
701,49513;1,91704
699,44397;1,91968
697,39281;1,92073
695,34166;1,9205
693,2905;1,92038
691,23935;1,92081
689,18819;1,92006
687,13704;1,9178
685,08588;1,91602
683,03473;1,91441
680,98357;1,91156
678,93242;1,90798
676,88126;1,90417
674,83011;1,90082
672,77895;1,89896
670,7278;1,89466
668,67664;1,88339
666,62548;1,8717
664,57433;1,86625
662,52317;1,86332
660,47202;1,86168
658,42086;1,86315
656,36971;1,86708
654,31855;1,87067
652,2674;1,87151
650,21624;1,87038
648,16509;1,87035
646,11393;1,87133
644,06278;1,87065
642,01162;1,8685
639,96047;1,86704
637,90931;1,86677
635,85815;1,86602
633,807;1,86352
631,75584;1,8601
629,70469;1,85773
627,65353;1,85722
625,60238;1,85538
623,55122;1,84993
621,50007;1,84345
619,44891;1,8393
617,39776;1,83679
615,3466;1,83182
613,29545;1,82399
611,24429;1,81696
609,19314;1,81227
607,14198;1,80827
605,09082;1,80634
603,03967;1,80746
600,98851;1,8073
598,93736;1,80532
596,8862;1,80319
594,83505;1,80027
592,78389;1,79879
590,73274;1,80095
588,68158;1,80506
586,63043;1,80615
584,57927;1,80193
582,52812;1,79872
580,47696;1,80009
578,42581;1,79915
576,37465;1,79223
574,32349;1,78592
572,27234;1,78588
570,22118;1,79087
568,17003;1,79675
566,11887;1,79873
564,06772;1,79626
562,01656;1,79251
559,96541;1,78976
557,91425;1,78789
555,8631;1,78645
553,81194;1,78503
551,76079;1,78049
549,70963;1,77432
547,65848;1,77123
545,60732;1,76916
543,55616;1,76534
541,50501;1,76229
539,45385;1,76241
537,4027;1,76272
535,35154;1,75964
533,30039;1,75532
531,24923;1,7533
529,19808;1,75331
527,14692;1,75425
525,09577;1,75466
523,04461;1,75269
520,99346;1,75082
518,9423;1,75298
516,89115;1,75664
514,83999;1,75603
512,78883;1,7531
510,73768;1,75221
508,68652;1,75188
506,63537;1,74931
504,58421;1,74652
502,53306;1,74717
500,4819;1,74888
498,43075;1,74718
496,37959;1,74479
494,32844;1,74633
492,27728;1,74794
490,22613;1,74556
488,17497;1,74352
486,12382;1,74295
484,07266;1,74033
482,0215;1,73801
479,97035;1,73957
477,91919;1,74212
475,86804;1,74279
473,81688;1,74198
471,76573;1,73966
469,71457;1,73705
467,66342;1,73503
465,61226;1,73302
463,56111;1,73114
461,50995;1,73021
459,4588;1,73273
457,40764;1,73529
455,35649;1,73156
453,30533;1,72617
451,25417;1,72344
449,20302;1,72093
447,15186;1,71805
445,10071;1,71862
443,04955;1,72326
440,9984;1,72628
438,94724;1,72387
436,89609;1,71705
434,84493;1,71105
432,79378;1,70972
430,74262;1,70956
428,69147;1,70872
426,64031;1,70986
424,58916;1,71081
422,538;1,70767
420,48684;1,7005
418,43569;1,68998
416,38453;1,68301
414,33338;1,6854
412,28222;1,69238
410,23107;1,69753
408,17991;1,69847
406,12876;1,69577
404,0776;1,69303
402,02645;1,69208
399,97529;1,68998
