3997,70175;1,74521
3995,6506;1,74659
3993,59944;1,74916
3991,54829;1,75227
3989,49713;1,75501
3987,44598;1,75672
3985,39482;1,75725
3983,34367;1,75714
3981,29251;1,75755
3979,24136;1,75889
3977,1902;1,7603
3975,13905;1,76154
3973,08789;1,76313
3971,03673;1,76495
3968,98558;1,76673
3966,93442;1,76916
3964,88327;1,77225
3962,83211;1,77482
3960,78096;1,77692
3958,7298;1,77951
3956,67865;1,78257
3954,62749;1,78485
3952,57634;1,78513
3950,52518;1,78431
3948,47403;1,78419
3946,42287;1,78486
3944,37172;1,78569
3942,32056;1,78655
3940,2694;1,78746
3938,21825;1,78767
3936,16709;1,78678
3934,11594;1,78486
3932,06478;1,78099
3930,01363;1,77605
3927,96247;1,77227
3925,91132;1,76955
3923,86016;1,76733
3921,80901;1,76589
3919,75785;1,76409
3917,7067;1,76037
3915,65554;1,75583
3913,60439;1,75277
3911,55323;1,75105
3909,50207;1,74928
3907,45092;1,74696
3905,39976;1,74422
3903,34861;1,74119
3901,29745;1,73827
3899,2463;1,7364
3897,19514;1,73639
3895,14399;1,73765
3893,09283;1,73884
3891,04168;1,73945
3888,99052;1,74045
3886,93937;1,7409
3884,88821;1,73904
3882,83706;1,73764
3880,7859;1,7385
3878,73474;1,73977
3876,68359;1,74056
3874,63243;1,73996
3872,58128;1,73787
3870,53012;1,73536
3868,47897;1,73374
3866,42781;1,73417
3864,37666;1,73456
3862,3255;1,73293
3860,27435;1,73051
3858,22319;1,72873
3856,17204;1,72721
3854,12088;1,72407
3852,06973;1,72065
3850,01857;1,72085
3847,96741;1,72304
3845,91626;1,72368
3843,8651;1,72173
3841,81395;1,71851
3839,76279;1,71557
3837,71164;1,71402
3835,66048;1,71498
3833,60933;1,71728
3831,55817;1,71863
3829,50702;1,71888
3827,45586;1,71846
3825,40471;1,71799
3823,35355;1,7178
3821,3024;1,71608
3819,25124;1,71491
3817,20008;1,71749
3815,14893;1,72044
3813,09777;1,72179
3811,04662;1,72274
3808,99546;1,72274
3806,94431;1,721
3804,89315;1,71965
3802,842;1,72028
3800,79084;1,72139
3798,73969;1,72241
3796,68853;1,72408
3794,63738;1,72719
3792,58622;1,73083
3790,53506;1,73293
3788,48391;1,73359
3786,43275;1,7339
3784,3816;1,73418
3782,33044;1,73442
3780,27929;1,73441
3778,22813;1,73544
3776,17698;1,73845
3774,12582;1,741
3772,07467;1,74117
3770,02351;1,74038
3767,97236;1,74103
3765,9212;1,74281
3763,87005;1,74458
3761,81889;1,74645
3759,76773;1,74768
3757,71658;1,74782
3755,66542;1,74782
3753,61427;1,74761
3751,56311;1,74705
3749,51196;1,74865
3747,4608;1,75386
3745,40965;1,75971
3743,35849;1,76402
3741,30734;1,76952
3739,25618;1,77642
3737,20503;1,78126
3735,15387;1,78422
3733,10272;1,78895
3731,05156;1,79536
3729,0004;1,80112
3726,94925;1,80563
3724,89809;1,80917
3722,84694;1,81257
3720,79578;1,81673
3718,74463;1,82185
3716,69347;1,82647
3714,64232;1,82879
3712,59116;1,83008
3710,54001;1,83463
3708,48885;1,84435
3706,4377;1,85734
3704,38654;1,8743
3702,33539;1,89874
3700,28423;1,92987
3698,23307;1,96
3696,18192;1,98211
3694,13076;1,99361
3692,07961;1,99452
3690,02845;1,98686
3687,9773;1,97739
3685,92614;1,97291
3683,87499;1,97338
3681,82383;1,97725
3679,77268;1,98392
3677,72152;1,99292
3675,67037;2,00446
3673,61921;2,01884
3671,56806;2,03484
3669,5169;2,0515
3667,46574;2,06919
3665,41459;2,08797
3663,36343;2,1076
3661,31228;2,12632
3659,26112;2,14205
3657,20997;2,15745
3655,15881;2,17594
3653,10766;2,19749
3651,0565;2,22518
3649,00535;2,26256
3646,95419;2,30345
3644,90304;2,33594
3642,85188;2,35188
3640,80073;2,3509
3638,74957;2,33977
3636,69841;2,32618
3634,64726;2,31584
3632,5961;2,31297
3630,54495;2,31524
3628,49379;2,3172
3626,44264;2,32218
3624,39148;2,33243
3622,34033;2,34094
3620,28917;2,34216
3618,23802;2,3416
3616,18686;2,34722
3614,13571;2,358
3612,08455;2,36976
3610,0334;2,37992
3607,98224;2,38886
3605,93108;2,39622
3603,87993;2,39875
3601,82877;2,3977
3599,77762;2,39911
3597,72646;2,40561
3595,67531;2,41321
3593,62415;2,41795
3591,573;2,42129
3589,52184;2,42338
3587,47069;2,4228
3585,41953;2,42415
3583,36838;2,42806
3581,31722;2,4302
3579,26607;2,43403
3577,21491;2,44333
3575,16375;2,4533
3573,1126;2,45714
3571,06144;2,45214
3569,01029;2,44065
3566,95913;2,43289
3564,90798;2,43831
3562,85682;2,44836
3560,80567;2,45157
3558,75451;2,45115
3556,70336;2,45333
3554,6522;2,45509
3552,60105;2,45239
3550,54989;2,44953
3548,49874;2,45044
3546,44758;2,45142
3544,39642;2,45146
3542,34527;2,45381
3540,29411;2,45585
3538,24296;2,45605
3536,1918;2,45922
3534,14065;2,46401
3532,08949;2,46537
3530,03834;2,46537
3527,98718;2,4673
3525,93603;2,47028
3523,88487;2,47019
3521,83372;2,46605
3519,78256;2,4635
3517,73141;2,46363
3515,68025;2,46153
3513,62909;2,45743
3511,57794;2,45567
3509,52678;2,45723
3507,47563;2,45934
3505,42447;2,46304
3503,37332;2,46805
3501,32216;2,46784
3499,27101;2,46327
3497,21985;2,46292
3495,1687;2,46806
3493,11754;2,46868
3491,06639;2,46008
3489,01523;2,45012
3486,96407;2,44552
3484,91292;2,44778
3482,86176;2,45351
3480,81061;2,45498
3478,75945;2,45148
3476,7083;2,4507
3474,65714;2,45492
3472,60599;2,45872
3470,55483;2,45963
3468,50368;2,45959
3466,45252;2,45683
3464,40137;2,45174
3462,35021;2,45226
3460,29906;2,45766
3458,2479;2,45866
3456,19674;2,45509
3454,14559;2,45226
3452,09443;2,45096
3450,04328;2,44978
3447,99212;2,44928
3445,94097;2,44826
3443,88981;2,44535
3441,83866;2,44229
3439,7875;2,43884
3437,73635;2,43576
3435,68519;2,43565
3433,63404;2,4384
3431,58288;2,44162
3429,53173;2,4417
3427,48057;2,43681
3425,42941;2,4305
3423,37826;2,4295
3421,3271;2,43255
3419,27595;2,43394
3417,22479;2,43374
3415,17364;2,43252
3413,12248;2,43328
3411,07133;2,43806
3409,02017;2,43882
3406,96902;2,4326
3404,91786;2,4273
3402,86671;2,42588
3400,81555;2,42623
3398,7644;2,42738
3396,71324;2,4267
3394,66208;2,42522
3392,61093;2,42494
3390,55977;2,42628
3388,50862;2,42694
3386,45746;2,42302
3384,40631;2,41778
3382,35515;2,41749
3380,304;2,42076
3378,25284;2,42263
3376,20169;2,42056
3374,15053;2,41745
3372,09938;2,41837
3370,04822;2,42179
3367,99707;2,4216
3365,94591;2,4197
3363,89475;2,41831
3361,8436;2,41435
3359,79244;2,41078
3357,74129;2,40871
3355,69013;2,40563
3353,63898;2,40241
3351,58782;2,40104
3349,53667;2,40288
3347,48551;2,40539
3345,43436;2,40637
3343,3832;2,40666
3341,33205;2,40362
3339,28089;2,39807
3337,22974;2,39576
3335,17858;2,39549
3333,12742;2,39402
3331,07627;2,3936
3329,02511;2,39496
3326,97396;2,3955
3324,9228;2,39475
3322,87165;2,39223
3320,82049;2,38876
3318,76934;2,38789
3316,71818;2,3875
3314,66703;2,38611
3312,61587;2,38782
3310,56472;2,38922
3308,51356;2,3847
3306,46241;2,38072
3304,41125;2,38221
3302,36009;2,3839
3300,30894;2,38453
3298,25778;2,38516
3296,20663;2,3829
3294,15547;2,37859
3292,10432;2,3764
3290,05316;2,37634
3288,00201;2,3752
3285,95085;2,37208
3283,8997;2,36872
3281,84854;2,36702
3279,79739;2,36684
3277,74623;2,36567
3275,69508;2,36243
3273,64392;2,36086
3271,59276;2,36379
3269,54161;2,36622
3267,49045;2,36268
3265,4393;2,35646
3263,38814;2,35336
3261,33699;2,35219
3259,28583;2,35052
3257,23468;2,35129
3255,18352;2,3552
3253,13237;2,35806
3251,08121;2,35836
3249,03006;2,35796
3246,9789;2,35619
3244,92775;2,35237
3242,87659;2,35099
3240,82543;2,35331
3238,77428;2,35451
3236,72312;2,35275
3234,67197;2,35107
3232,62081;2,3511
3230,56966;2,35121
3228,5185;2,35111
3226,46735;2,34951
3224,41619;2,3473
3222,36504;2,34872
3220,31388;2,3516
3218,26273;2,351
3216,21157;2,34769
3214,16041;2,34421
3212,10926;2,34019
3210,0581;2,33695
3208,00695;2,33636
3205,95579;2,33674
3203,90464;2,33696
3201,85348;2,33791
3199,80233;2,33889
3197,75117;2,33845
3195,70002;2,33851
3193,64886;2,34167
3191,59771;2,3439
3189,54655;2,34073
3187,4954;2,33732
3185,44424;2,33845
3183,39308;2,34088
3181,34193;2,34033
3179,29077;2,33726
3177,23962;2,33526
3175,18846;2,33512
3173,13731;2,33449
3171,08615;2,33254
3169,035;2,33092
3166,98384;2,33182
3164,93269;2,33477
3162,88153;2,33571
3160,83038;2,33239
3158,77922;2,3283
3156,72807;2,3279
3154,67691;2,33074
3152,62575;2,33392
3150,5746;2,33624
3148,52344;2,33703
3146,47229;2,33542
3144,42113;2,33249
3142,36998;2,3307
3140,31882;2,33135
3138,26767;2,33274
3136,21651;2,33252
3134,16536;2,33291
3132,1142;2,33413
3130,06305;2,33172
3128,01189;2,32775
3125,96074;2,32743
3123,90958;2,32901
3121,85842;2,32884
3119,80727;2,32692
3117,75611;2,32483
3115,70496;2,32438
3113,6538;2,32674
3111,60265;2,33001
3109,55149;2,33133
3107,50034;2,3302
3105,44918;2,32842
3103,39803;2,32855
3101,34687;2,32928
3099,29572;2,32859
3097,24456;2,32837
3095,19341;2,32865
3093,14225;2,32646
3091,09109;2,3229
3089,03994;2,32162
3086,98878;2,32258
3084,93763;2,32394
3082,88647;2,32441
3080,83532;2,32361
3078,78416;2,32143
3076,73301;2,31914
3074,68185;2,31971
3072,6307;2,32234
3070,57954;2,32291
3068,52839;2,32013
3066,47723;2,31736
3064,42608;2,31764
3062,37492;2,32029
3060,32376;2,3229
3058,27261;2,32331
3056,22145;2,32217
3054,1703;2,32002
3052,11914;2,31686
3050,06799;2,31488
3048,01683;2,31459
3045,96568;2,3144
3043,91452;2,31303
3041,86337;2,31119
3039,81221;2,31122
3037,76106;2,31378
3035,7099;2,31616
3033,65875;2,31483
3031,60759;2,31243
3029,55643;2,31271
3027,50528;2,31254
3025,45412;2,31058
3023,40297;2,31032
3021,35181;2,31103
3019,30066;2,31052
3017,2495;2,30973
3015,19835;2,30791
3013,14719;2,30408
3011,09604;2,30261
3009,04488;2,30756
3006,99373;2,31321
3004,94257;2,31359
3002,89142;2,31078
3000,84026;2,30848
2998,7891;2,30942
2996,73795;2,31211
2994,68679;2,31405
2992,63564;2,3167
2990,58448;2,31979
2988,53333;2,32198
2986,48217;2,32273
2984,43102;2,32182
2982,37986;2,32065
2980,32871;2,32145
2978,27755;2,32395
2976,2264;2,32643
2974,17524;2,32841
2972,12409;2,32944
2970,07293;2,32898
2968,02177;2,32726
2965,97062;2,32575
2963,91946;2,32666
2961,86831;2,32926
2959,81715;2,3299
2957,766;2,32873
2955,71484;2,32919
2953,66369;2,32982
2951,61253;2,32753
2949,56138;2,32442
2947,51022;2,32322
2945,45907;2,32294
2943,40791;2,32264
2941,35675;2,32279
2939,3056;2,32427
2937,25444;2,32661
2935,20329;2,32585
2933,15213;2,32332
2931,10098;2,32237
2929,04982;2,31968
2926,99867;2,31537
2924,94751;2,31305
2922,89636;2,31247
2920,8452;2,31172
2918,79405;2,30984
2916,74289;2,30621
2914,69174;2,30211
2912,64058;2,29983
2910,58942;2,29977
2908,53827;2,29985
2906,48711;2,29832
2904,43596;2,29729
2902,3848;2,29888
2900,33365;2,29987
2898,28249;2,29654
2896,23134;2,2935
2894,18018;2,29525
2892,12903;2,29767
2890,07787;2,29774
2888,02672;2,29703
2885,97556;2,29777
2883,92441;2,3017
2881,87325;2,30616
2879,82209;2,30639
2877,77094;2,30334
2875,71978;2,3021
2873,66863;2,30434
2871,61747;2,30678
2869,56632;2,305
2867,51516;2,30012
2865,46401;2,29622
2863,41285;2,29336
2861,3617;2,29278
2859,31054;2,29424
2857,25939;2,29309
2855,20823;2,2902
2853,15708;2,28822
2851,10592;2,28602
2849,05476;2,28354
2847,00361;2,28041
2844,95245;2,2761
2842,9013;2,2718
2840,85014;2,26685
2838,79899;2,26254
2836,74783;2,25958
2834,69668;2,25601
2832,64552;2,25464
2830,59437;2,25593
2828,54321;2,25457
2826,49206;2,25026
2824,4409;2,24724
2822,38975;2,24507
2820,33859;2,24196
2818,28743;2,23927
2816,23628;2,23671
2814,18512;2,23442
2812,13397;2,23425
2810,08281;2,23512
2808,03166;2,23376
2805,9805;2,23042
2803,92935;2,22942
2801,87819;2,2308
2799,82704;2,23032
2797,77588;2,22779
2795,72473;2,22543
2793,67357;2,22368
2791,62242;2,22195
2789,57126;2,22098
2787,5201;2,22196
2785,46895;2,22314
2783,41779;2,22206
2781,36664;2,21924
2779,31548;2,217
2777,26433;2,21615
2775,21317;2,21647
2773,16202;2,21674
2771,11086;2,21491
2769,05971;2,21179
2767,00855;2,20846
2764,9574;2,20611
2762,90624;2,20647
2760,85509;2,20739
2758,80393;2,20799
2756,75277;2,20974
2754,70162;2,2102
2752,65046;2,20803
2750,59931;2,20582
2748,54815;2,2043
2746,497;2,20297
2744,44584;2,20149
2742,39469;2,19915
2740,34353;2,19834
2738,29238;2,19995
2736,24122;2,20005
2734,19007;2,19754
2732,13891;2,19537
2730,08776;2,19455
2728,0366;2,19476
2725,98544;2,19488
2723,93429;2,19281
2721,88313;2,1907
2719,83198;2,1911
2717,78082;2,19176
2715,72967;2,19085
2713,67851;2,1904
2711,62736;2,19165
2709,5762;2,19106
2707,52505;2,1881
2705,47389;2,18666
2703,42274;2,18714
2701,37158;2,18812
2699,32043;2,18853
2697,26927;2,18731
2695,21811;2,18488
2693,16696;2,18275
2691,1158;2,18263
2689,06465;2,18406
2687,01349;2,18456
2684,96234;2,18373
2682,91118;2,1831
2680,86003;2,18286
2678,80887;2,18259
2676,75772;2,18283
2674,70656;2,18345
2672,65541;2,1835
2670,60425;2,18333
2668,55309;2,18343
2666,50194;2,18297
2664,45078;2,18241
2662,39963;2,18165
2660,34847;2,17921
2658,29732;2,17759
2656,24616;2,17952
2654,19501;2,1824
2652,14385;2,18361
2650,0927;2,18397
2648,04154;2,18407
2645,99039;2,18348
2643,93923;2,18333
2641,88808;2,18478
2639,83692;2,18627
2637,78576;2,18618
2635,73461;2,18685
2633,68345;2,19034
2631,6323;2,19443
2629,58114;2,19781
2627,52999;2,20091
2625,47883;2,20253
2623,42768;2,20403
2621,37652;2,20801
2619,32537;2,21206
2617,27421;2,2133
2615,22306;2,21363
2613,1719;2,21459
2611,12075;2,21522
2609,06959;2,21636
2607,01843;2,21824
2604,96728;2,21906
2602,91612;2,22056
2600,86497;2,22352
2598,81381;2,22459
2596,76266;2,22356
2594,7115;2,22177
2592,66035;2,22049
2590,60919;2,2215
2588,55804;2,22352
2586,50688;2,22482
2584,45573;2,22472
2582,40457;2,22373
2580,35342;2,22461
2578,30226;2,22706
2576,2511;2,22865
2574,19995;2,2296
2572,14879;2,23045
2570,09764;2,23107
2568,04648;2,23019
2565,99533;2,22775
2563,94417;2,2272
2561,89302;2,22988
2559,84186;2,23206
2557,79071;2,23122
2555,73955;2,23013
2553,6884;2,23006
2551,63724;2,23082
2549,58609;2,2333
2547,53493;2,23499
2545,48377;2,23428
2543,43262;2,2339
2541,38146;2,23542
2539,33031;2,23832
2537,27915;2,24219
2535,228;2,24588
2533,17684;2,2493
2531,12569;2,25414
2529,07453;2,25964
2527,02338;2,26504
2524,97222;2,27032
2522,92107;2,27222
2520,86991;2,27071
2518,81876;2,26962
2516,7676;2,27057
2514,71644;2,27255
2512,66529;2,2737
2510,61413;2,27432
2508,56298;2,27464
2506,51182;2,27388
2504,46067;2,27066
2502,40951;2,26478
2500,35836;2,25946
2498,3072;2,25457
2496,25605;2,24714
2494,20489;2,23958
2492,15374;2,23518
2490,10258;2,2315
2488,05143;2,22702
2486,00027;2,22234
2483,94911;2,21648
2481,89796;2,21077
2479,8468;2,20569
2477,79565;2,19956
2475,74449;2,19399
2473,69334;2,18932
2471,64218;2,18333
2469,59103;2,17702
2467,53987;2,17192
2465,48872;2,16725
2463,43756;2,16283
2461,38641;2,15963
2459,33525;2,15676
2457,2841;2,15298
2455,23294;2,14872
2453,18178;2,14463
2451,13063;2,14161
2449,07947;2,13982
2447,02832;2,13814
2444,97716;2,13583
2442,92601;2,13414
2440,87485;2,13331
2438,8237;2,13222
2436,77254;2,13072
2434,72139;2,12817
2432,67023;2,12503
2430,61908;2,12294
2428,56792;2,12203
2426,51677;2,1209
2424,46561;2,1193
2422,41445;2,11859
2420,3633;2,11853
2418,31214;2,11743
2416,26099;2,11552
2414,20983;2,11461
2412,15868;2,11426
2410,10752;2,1123
2408,05637;2,10856
2406,00521;2,10598
2403,95406;2,1056
2401,9029;2,10583
2399,85175;2,10618
2397,80059;2,1062
2395,74944;2,10553
2393,69828;2,10448
2391,64712;2,10407
2389,59597;2,10495
2387,54481;2,10606
2385,49366;2,10605
2383,4425;2,10509
2381,39135;2,10469
2379,34019;2,1063
2377,28904;2,10883
2375,23788;2,10968
2373,18673;2,10922
2371,13557;2,10971
2369,08442;2,1109
2367,03326;2,11071
2364,9821;2,10816
2362,93095;2,10493
2360,87979;2,10389
2358,82864;2,1052
2356,77748;2,10632
2354,72633;2,10589
2352,67517;2,10556
2350,62402;2,10656
2348,57286;2,10764
2346,52171;2,10719
2344,47055;2,10482
2342,4194;2,10233
2340,36824;2,10284
2338,31709;2,10546
2336,26593;2,10557
2334,21477;2,10224
2332,16362;2,09969
2330,11246;2,10151
2328,06131;2,10571
2326,01015;2,10828
2323,959;2,10817
2321,90784;2,10703
2319,85669;2,10682
2317,80553;2,10681
2315,75438;2,10583
2313,70322;2,10489
2311,65207;2,10482
2309,60091;2,1048
2307,54976;2,10446
2305,4986;2,10432
2303,44744;2,10382
2301,39629;2,10227
2299,34513;2,10062
2297,29398;2,10027
2295,24282;2,10116
2293,19167;2,10172
2291,14051;2,1008
2289,08936;2,09938
2287,0382;2,09925
2284,98705;2,10096
2282,93589;2,10303
2280,88474;2,10312
2278,83358;2,10172
2276,78243;2,10124
2274,73127;2,10224
2272,68011;2,10325
2270,62896;2,10336
2268,5778;2,10356
2266,52665;2,10449
2264,47549;2,10578
2262,42434;2,10691
2260,37318;2,10773
2258,32203;2,10856
2256,27087;2,10932
2254,21972;2,11032
2252,16856;2,11123
2250,11741;2,11083
2248,06625;2,11092
2246,0151;2,11291
2243,96394;2,11389
2241,91278;2,11356
2239,86163;2,11364
2237,81047;2,1142
2235,75932;2,11497
2233,70816;2,11554
2231,65701;2,11582
2229,60585;2,11647
2227,5547;2,11841
2225,50354;2,12113
2223,45239;2,12345
2221,40123;2,12588
2219,35008;2,12874
2217,29892;2,13001
2215,24777;2,12888
2213,19661;2,12806
2211,14545;2,12867
2209,0943;2,12909
2207,04314;2,12914
2204,99199;2,12867
2202,94083;2,12798
2200,88968;2,12829
2198,83852;2,1289
2196,78737;2,12905
2194,73621;2,12941
2192,68506;2,13076
2190,6339;2,13274
2188,58275;2,13388
2186,53159;2,13401
2184,48044;2,13378
2182,42928;2,13357
2180,37812;2,13466
2178,32697;2,13732
2176,27581;2,13983
2174,22466;2,14077
2172,1735;2,14082
2170,12235;2,14138
2168,07119;2,14256
2166,02004;2,14468
2163,96888;2,14789
2161,91773;2,15124
2159,86657;2,15496
2157,81542;2,15874
2155,76426;2,1611
2153,71311;2,16347
2151,66195;2,16665
2149,61079;2,16867
2147,55964;2,16939
2145,50848;2,17007
2143,45733;2,1714
2141,40617;2,17269
2139,35502;2,17342
2137,30386;2,17391
2135,25271;2,17348
2133,20155;2,17179
2131,1504;2,17013
2129,09924;2,16969
2127,04809;2,16939
2124,99693;2,16783
2122,94578;2,16532
2120,89462;2,16209
2118,84346;2,15894
2116,79231;2,15691
2114,74115;2,15497
2112,69;2,15292
2110,63884;2,15273
2108,58769;2,15375
2106,53653;2,15333
2104,48538;2,15145
2102,43422;2,15029
2100,38307;2,15058
2098,33191;2,15101
2096,28076;2,15134
2094,2296;2,15176
2092,17844;2,15136
2090,12729;2,15072
2088,07613;2,15083
2086,02498;2,15198
2083,97382;2,15435
2081,92267;2,15619
2079,87151;2,15619
2077,82036;2,15615
2075,7692;2,1568
2073,71805;2,15673
2071,66689;2,1562
2069,61574;2,15649
2067,56458;2,1579
2065,51343;2,15918
2063,46227;2,15932
2061,41111;2,15954
2059,35996;2,16074
2057,3088;2,16278
2055,25765;2,16462
2053,20649;2,16523
2051,15534;2,16534
2049,10418;2,16518
2047,05303;2,16493
2045,00187;2,1664
2042,95072;2,16913
2040,89956;2,17018
2038,84841;2,16928
2036,79725;2,16857
2034,7461;2,16913
2032,69494;2,17048
2030,64378;2,17141
2028,59263;2,17188
2026,54147;2,17323
2024,49032;2,17496
2022,43916;2,17543
2020,38801;2,17541
2018,33685;2,17547
2016,2857;2,17566
2014,23454;2,17654
2012,18339;2,17726
2010,13223;2,17761
2008,08108;2,17824
2006,02992;2,17919
2003,97877;2,18072
2001,92761;2,18228
1999,87645;2,18315
1997,8253;2,18429
1995,77414;2,18543
1993,72299;2,18497
1991,67183;2,18433
1989,62068;2,18509
1987,56952;2,18561
1985,51837;2,18538
1983,46721;2,18621
1981,41606;2,18823
1979,3649;2,19013
1977,31375;2,19193
1975,26259;2,19336
1973,21144;2,19397
1971,16028;2,19483
1969,10912;2,197
1967,05797;2,2001
1965,00681;2,20379
1962,95566;2,20748
1960,9045;2,20932
1958,85335;2,20853
1956,80219;2,20661
1954,75104;2,20604
1952,69988;2,20645
1950,64873;2,20565
1948,59757;2,20522
1946,54642;2,2068
1944,49526;2,20833
1942,44411;2,20873
1940,39295;2,20835
1938,34179;2,20739
1936,29064;2,20728
1934,23948;2,20884
1932,18833;2,21092
1930,13717;2,2129
1928,08602;2,21461
1926,03486;2,21476
1923,98371;2,21319
1921,93255;2,21368
1919,8814;2,21747
1917,83024;2,21989
1915,77909;2,21954
1913,72793;2,2197
1911,67678;2,22167
1909,62562;2,2246
1907,57446;2,22729
1905,52331;2,22911
1903,47215;2,2302
1901,421;2,23061
1899,36984;2,23011
1897,31869;2,22984
1895,26753;2,23181
1893,21638;2,23543
1891,16522;2,23789
1889,11407;2,23918
1887,06291;2,24131
1885,01176;2,24347
1882,9606;2,24451
1880,90945;2,24467
1878,85829;2,24457
1876,80713;2,24543
1874,75598;2,24701
1872,70482;2,24861
1870,65367;2,25015
1868,60251;2,25143
1866,55136;2,25317
1864,5002;2,25496
1862,44905;2,25641
1860,39789;2,25943
1858,34674;2,26392
1856,29558;2,26741
1854,24443;2,26851
1852,19327;2,26863
1850,14212;2,2698
1848,09096;2,27106
1846,0398;2,27142
1843,98865;2,27356
1841,93749;2,27915
1839,88634;2,28479
1837,83518;2,28833
1835,78403;2,29111
1833,73287;2,29373
1831,68172;2,29444
1829,63056;2,29358
1827,57941;2,295
1825,52825;2,29984
1823,4771;2,30586
1821,42594;2,31075
1819,37478;2,3147
1817,32363;2,31949
1815,27247;2,32453
1813,22132;2,32814
1811,17016;2,33148
1809,11901;2,33738
1807,06785;2,34627
1805,0167;2,35523
1802,96554;2,36091
1800,91439;2,36441
1798,86323;2,36952
1796,81208;2,37535
1794,76092;2,37887
1792,70977;2,38019
1790,65861;2,38151
1788,60745;2,38276
1786,5563;2,38179
1784,50514;2,37888
1782,45399;2,37583
1780,40283;2,37281
1778,35168;2,37024
1776,30052;2,36862
1774,24937;2,36685
1772,19821;2,36476
1770,14706;2,36428
1768,0959;2,36661
1766,04475;2,37206
1763,99359;2,37894
1761,94244;2,38397
1759,89128;2,38697
1757,84012;2,39059
1755,78897;2,39544
1753,73781;2,39895
1751,68666;2,39929
1749,6355;2,39924
1747,58435;2,40241
1745,53319;2,40784
1743,48204;2,41255
1741,43088;2,41656
1739,37973;2,42315
1737,32857;2,43176
1735,27742;2,43667
1733,22626;2,43705
1731,17511;2,43967
1729,12395;2,44703
1727,07279;2,45677
1725,02164;2,4658
1722,97048;2,4722
1720,91933;2,47574
1718,86817;2,47873
1716,81702;2,48598
1714,76586;2,49726
1712,71471;2,50859
1710,66355;2,5211
1708,6124;2,53521
1706,56124;2,54799
1704,51009;2,56065
1702,45893;2,57541
1700,40778;2,5882
1698,35662;2,59622
1696,30546;2,60406
1694,25431;2,61482
1692,20315;2,62561
1690,152;2,63023
1688,10084;2,62433
1686,04969;2,60906
1683,99853;2,59239
1681,94738;2,58572
1679,89622;2,58311
1677,84507;2,57366
1675,79391;2,55569
1673,74276;2,53507
1671,6916;2,51687
1669,64045;2,49968
1667,58929;2,48421
1665,53813;2,46906
1663,48698;2,44928
1661,43582;2,42759
1659,38467;2,40919
1657,33351;2,39227
1655,28236;2,37125
1653,2312;2,34376
1651,18005;2,32363
1649,12889;2,31377
1647,07774;2,30189
1645,02658;2,29029
1642,97543;2,28507
1640,92427;2,28146
1638,87312;2,27442
1636,82196;2,26377
1634,7708;2,25515
1632,71965;2,25337
1630,66849;2,25452
1628,61734;2,25555
1626,56618;2,25656
1624,51503;2,25659
1622,46387;2,25649
1620,41272;2,25853
1618,36156;2,26166
1616,31041;2,26563
1614,25925;2,27159
1612,2081;2,27704
1610,15694;2,28079
1608,10579;2,28478
1606,05463;2,28964
1604,00347;2,29471
1601,95232;2,2999
1599,90116;2,30553
1597,85001;2,31205
1595,79885;2,31913
1593,7477;2,32615
1591,69654;2,33339
1589,64539;2,34128
1587,59423;2,34873
1585,54308;2,35357
1583,49192;2,35468
1581,44077;2,35304
1579,38961;2,34927
1577,33846;2,34156
1575,2873;2,33063
1573,23614;2,32164
1571,18499;2,31389
1569,13383;2,30575
1567,08268;2,29916
1565,03152;2,29284
1562,98037;2,28493
1560,92921;2,2718
1558,87806;2,25252
1556,8269;2,24185
1554,77575;2,24148
1552,72459;2,23993
1550,67344;2,23378
1548,62228;2,22602
1546,57113;2,21893
1544,51997;2,21038
1542,46881;2,19934
1540,41766;2,19066
1538,3665;2,19073
1536,31535;2,19512
1534,26419;2,19597
1532,21304;2,19424
1530,16188;2,19381
1528,11073;2,19291
1526,05957;2,19003
1524,00842;2,18696
1521,95726;2,18525
1519,90611;2,18543
1517,85495;2,18573
1515,80379;2,18477
1513,75264;2,18422
1511,70148;2,18321
1509,65033;2,17975
1507,59917;2,17707
1505,54802;2,18133
1503,49686;2,19065
1501,44571;2,19846
1499,39455;2,20241
1497,3434;2,20512
1495,29224;2,2099
1493,24109;2,2151
1491,18993;2,21852
1489,13878;2,22301
1487,08762;2,23135
1485,03646;2,24137
1482,98531;2,25068
1480,93415;2,25876
1478,883;2,26427
1476,83184;2,26466
1474,78069;2,26009
1472,72953;2,25572
1470,67838;2,25633
1468,62722;2,25815
1466,57607;2,25639
1464,52491;2,25363
1462,47376;2,25349
1460,4226;2,25303
1458,37145;2,24944
1456,32029;2,24733
1454,26913;2,25045
1452,21798;2,25331
1450,16682;2,25228
1448,11567;2,24893
1446,06451;2,24631
1444,01336;2,24566
1441,9622;2,2452
1439,91105;2,24251
1437,85989;2,23673
1435,80874;2,23137
1433,75758;2,2308
1431,70643;2,23233
1429,65527;2,2331
1427,60412;2,23399
1425,55296;2,23537
1423,5018;2,23698
1421,45065;2,23622
1419,39949;2,22957
1417,34834;2,22223
1415,29718;2,2212
1413,24603;2,22275
1411,19487;2,22177
1409,14372;2,21876
1407,09256;2,21555
1405,04141;2,21326
1402,99025;2,21317
1400,9391;2,2135
1398,88794;2,212
1396,83679;2,21039
1394,78563;2,21082
1392,73447;2,2132
1390,68332;2,21532
1388,63216;2,21495
1386,58101;2,21313
1384,52985;2,21244
1382,4787;2,21337
1380,42754;2,21473
1378,37639;2,21577
1376,32523;2,21744
1374,27408;2,22039
1372,22292;2,22344
1370,17177;2,22603
1368,12061;2,22825
1366,06946;2,22966
1364,0183;2,23036
1361,96714;2,23159
1359,91599;2,23348
1357,86483;2,23473
1355,81368;2,23559
1353,76252;2,23705
1351,71137;2,23864
1349,66021;2,23966
1347,60906;2,24053
1345,5579;2,24117
1343,50675;2,24053
1341,45559;2,23872
1339,40444;2,23805
1337,35328;2,24114
1335,30213;2,24641
1333,25097;2,25023
1331,19981;2,25301
1329,14866;2,25611
1327,0975;2,25764
1325,04635;2,25767
1322,99519;2,25862
1320,94404;2,26021
1318,89288;2,26152
1316,84173;2,26169
1314,79057;2,25805
1312,73942;2,24997
1310,68826;2,24108
1308,63711;2,23513
1306,58595;2,23249
1304,5348;2,23089
1302,48364;2,22945
1300,43248;2,22932
1298,38133;2,23054
1296,33017;2,23124
1294,27902;2,22861
1292,22786;2,22183
1290,17671;2,21444
1288,12555;2,21001
1286,0744;2,20654
1284,02324;2,20215
1281,97209;2,19952
1279,92093;2,19973
1277,86978;2,20094
1275,81862;2,20217
1273,76747;2,20315
1271,71631;2,20343
1269,66515;2,20269
1267,614;2,19983
1265,56284;2,19551
1263,51169;2,19268
1261,46053;2,19099
1259,40938;2,18792
1257,35822;2,18316
1255,30707;2,17783
1253,25591;2,17301
1251,20476;2,16895
1249,1536;2,16468
1247,10245;2,16035
1245,05129;2,15796
1243,00013;2,15762
1240,94898;2,15715
1238,89782;2,15684
1236,84667;2,15825
1234,79551;2,1598
1232,74436;2,16056
1230,6932;2,16218
1228,64205;2,16432
1226,59089;2,16594
1224,53974;2,16711
1222,48858;2,16762
1220,43743;2,16755
1218,38627;2,16772
1216,33512;2,16849
1214,28396;2,17004
1212,2328;2,17311
1210,18165;2,17678
1208,13049;2,17872
1206,07934;2,17908
1204,02818;2,18088
1201,97703;2,18463
1199,92587;2,18771
1197,87472;2,18957
1195,82356;2,19115
1193,77241;2,19264
1191,72125;2,19287
1189,6701;2,19295
1187,61894;2,19536
1185,56779;2,19865
1183,51663;2,20055
1181,46547;2,20247
1179,41432;2,20573
1177,36316;2,20942
1175,31201;2,21315
1173,26085;2,2165
1171,2097;2,21854
1169,15854;2,21941
1167,10739;2,21973
1165,05623;2,22002
1163,00508;2,22079
1160,95392;2,2218
1158,90277;2,22238
1156,85161;2,22199
1154,80046;2,22132
1152,7493;2,22252
1150,69814;2,22432
1148,64699;2,22381
1146,59583;2,22259
1144,54468;2,223
1142,49352;2,22368
1140,44237;2,22352
1138,39121;2,22449
1136,34006;2,22665
1134,2889;2,22852
1132,23775;2,23155
1130,18659;2,23529
1128,13544;2,23651
1126,08428;2,23505
1124,03313;2,23295
1121,98197;2,23311
1119,93081;2,2363
1117,87966;2,23949
1115,8285;2,24006
1113,77735;2,23911
1111,72619;2,2397
1109,67504;2,24109
1107,62388;2,23987
1105,57273;2,23675
1103,52157;2,23565
1101,47042;2,23692
1099,41926;2,23685
1097,36811;2,2362
1095,31695;2,23767
1093,2658;2,23929
1091,21464;2,23987
1089,16348;2,24001
1087,11233;2,239
1085,06117;2,23402
1083,01002;2,22368
1080,95886;2,21239
1078,90771;2,20306
1076,85655;2,19685
1074,8054;2,19646
1072,75424;2,19878
1070,70309;2,19877
1068,65193;2,19836
1066,60078;2,19987
1064,54962;2,20201
1062,49847;2,20473
1060,44731;2,20777
1058,39615;2,20861
1056,345;2,20583
1054,29384;2,20216
1052,24269;2,2013
1050,19153;2,20198
1048,14038;2,20029
1046,08922;2,19634
1044,03807;2,19217
1041,98691;2,1885
1039,93576;2,18721
1037,8846;2,18852
1035,83345;2,19002
1033,78229;2,19175
1031,73114;2,19409
1029,67998;2,19661
1027,62882;2,19992
1025,57767;2,20166
1023,52651;2,19937
1021,47536;2,19614
1019,4242;2,19362
1017,37305;2,19122
1015,32189;2,18968
1013,27074;2,18848
1011,21958;2,18656
1009,16843;2,18235
1007,11727;2,17752
1005,06612;2,17594
1003,01496;2,17749
1000,96381;2,18025
998,91265;2,18143
996,86149;2,18088
994,81034;2,18088
992,75918;2,18078
990,70803;2,18006
988,65687;2,1798
986,60572;2,18116
984,55456;2,18236
982,50341;2,1799
980,45225;2,17477
978,4011;2,16993
976,34994;2,16686
974,29879;2,16499
972,24763;2,16337
970,19647;2,16428
968,14532;2,1675
966,09416;2,16946
964,04301;2,17077
961,99185;2,17276
959,9407;2,1747
957,88954;2,17558
955,83839;2,17502
953,78723;2,17528
951,73608;2,17786
949,68492;2,18194
947,63377;2,18612
945,58261;2,18894
943,53146;2,19212
941,4803;2,1959
939,42914;2,19697
937,37799;2,19635
935,32683;2,19685
933,27568;2,19736
931,22452;2,19701
929,17337;2,19693
927,12221;2,19663
925,07106;2,1984
923,0199;2,20454
920,96875;2,20956
918,91759;2,21045
916,86644;2,21122
914,81528;2,21291
912,76413;2,21244
910,71297;2,2102
908,66181;2,21037
906,61066;2,2137
904,5595;2,21607
902,50835;2,21576
900,45719;2,21462
898,40604;2,21233
896,35488;2,20911
894,30373;2,20553
892,25257;2,19814
890,20142;2,18611
888,15026;2,17592
886,09911;2,17339
884,04795;2,17574
881,9968;2,17579
879,94564;2,17138
877,89448;2,16394
875,84333;2,15302
873,79217;2,14364
871,74102;2,15016
869,68986;2,17945
867,63871;2,21389
865,58755;2,2303
863,5364;2,23386
861,48524;2,24005
859,43409;2,24649
857,38293;2,24545
855,33178;2,23995
853,28062;2,23693
851,22947;2,23867
849,17831;2,24121
847,12715;2,24084
845,076;2,24111
843,02484;2,24378
840,97369;2,24513
838,92253;2,24302
836,87138;2,23966
834,82022;2,23965
832,76907;2,2414
830,71791;2,24135
828,66676;2,24299
826,6156;2,2472
824,56445;2,24879
822,51329;2,24563
820,46214;2,24206
818,41098;2,24201
816,35982;2,2443
814,30867;2,2482
812,25751;2,25324
810,20636;2,25511
808,1552;2,25275
806,10405;2,25181
804,05289;2,25438
802,00174;2,25623
799,95058;2,25766
797,89943;2,26052
795,84827;2,26244
793,79712;2,26488
791,74596;2,26878
789,69481;2,27047
787,64365;2,26808
785,59249;2,26833
783,54134;2,27674
781,49018;2,28364
779,43903;2,28258
777,38787;2,28
775,33672;2,28056
773,28556;2,28154
771,23441;2,27976
769,18325;2,27612
767,1321;2,27162
765,08094;2,26585
763,02979;2,26297
760,97863;2,26592
758,92748;2,26464
756,87632;2,25943
754,82516;2,26093
752,77401;2,26319
750,72285;2,26157
748,6717;2,26039
746,62054;2,25877
744,56939;2,25488
742,51823;2,25119
740,46708;2,25197
738,41592;2,25506
736,36477;2,25527
734,31361;2,25281
732,26246;2,25109
730,2113;2,25186
728,16015;2,25449
726,10899;2,25685
724,05783;2,25843
722,00668;2,26133
719,95552;2,26396
717,90437;2,26218
715,85321;2,25952
713,80206;2,25969
711,7509;2,26029
709,69975;2,26064
707,64859;2,2605
705,59744;2,2571
703,54628;2,2522
701,49513;2,25225
699,44397;2,25726
697,39281;2,25822
695,34166;2,25149
693,2905;2,24547
691,23935;2,24635
689,18819;2,2499
687,13704;2,25272
685,08588;2,25575
683,03473;2,2567
680,98357;2,25434
678,93242;2,25104
676,88126;2,24797
674,83011;2,24355
672,77895;2,2336
670,7278;2,21412
668,67664;2,19031
666,62548;2,17848
664,57433;2,17685
662,52317;2,17332
660,47202;2,16856
658,42086;2,16419
656,36971;2,16269
654,31855;2,1705
652,2674;2,18346
650,21624;2,19111
648,16509;2,19383
646,11393;2,19548
644,06278;2,19242
642,01162;2,18248
639,96047;2,1732
637,90931;2,17397
635,85815;2,18444
633,807;2,19561
631,75584;2,1993
629,70469;2,19244
627,65353;2,1782
625,60238;2,16654
623,55122;2,16045
621,50007;2,15395
619,44891;2,14764
617,39776;2,14492
615,3466;2,1421
613,29545;2,13883
611,24429;2,13554
609,19314;2,12858
607,14198;2,11961
605,09082;2,11239
603,03967;2,1092
600,98851;2,11201
598,93736;2,11917
596,8862;2,12406
594,83505;2,1218
592,78389;2,11556
590,73274;2,11279
588,68158;2,11375
586,63043;2,11296
584,57927;2,1112
582,52812;2,11252
580,47696;2,11501
578,42581;2,11288
576,37465;2,1108
574,32349;2,11705
572,27234;2,12619
570,22118;2,12772
568,17003;2,12008
566,11887;2,1123
564,06772;2,10961
562,01656;2,1066
559,96541;2,10578
557,91425;2,1143
555,8631;2,12318
553,81194;2,11879
551,76079;2,10645
549,70963;2,099
547,65848;2,09893
545,60732;2,10339
543,55616;2,10397
541,50501;2,09344
539,45385;2,07961
537,4027;2,07046
535,35154;2,06669
533,30039;2,0675
531,24923;2,07024
529,19808;2,07364
527,14692;2,0751
525,09577;2,07262
523,04461;2,07111
520,99346;2,0717
518,9423;2,0688
516,89115;2,06193
514,83999;2,05841
512,78883;2,05987
510,73768;2,06076
508,68652;2,06179
506,63537;2,06231
504,58421;2,06056
502,53306;2,06193
500,4819;2,06249
498,43075;2,06102
496,37959;2,06575
494,32844;2,07372
492,27728;2,07399
490,22613;2,06451
488,17497;2,05786
486,12382;2,06345
484,07266;2,0739
482,0215;2,0758
479,97035;2,0696
477,91919;2,067
475,86804;2,0689
473,81688;2,06741
471,76573;2,06346
469,71457;2,06545
467,66342;2,07137
465,61226;2,07235
463,56111;2,06721
461,50995;2,06027
459,4588;2,05724
457,40764;2,05635
455,35649;2,05101
453,30533;2,04684
451,25417;2,04791
449,20302;2,04798
447,15186;2,04751
445,10071;2,05039
443,04955;2,05049
440,9984;2,05031
438,94724;2,05789
436,89609;2,06327
434,84493;2,06037
432,79378;2,05336
430,74262;2,04504
428,69147;2,04256
426,64031;2,04878
424,58916;2,05427
422,538;2,04645
420,48684;2,03049
418,43569;2,02802
416,38453;2,03781
414,33338;2,04591
412,28222;2,04894
410,23107;2,0399
408,17991;2,02109
406,12876;2,00501
404,0776;1,99508
402,02645;1,98017
399,97529;1,94818
