3997,70175;1,75546
3995,6506;1,7566
3993,59944;1,75814
3991,54829;1,76054
3989,49713;1,76284
3987,44598;1,76465
3985,39482;1,76594
3983,34367;1,7667
3981,29251;1,76791
3979,24136;1,77017
3977,1902;1,77198
3975,13905;1,77199
3973,08789;1,77144
3971,03673;1,77181
3968,98558;1,77304
3966,93442;1,77507
3964,88327;1,77756
3962,83211;1,77988
3960,78096;1,78257
3958,7298;1,78559
3956,67865;1,78831
3954,62749;1,79106
3952,57634;1,79348
3950,52518;1,79477
3948,47403;1,7959
3946,42287;1,79799
3944,37172;1,80003
3942,32056;1,80049
3940,2694;1,79963
3938,21825;1,79905
3936,16709;1,79846
3934,11594;1,79604
3932,06478;1,7924
3930,01363;1,7893
3927,96247;1,78631
3925,91132;1,78246
3923,86016;1,77857
3921,80901;1,77518
3919,75785;1,77144
3917,7067;1,76754
3915,65554;1,76515
3913,60439;1,76424
3911,55323;1,7636
3909,50207;1,76325
3907,45092;1,76299
3905,39976;1,76183
3903,34861;1,7596
3901,29745;1,75688
3899,2463;1,75432
3897,19514;1,75299
3895,14399;1,75335
3893,09283;1,75409
3891,04168;1,7544
3888,99052;1,75536
3886,93937;1,75635
3884,88821;1,7563
3882,83706;1,7553
3880,7859;1,75422
3878,73474;1,75464
3876,68359;1,75549
3874,63243;1,75595
3872,58128;1,75703
3870,53012;1,75769
3868,47897;1,75792
3866,42781;1,75791
3864,37666;1,75627
3862,3255;1,75296
3860,27435;1,74969
3858,22319;1,74726
3856,17204;1,74356
3854,12088;1,73837
3852,06973;1,73691
3850,01857;1,73898
3847,96741;1,73999
3845,91626;1,73944
3843,8651;1,73835
3841,81395;1,73668
3839,76279;1,73457
3837,71164;1,73339
3835,66048;1,73408
3833,60933;1,73544
3831,55817;1,73585
3829,50702;1,73504
3827,45586;1,73448
3825,40471;1,73639
3823,35355;1,73925
3821,3024;1,74005
3819,25124;1,74017
3817,20008;1,74052
3815,14893;1,74119
3813,09777;1,7427
3811,04662;1,7438
3808,99546;1,74322
3806,94431;1,74177
3804,89315;1,74207
3802,842;1,74311
3800,79084;1,74414
3798,73969;1,74637
3796,68853;1,74829
3794,63738;1,74953
3792,58622;1,75047
3790,53506;1,75125
3788,48391;1,75253
3786,43275;1,7539
3784,3816;1,75462
3782,33044;1,75566
3780,27929;1,75736
3778,22813;1,75886
3776,17698;1,75982
3774,12582;1,76088
3772,07467;1,76231
3770,02351;1,76377
3767,97236;1,76544
3765,9212;1,76684
3763,87005;1,76836
3761,81889;1,7701
3759,76773;1,77121
3757,71658;1,77261
3755,66542;1,77563
3753,61427;1,77887
3751,56311;1,77995
3749,51196;1,77995
3747,4608;1,7812
3745,40965;1,78261
3743,35849;1,78611
3741,30734;1,79305
3739,25618;1,79963
3737,20503;1,80427
3735,15387;1,80949
3733,10272;1,81651
3731,05156;1,82296
3729,0004;1,82777
3726,94925;1,83192
3724,89809;1,83717
3722,84694;1,8437
3720,79578;1,84988
3718,74463;1,85463
3716,69347;1,85861
3714,64232;1,86336
3712,59116;1,86982
3710,54001;1,87747
3708,48885;1,88635
3706,4377;1,89834
3704,38654;1,91563
3702,33539;1,94065
3700,28423;1,97302
3698,23307;2,00729
3696,18192;2,03758
3694,13076;2,05834
3692,07961;2,06514
3690,02845;2,05804
3687,9773;2,04466
3685,92614;2,03628
3683,87499;2,03566
3681,82383;2,03986
3679,77268;2,04739
3677,72152;2,0588
3675,67037;2,0747
3673,61921;2,09218
3671,56806;2,1077
3669,5169;2,12665
3667,46574;2,15104
3665,41459;2,1755
3663,36343;2,19862
3661,31228;2,22188
3659,26112;2,24777
3657,20997;2,27665
3655,15881;2,30618
3653,10766;2,33742
3651,0565;2,38158
3649,00535;2,45037
3646,95419;2,52867
3644,90304;2,58686
3642,85188;2,61123
3640,80073;2,5995
3638,74957;2,56631
3636,69841;2,5387
3634,64726;2,52871
3632,5961;2,52909
3630,54495;2,52782
3628,49379;2,52469
3626,44264;2,52824
3624,39148;2,5369
3622,34033;2,54701
3620,28917;2,55866
3618,23802;2,5722
3616,18686;2,58495
3614,13571;2,59651
3612,08455;2,61242
3610,0334;2,63296
3607,98224;2,64859
3605,93108;2,6517
3603,87993;2,6472
3601,82877;2,6437
3599,77762;2,64705
3597,72646;2,66076
3595,67531;2,68053
3593,62415;2,69587
3591,573;2,70396
3589,52184;2,71111
3587,47069;2,72025
3585,41953;2,7325
3583,36838;2,74997
3581,31722;2,76662
3579,26607;2,77208
3577,21491;2,7669
3575,16375;2,76199
3573,1126;2,76181
3571,06144;2,7633
3569,01029;2,76608
3566,95913;2,77321
3564,90798;2,7849
3562,85682;2,8008
3560,80567;2,81675
3558,75451;2,81797
3556,70336;2,80157
3554,6522;2,78381
3552,60105;2,77496
3550,54989;2,77406
3548,49874;2,78323
3546,44758;2,80438
3544,39642;2,82579
3542,34527;2,83413
3540,29411;2,82976
3538,24296;2,82154
3536,1918;2,81798
3534,14065;2,81973
3532,08949;2,82121
3530,03834;2,82257
3527,98718;2,82977
3525,93603;2,84187
3523,88487;2,84834
3521,83372;2,84916
3519,78256;2,85378
3517,73141;2,85699
3515,68025;2,84937
3513,62909;2,83668
3511,57794;2,82867
3509,52678;2,82808
3507,47563;2,83371
3505,42447;2,8417
3503,37332;2,84596
3501,32216;2,84641
3499,27101;2,84482
3497,21985;2,84507
3495,1687;2,85388
3493,11754;2,86537
3491,06639;2,86717
3489,01523;2,86422
3486,96407;2,86886
3484,91292;2,875
3482,86176;2,87065
3480,81061;2,85739
3478,75945;2,8475
3476,7083;2,84667
3474,65714;2,84934
3472,60599;2,84992
3470,55483;2,84836
3468,50368;2,84427
3466,45252;2,84095
3464,40137;2,84183
3462,35021;2,84992
3460,29906;2,86393
3458,2479;2,87361
3456,19674;2,87432
3454,14559;2,86762
3452,09443;2,85213
3450,04328;2,83192
3447,99212;2,82439
3445,94097;2,83401
3443,88981;2,84158
3441,83866;2,84151
3439,7875;2,83696
3437,73635;2,83229
3435,68519;2,83914
3433,63404;2,84905
3431,58288;2,85207
3429,53173;2,8532
3427,48057;2,85703
3425,42941;2,86445
3423,37826;2,87303
3421,3271;2,87744
3419,27595;2,86489
3417,22479;2,84441
3415,17364;2,83762
3413,12248;2,84043
3411,07133;2,83754
3409,02017;2,82808
3406,96902;2,82273
3404,91786;2,82991
3402,86671;2,84367
3400,81555;2,84629
3398,7644;2,83942
3396,71324;2,82993
3394,66208;2,81697
3392,61093;2,81146
3390,55977;2,81965
3388,50862;2,82525
3386,45746;2,81905
3384,40631;2,81407
3382,35515;2,81348
3380,304;2,81383
3378,25284;2,82193
3376,20169;2,83434
3374,15053;2,83864
3372,09938;2,83385
3370,04822;2,8267
3367,99707;2,8193
3365,94591;2,81142
3363,89475;2,81052
3361,8436;2,81885
3359,79244;2,82532
3357,74129;2,83283
3355,69013;2,84034
3353,63898;2,83063
3351,58782;2,81409
3349,53667;2,80966
3347,48551;2,8131
3345,43436;2,8117
3343,3832;2,80604
3341,33205;2,81071
3339,28089;2,82253
3337,22974;2,82431
3335,17858;2,8171
3333,12742;2,80553
3331,07627;2,79623
3329,02511;2,79941
3326,97396;2,80626
3324,9228;2,80588
3322,87165;2,80358
3320,82049;2,80433
3318,76934;2,80813
3316,71818;2,81001
3314,66703;2,80887
3312,61587;2,81038
3310,56472;2,80844
3308,51356;2,79971
3306,46241;2,79671
3304,41125;2,80522
3302,36009;2,81221
3300,30894;2,80513
3298,25778;2,79518
3296,20663;2,79352
3294,15547;2,79578
3292,10432;2,80293
3290,05316;2,80971
3288,00201;2,80094
3285,95085;2,78484
3283,8997;2,77422
3281,84854;2,76474
3279,79739;2,75852
3277,74623;2,76364
3275,69508;2,77521
3273,64392;2,78322
3271,59276;2,78819
3269,54161;2,7914
3267,49045;2,79159
3265,4393;2,78616
3263,38814;2,77322
3261,33699;2,76551
3259,28583;2,77075
3257,23468;2,77447
3255,18352;2,76675
3253,13237;2,75952
3251,08121;2,75917
3249,03006;2,76059
3246,9789;2,76481
3244,92775;2,77134
3242,87659;2,77454
3240,82543;2,77154
3238,77428;2,76058
3236,72312;2,74585
3234,67197;2,73708
3232,62081;2,73859
3230,56966;2,74276
3228,5185;2,73755
3226,46735;2,73187
3224,41619;2,74227
3222,36504;2,75743
3220,31388;2,75978
3218,26273;2,75457
3216,21157;2,75104
3214,16041;2,75238
3212,10926;2,75452
3210,0581;2,75059
3208,00695;2,74302
3205,95579;2,73605
3203,90464;2,73187
3201,85348;2,72881
3199,80233;2,72546
3197,75117;2,726
3195,70002;2,72882
3193,64886;2,72525
3191,59771;2,71693
3189,54655;2,71176
3187,4954;2,71226
3185,44424;2,71411
3183,39308;2,71425
3181,34193;2,72118
3179,29077;2,73187
3177,23962;2,7304
3175,18846;2,72289
3173,13731;2,72285
3171,08615;2,72377
3169,035;2,71826
3166,98384;2,71439
3164,93269;2,7118
3162,88153;2,70614
3160,83038;2,7041
3158,77922;2,7069
3156,72807;2,70798
3154,67691;2,70388
3152,62575;2,69803
3150,5746;2,69631
3148,52344;2,69954
3146,47229;2,6997
3144,42113;2,69265
3142,36998;2,68865
3140,31882;2,69233
3138,26767;2,69429
3136,21651;2,69049
3134,16536;2,68423
3132,1142;2,68079
3130,06305;2,68449
3128,01189;2,68868
3125,96074;2,68681
3123,90958;2,68318
3121,85842;2,68042
3119,80727;2,67939
3117,75611;2,68414
3115,70496;2,68969
3113,6538;2,68862
3111,60265;2,68144
3109,55149;2,66988
3107,50034;2,66258
3105,44918;2,66496
3103,39803;2,66665
3101,34687;2,66017
3099,29572;2,6548
3097,24456;2,6591
3095,19341;2,66464
3093,14225;2,66027
3091,09109;2,65088
3089,03994;2,6473
3086,98878;2,65282
3084,93763;2,66104
3082,88647;2,66235
3080,83532;2,6606
3078,78416;2,66379
3076,73301;2,66648
3074,68185;2,66175
3072,6307;2,65322
3070,57954;2,65016
3068,52839;2,65499
3066,47723;2,65792
3064,42608;2,65462
3062,37492;2,65154
3060,32376;2,65097
3058,27261;2,64848
3056,22145;2,6429
3054,1703;2,63951
3052,11914;2,63929
3050,06799;2,63897
3048,01683;2,63884
3045,96568;2,63983
3043,91452;2,64041
3041,86337;2,64029
3039,81221;2,63611
3037,76106;2,62652
3035,7099;2,62138
3033,65875;2,62498
3031,60759;2,63047
3029,55643;2,63173
3027,50528;2,62835
3025,45412;2,62485
3023,40297;2,62589
3021,35181;2,62902
3019,30066;2,62675
3017,2495;2,62201
3015,19835;2,62141
3013,14719;2,62407
3011,09604;2,62715
3009,04488;2,62453
3006,99373;2,61833
3004,94257;2,61834
3002,89142;2,62129
3000,84026;2,62138
2998,7891;2,62324
2996,73795;2,62872
2994,68679;2,63155
2992,63564;2,63118
2990,58448;2,63604
2988,53333;2,64641
2986,48217;2,65282
2984,43102;2,65174
2982,37986;2,64622
2980,32871;2,64307
2978,27755;2,64758
2976,2264;2,65692
2974,17524;2,6646
2972,12409;2,66724
2970,07293;2,66766
2968,02177;2,66792
2965,97062;2,66489
2963,91946;2,66055
2961,86831;2,66051
2959,81715;2,66206
2957,766;2,6651
2955,71484;2,67092
2953,66369;2,67175
2951,61253;2,66674
2949,56138;2,66217
2947,51022;2,65847
2945,45907;2,65129
2943,40791;2,64556
2941,35675;2,65037
2939,3056;2,66308
2937,25444;2,67226
2935,20329;2,67235
2933,15213;2,6703
2931,10098;2,67092
2929,04982;2,67135
2926,99867;2,66808
2924,94751;2,66183
2922,89636;2,6573
2920,8452;2,65514
2918,79405;2,65174
2916,74289;2,64476
2914,69174;2,63682
2912,64058;2,63237
2910,58942;2,63021
2908,53827;2,62784
2906,48711;2,6249
2904,43596;2,62071
2902,3848;2,61848
2900,33365;2,61932
2898,28249;2,61511
2896,23134;2,60456
2894,18018;2,59937
2892,12903;2,6037
2890,07787;2,6093
2888,02672;2,61146
2885,97556;2,6129
2883,92441;2,61636
2881,87325;2,62094
2879,82209;2,62354
2877,77094;2,62157
2875,71978;2,61837
2873,66863;2,61761
2871,61747;2,61669
2869,56632;2,61806
2867,51516;2,62164
2865,46401;2,6168
2863,41285;2,60721
2861,3617;2,60673
2859,31054;2,61397
2857,25939;2,62069
2855,20823;2,62059
2853,15708;2,6135
2851,10592;2,60641
2849,05476;2,59769
2847,00361;2,58372
2844,95245;2,57174
2842,9013;2,56285
2840,85014;2,55039
2838,79899;2,54024
2836,74783;2,53711
2834,69668;2,53222
2832,64552;2,52323
2830,59437;2,51488
2828,54321;2,50675
2826,49206;2,49821
2824,4409;2,49396
2822,38975;2,49495
2820,33859;2,49458
2818,28743;2,49115
2816,23628;2,48831
2814,18512;2,48412
2812,13397;2,47477
2810,08281;2,46561
2808,03166;2,46232
2805,9805;2,46288
2803,92935;2,46558
2801,87819;2,46618
2799,82704;2,46344
2797,77588;2,46418
2795,72473;2,46569
2793,67357;2,46106
2791,62242;2,45441
2789,57126;2,45148
2787,5201;2,45106
2785,46895;2,44888
2783,41779;2,44607
2781,36664;2,44573
2779,31548;2,44378
2777,26433;2,43827
2775,21317;2,4323
2773,16202;2,42747
2771,11086;2,42709
2769,05971;2,43008
2767,00855;2,42924
2764,9574;2,42389
2762,90624;2,41961
2760,85509;2,41902
2758,80393;2,41987
2756,75277;2,42087
2754,70162;2,42276
2752,65046;2,42299
2750,59931;2,42021
2748,54815;2,41804
2746,497;2,41839
2744,44584;2,41832
2742,39469;2,41586
2740,34353;2,41276
2738,29238;2,40869
2736,24122;2,4042
2734,19007;2,40282
2732,13891;2,40339
2730,08776;2,40184
2728,0366;2,39914
2725,98544;2,39754
2723,93429;2,39658
2721,88313;2,39668
2719,83198;2,398
2717,78082;2,39947
2715,72967;2,4004
2713,67851;2,39951
2711,62736;2,39717
2709,5762;2,3963
2707,52505;2,39577
2705,47389;2,39273
2703,42274;2,39051
2701,37158;2,39228
2699,32043;2,39334
2697,26927;2,38953
2695,21811;2,38519
2693,16696;2,38367
2691,1158;2,38399
2689,06465;2,38434
2687,01349;2,38279
2684,96234;2,38203
2682,91118;2,38363
2680,86003;2,38426
2678,80887;2,38401
2676,75772;2,38432
2674,70656;2,38492
2672,65541;2,38441
2670,60425;2,38188
2668,55309;2,37996
2666,50194;2,37863
2664,45078;2,37592
2662,39963;2,37326
2660,34847;2,37133
2658,29732;2,36991
2656,24616;2,3699
2654,19501;2,3706
2652,14385;2,37123
2650,0927;2,37251
2648,04154;2,3737
2645,99039;2,37418
2643,93923;2,37523
2641,88808;2,37755
2639,83692;2,37976
2637,78576;2,38077
2635,73461;2,38079
2633,68345;2,38206
2631,6323;2,3864
2629,58114;2,39098
2627,52999;2,39527
2625,47883;2,4013
2623,42768;2,4065
2621,37652;2,40903
2619,32537;2,41195
2617,27421;2,41872
2615,22306;2,42689
2613,1719;2,43116
2611,12075;2,43224
2609,06959;2,43277
2607,01843;2,43242
2604,96728;2,43289
2602,91612;2,43581
2600,86497;2,43805
2598,81381;2,43761
2596,76266;2,4375
2594,7115;2,4385
2592,66035;2,4385
2590,60919;2,44097
2588,55804;2,44776
2586,50688;2,4512
2584,45573;2,44843
2582,40457;2,44422
2580,35342;2,44103
2578,30226;2,43953
2576,2511;2,43932
2574,19995;2,44097
2572,14879;2,44408
2570,09764;2,44453
2568,04648;2,44412
2565,99533;2,44727
2563,94417;2,4511
2561,89302;2,45277
2559,84186;2,45208
2557,79071;2,44934
2555,73955;2,44807
2553,6884;2,44997
2551,63724;2,45445
2549,58609;2,46077
2547,53493;2,46484
2545,48377;2,46466
2543,43262;2,4639
2541,38146;2,46491
2539,33031;2,46802
2537,27915;2,47452
2535,228;2,48264
2533,17684;2,48872
2531,12569;2,49456
2529,07453;2,50236
2527,02338;2,5088
2524,97222;2,51418
2522,92107;2,52159
2520,86991;2,52769
2518,81876;2,52844
2516,7676;2,52772
2514,71644;2,528
2512,66529;2,52537
2510,61413;2,52238
2508,56298;2,52323
2506,51182;2,52293
2504,46067;2,51702
2502,40951;2,50694
2500,35836;2,49552
2498,3072;2,48634
2496,25605;2,47922
2494,20489;2,46929
2492,15374;2,45707
2490,10258;2,44816
2488,05143;2,44152
2486,00027;2,43068
2483,94911;2,4177
2481,89796;2,40771
2479,8468;2,39782
2477,79565;2,38607
2475,74449;2,37685
2473,69334;2,37191
2471,64218;2,36727
2469,59103;2,36108
2467,53987;2,35371
2465,48872;2,34539
2463,43756;2,33785
2461,38641;2,33004
2459,33525;2,322
2457,2841;2,31863
2455,23294;2,3187
2453,18178;2,31578
2451,13063;2,31016
2449,07947;2,30592
2447,02832;2,30288
2444,97716;2,29842
2442,92601;2,29357
2440,87485;2,29051
2438,8237;2,28802
2436,77254;2,28425
2434,72139;2,2799
2432,67023;2,27806
2430,61908;2,27851
2428,56792;2,27736
2426,51677;2,27397
2424,46561;2,27
2422,41445;2,26622
2420,3633;2,26336
2418,31214;2,26301
2416,26099;2,26428
2414,20983;2,26296
2412,15868;2,25922
2410,10752;2,25711
2408,05637;2,25687
2406,00521;2,25597
2403,95406;2,2548
2401,9029;2,25442
2399,85175;2,25341
2397,80059;2,25179
2395,74944;2,25069
2393,69828;2,25074
2391,64712;2,25103
2389,59597;2,25022
2387,54481;2,24805
2385,49366;2,24599
2383,4425;2,24599
2381,39135;2,24739
2379,34019;2,24775
2377,28904;2,24623
2375,23788;2,24438
2373,18673;2,24498
2371,13557;2,2485
2369,08442;2,25304
2367,03326;2,25765
2364,9821;2,25985
2362,93095;2,25673
2360,87979;2,25129
2358,82864;2,24904
2356,77748;2,25072
2354,72633;2,25239
2352,67517;2,25171
2350,62402;2,25032
2348,57286;2,24885
2346,52171;2,24696
2344,47055;2,24543
2342,4194;2,24353
2340,36824;2,2412
2338,31709;2,24031
2336,26593;2,24081
2334,21477;2,24297
2332,16362;2,24624
2330,11246;2,24661
2328,06131;2,24414
2326,01015;2,24362
2323,959;2,24481
2321,90784;2,24383
2319,85669;2,24172
2317,80553;2,24253
2315,75438;2,24622
2313,70322;2,24938
2311,65207;2,25008
2309,60091;2,24904
2307,54976;2,24799
2305,4986;2,24643
2303,44744;2,24325
2301,39629;2,23988
2299,34513;2,23784
2297,29398;2,23736
2295,24282;2,23782
2293,19167;2,23847
2291,14051;2,23942
2289,08936;2,2402
2287,0382;2,23996
2284,98705;2,23919
2282,93589;2,23911
2280,88474;2,23998
2278,83358;2,24108
2276,78243;2,24246
2274,73127;2,24417
2272,68011;2,24435
2270,62896;2,2431
2268,5778;2,24377
2266,52665;2,24634
2264,47549;2,24777
2262,42434;2,24757
2260,37318;2,2474
2258,32203;2,24835
2256,27087;2,2497
2254,21972;2,25086
2252,16856;2,25225
2250,11741;2,25297
2248,06625;2,25281
2246,0151;2,25304
2243,96394;2,25378
2241,91278;2,25538
2239,86163;2,25779
2237,81047;2,25977
2235,75932;2,26202
2233,70816;2,26444
2231,65701;2,26541
2229,60585;2,26544
2227,5547;2,26672
2225,50354;2,26943
2223,45239;2,27056
2221,40123;2,26995
2219,35008;2,27091
2217,29892;2,27297
2215,24777;2,27436
2213,19661;2,27605
2211,14545;2,27778
2209,0943;2,27854
2207,04314;2,279
2204,99199;2,27917
2202,94083;2,27876
2200,88968;2,27833
2198,83852;2,27947
2196,78737;2,28205
2194,73621;2,2825
2192,68506;2,28098
2190,6339;2,28045
2188,58275;2,28048
2186,53159;2,27978
2184,48044;2,27955
2182,42928;2,28092
2180,37812;2,28254
2178,32697;2,28433
2176,27581;2,28733
2174,22466;2,29094
2172,1735;2,29381
2170,12235;2,29546
2168,07119;2,29694
2166,02004;2,29894
2163,96888;2,30093
2161,91773;2,30276
2159,86657;2,30532
2157,81542;2,30939
2155,76426;2,31349
2153,71311;2,31589
2151,66195;2,31863
2149,61079;2,32311
2147,55964;2,32717
2145,50848;2,32862
2143,45733;2,32773
2141,40617;2,32687
2139,35502;2,32777
2137,30386;2,33138
2135,25271;2,33557
2133,20155;2,33661
2131,1504;2,33479
2129,09924;2,33165
2127,04809;2,32748
2124,99693;2,3232
2122,94578;2,31982
2120,89462;2,31673
2118,84346;2,31395
2116,79231;2,31295
2114,74115;2,31285
2112,69;2,31132
2110,63884;2,30826
2108,58769;2,30611
2106,53653;2,30669
2104,48538;2,30836
2102,43422;2,30896
2100,38307;2,30977
2098,33191;2,31164
2096,28076;2,31214
2094,2296;2,31063
2092,17844;2,30979
2090,12729;2,31007
2088,07613;2,30895
2086,02498;2,30726
2083,97382;2,3079
2081,92267;2,30928
2079,87151;2,30951
2077,82036;2,31053
2075,7692;2,31208
2073,71805;2,31169
2071,66689;2,31111
2069,61574;2,31335
2067,56458;2,31767
2065,51343;2,3212
2063,46227;2,3215
2061,41111;2,31933
2059,35996;2,31895
2057,3088;2,32159
2055,25765;2,32344
2053,20649;2,32283
2051,15534;2,322
2049,10418;2,32228
2047,05303;2,32285
2045,00187;2,32365
2042,95072;2,32498
2040,89956;2,32614
2038,84841;2,3283
2036,79725;2,33176
2034,7461;2,33325
2032,69494;2,33306
2030,64378;2,33427
2028,59263;2,33639
2026,54147;2,33807
2024,49032;2,33867
2022,43916;2,33951
2020,38801;2,34292
2018,33685;2,34634
2016,2857;2,34569
2014,23454;2,34238
2012,18339;2,34094
2010,13223;2,34312
2008,08108;2,3469
2006,02992;2,35037
2003,97877;2,35292
2001,92761;2,354
1999,87645;2,35428
1997,8253;2,35442
1995,77414;2,35401
1993,72299;2,35408
1991,67183;2,3557
1989,62068;2,35687
1987,56952;2,35658
1985,51837;2,35734
1983,46721;2,35953
1981,41606;2,3623
1979,3649;2,36657
1977,31375;2,37136
1975,26259;2,37399
1973,21144;2,37397
1971,16028;2,37281
1969,10912;2,3721
1967,05797;2,37371
1965,00681;2,37843
1962,95566;2,38389
1960,9045;2,38768
1958,85335;2,38871
1956,80219;2,38694
1954,75104;2,38454
1952,69988;2,38456
1950,64873;2,38811
1948,59757;2,39243
1946,54642;2,39379
1944,49526;2,39308
1942,44411;2,394
1940,39295;2,39615
1938,34179;2,39564
1936,29064;2,39349
1934,23948;2,39403
1932,18833;2,39615
1930,13717;2,39677
1928,08602;2,3976
1926,03486;2,39904
1923,98371;2,39954
1921,93255;2,40112
1919,8814;2,40428
1917,83024;2,40653
1915,77909;2,40716
1913,72793;2,40787
1911,67678;2,41006
1909,62562;2,41297
1907,57446;2,41533
1905,52331;2,41642
1903,47215;2,41749
1901,421;2,4197
1899,36984;2,42197
1897,31869;2,42363
1895,26753;2,42654
1893,21638;2,43052
1891,16522;2,43113
1889,11407;2,4293
1887,06291;2,43073
1885,01176;2,43466
1882,9606;2,43691
1880,90945;2,43754
1878,85829;2,43911
1876,80713;2,44119
1874,75598;2,4426
1872,70482;2,44557
1870,65367;2,45072
1868,60251;2,45452
1866,55136;2,45478
1864,5002;2,45322
1862,44905;2,45336
1860,39789;2,45724
1858,34674;2,46297
1856,29558;2,46755
1854,24443;2,47083
1852,19327;2,47394
1850,14212;2,47739
1848,09096;2,48132
1846,0398;2,4834
1843,98865;2,48378
1841,93749;2,48697
1839,88634;2,49173
1837,83518;2,49483
1835,78403;2,49729
1833,73287;2,50074
1831,68172;2,50528
1829,63056;2,51135
1827,57941;2,51765
1825,52825;2,52264
1823,4771;2,52825
1821,42594;2,53431
1819,37478;2,53921
1817,32363;2,54454
1815,27247;2,55159
1813,22132;2,55837
1811,17016;2,56461
1809,11901;2,57378
1807,06785;2,5874
1805,0167;2,60438
1802,96554;2,62327
1800,91439;2,64074
1798,86323;2,65244
1796,81208;2,65707
1794,76092;2,65822
1792,70977;2,66009
1790,65861;2,65893
1788,60745;2,64827
1786,5563;2,63221
1784,50514;2,61954
1782,45399;2,61218
1780,40283;2,60802
1778,35168;2,60799
1776,30052;2,61007
1774,24937;2,6102
1772,19821;2,60976
1770,14706;2,61109
1768,0959;2,61337
1766,04475;2,61621
1763,99359;2,61872
1761,94244;2,62109
1759,89128;2,6235
1757,84012;2,62513
1755,78897;2,62953
1753,73781;2,63832
1751,68666;2,6453
1749,6355;2,64645
1747,58435;2,64716
1745,53319;2,65274
1743,48204;2,66079
1741,43088;2,66778
1739,37973;2,67585
1737,32857;2,68624
1735,27742;2,69149
1733,22626;2,68887
1731,17511;2,68751
1729,12395;2,69257
1727,07279;2,70096
1725,02164;2,70722
1722,97048;2,71175
1720,91933;2,71932
1718,86817;2,72993
1716,81702;2,74042
1714,76586;2,75242
1712,71471;2,76815
1710,66355;2,78397
1708,6124;2,7954
1706,56124;2,80196
1704,51009;2,80744
1702,45893;2,81613
1700,40778;2,83416
1698,35662;2,85924
1696,30546;2,87188
1694,25431;2,87052
1692,20315;2,87132
1690,152;2,88108
1688,10084;2,89397
1686,04969;2,90157
1683,99853;2,90448
1681,94738;2,90496
1679,89622;2,90142
1677,84507;2,89922
1675,79391;2,90259
1673,74276;2,90644
1671,6916;2,90402
1669,64045;2,89586
1667,58929;2,88801
1665,53813;2,88493
1663,48698;2,88068
1661,43582;2,8668
1659,38467;2,84925
1657,33351;2,83654
1655,28236;2,8229
1653,2312;2,8013
1651,18005;2,78244
1649,12889;2,76911
1647,07774;2,75674
1645,02658;2,74928
1642,97543;2,74268
1640,92427;2,73068
1638,87312;2,71551
1636,82196;2,70311
1634,7708;2,69908
1632,71965;2,7001
1630,66849;2,69757
1628,61734;2,68924
1626,56618;2,6793
1624,51503;2,67309
1622,46387;2,67346
1620,41272;2,67913
1618,36156;2,68371
1616,31041;2,68362
1614,25925;2,68266
1612,2081;2,68351
1610,15694;2,68518
1608,10579;2,68787
1606,05463;2,69194
1604,00347;2,69466
1601,95232;2,69461
1599,90116;2,69368
1597,85001;2,69383
1595,79885;2,69626
1593,7477;2,70045
1591,69654;2,70568
1589,64539;2,71187
1587,59423;2,71608
1585,54308;2,71602
1583,49192;2,71395
1581,44077;2,71126
1579,38961;2,70252
1577,33846;2,68023
1575,2873;2,65319
1573,23614;2,63854
1571,18499;2,63137
1569,13383;2,62255
1567,08268;2,61247
1565,03152;2,60267
1562,98037;2,59304
1560,92921;2,57657
1558,87806;2,55066
1556,8269;2,53397
1554,77575;2,53007
1552,72459;2,52898
1550,67344;2,52547
1548,62228;2,51812
1546,57113;2,50876
1544,51997;2,50004
1542,46881;2,49252
1540,41766;2,48418
1538,3665;2,47808
1536,31535;2,47518
1534,26419;2,471
1532,21304;2,46711
1530,16188;2,46506
1528,11073;2,46197
1526,05957;2,45807
1524,00842;2,45412
1521,95726;2,44878
1519,90611;2,44502
1517,85495;2,44399
1515,80379;2,44201
1513,75264;2,43697
1511,70148;2,4301
1509,65033;2,42324
1507,59917;2,41714
1505,54802;2,41811
1503,49686;2,42717
1501,44571;2,43524
1499,39455;2,43927
1497,3434;2,44304
1495,29224;2,45046
1493,24109;2,45935
1491,18993;2,46612
1489,13878;2,47281
1487,08762;2,48286
1485,03646;2,49502
1482,98531;2,50632
1480,93415;2,51615
1478,883;2,5239
1476,83184;2,52772
1474,78069;2,52722
1472,72953;2,52431
1470,67838;2,52192
1468,62722;2,52017
1466,57607;2,5175
1464,52491;2,51405
1462,47376;2,51146
1460,4226;2,50952
1458,37145;2,50718
1456,32029;2,50553
1454,26913;2,50486
1452,21798;2,50343
1450,16682;2,50161
1448,11567;2,50007
1446,06451;2,49927
1444,01336;2,49866
1441,9622;2,49706
1439,91105;2,49506
1437,85989;2,49195
1435,80874;2,48877
1433,75758;2,4895
1431,70643;2,49168
1429,65527;2,49099
1427,60412;2,48853
1425,55296;2,48662
1423,5018;2,48444
1421,45065;2,4801
1419,39949;2,47351
1417,34834;2,466
1415,29718;2,45715
1413,24603;2,44675
1411,19487;2,43611
1409,14372;2,42743
1407,09256;2,42261
1405,04141;2,42131
1402,99025;2,42197
1400,9391;2,42373
1398,88794;2,42718
1396,83679;2,43152
1394,78563;2,43474
1392,73447;2,43787
1390,68332;2,44223
1388,63216;2,44752
1386,58101;2,45313
1384,52985;2,45804
1382,4787;2,46125
1380,42754;2,46231
1378,37639;2,46407
1376,32523;2,46967
1374,27408;2,47666
1372,22292;2,48164
1370,17177;2,48424
1368,12061;2,48498
1366,06946;2,48409
1364,0183;2,48311
1361,96714;2,48468
1359,91599;2,48854
1357,86483;2,49232
1355,81368;2,49397
1353,76252;2,49362
1351,71137;2,49344
1349,66021;2,49384
1347,60906;2,49533
1345,5579;2,49985
1343,50675;2,50558
1341,45559;2,50841
1339,40444;2,50844
1337,35328;2,50774
1335,30213;2,50614
1333,25097;2,50392
1331,19981;2,50456
1329,14866;2,51068
1327,0975;2,51818
1325,04635;2,52295
1322,99519;2,52623
1320,94404;2,52878
1318,89288;2,52977
1316,84173;2,52783
1314,79057;2,52186
1312,73942;2,5141
1310,68826;2,50709
1308,63711;2,50073
1306,58595;2,49499
1304,5348;2,49164
1302,48364;2,49091
1300,43248;2,49071
1298,38133;2,49027
1296,33017;2,48852
1294,27902;2,48337
1292,22786;2,47548
1290,17671;2,4673
1288,12555;2,46153
1286,0744;2,45886
1284,02324;2,45874
1281,97209;2,4612
1279,92093;2,46384
1277,86978;2,46362
1275,81862;2,46187
1273,76747;2,46207
1271,71631;2,46342
1269,66515;2,46072
1267,614;2,45405
1265,56284;2,4498
1263,51169;2,44807
1261,46053;2,44462
1259,40938;2,44143
1257,35822;2,4394
1255,30707;2,43392
1253,25591;2,42465
1251,20476;2,41603
1249,1536;2,4102
1247,10245;2,40672
1245,05129;2,40546
1243,00013;2,40501
1240,94898;2,40517
1238,89782;2,40779
1236,84667;2,4122
1234,79551;2,41689
1232,74436;2,41975
1230,6932;2,4192
1228,64205;2,41805
1226,59089;2,41933
1224,53974;2,4199
1222,48858;2,41597
1220,43743;2,41183
1218,38627;2,41332
1216,33512;2,4186
1214,28396;2,42281
1212,2328;2,42454
1210,18165;2,42459
1208,13049;2,42492
1206,07934;2,42755
1204,02818;2,43294
1201,97703;2,43877
1199,92587;2,44113
1197,87472;2,4388
1195,82356;2,43401
1193,77241;2,43235
1191,72125;2,43509
1189,6701;2,43684
1187,61894;2,43636
1185,56779;2,43773
1183,51663;2,44183
1181,46547;2,4454
1179,41432;2,44747
1177,36316;2,45116
1175,31201;2,45686
1173,26085;2,46031
1171,2097;2,46
1169,15854;2,46092
1167,10739;2,46462
1165,05623;2,4657
1163,00508;2,46606
1160,95392;2,46928
1158,90277;2,46974
1156,85161;2,46626
1154,80046;2,46433
1152,7493;2,46566
1150,69814;2,46987
1148,64699;2,47574
1146,59583;2,47981
1144,54468;2,48108
1142,49352;2,48129
1140,44237;2,48317
1138,39121;2,48673
1136,34006;2,48683
1134,2889;2,48529
1132,23775;2,4872
1130,18659;2,49081
1128,13544;2,49587
1126,08428;2,5019
1124,03313;2,50433
1121,98197;2,50274
1119,93081;2,50032
1117,87966;2,49885
1115,8285;2,49928
1113,77735;2,49997
1111,72619;2,49995
1109,67504;2,49948
1107,62388;2,49806
1105,57273;2,49746
1103,52157;2,49819
1101,47042;2,49886
1099,41926;2,50079
1097,36811;2,50415
1095,31695;2,5079
1093,2658;2,51088
1091,21464;2,50926
1089,16348;2,50663
1087,11233;2,50797
1085,06117;2,50667
1083,01002;2,49879
1080,95886;2,48867
1078,90771;2,47859
1076,85655;2,46573
1074,8054;2,45365
1072,75424;2,45042
1070,70309;2,45558
1068,65193;2,46304
1066,60078;2,46845
1064,54962;2,46951
1062,49847;2,46704
1060,44731;2,46474
1058,39615;2,46295
1056,345;2,46107
1054,29384;2,46
1052,24269;2,46028
1050,19153;2,46176
1048,14038;2,46132
1046,08922;2,45658
1044,03807;2,44823
1041,98691;2,44077
1039,93576;2,43872
1037,8846;2,4363
1035,83345;2,43102
1033,78229;2,43045
1031,73114;2,4343
1029,67998;2,4372
1027,62882;2,44
1025,57767;2,44383
1023,52651;2,44448
1021,47536;2,44188
1019,4242;2,43995
1017,37305;2,43973
1015,32189;2,43792
1013,27074;2,43201
1011,21958;2,42658
1009,16843;2,42318
1007,11727;2,42018
1005,06612;2,41813
1003,01496;2,41605
1000,96381;2,41345
998,91265;2,41165
996,86149;2,41225
994,81034;2,41601
992,75918;2,41854
990,70803;2,41689
988,65687;2,41675
986,60572;2,4203
984,55456;2,42203
982,50341;2,41942
980,45225;2,41408
978,4011;2,40678
976,34994;2,39799
974,29879;2,38974
972,24763;2,38725
970,19647;2,39139
968,14532;2,39341
966,09416;2,3906
964,04301;2,38707
961,99185;2,38619
959,9407;2,3873
957,88954;2,38625
955,83839;2,38647
953,78723;2,39264
951,73608;2,39899
949,68492;2,3995
947,63377;2,39934
945,58261;2,40289
943,53146;2,40706
941,4803;2,41297
939,42914;2,4219
937,37799;2,42402
935,32683;2,4163
933,27568;2,41162
931,22452;2,41358
929,17337;2,41428
927,12221;2,41153
925,07106;2,40969
923,0199;2,41263
920,96875;2,41968
918,91759;2,42662
916,86644;2,42921
914,81528;2,42747
912,76413;2,4255
910,71297;2,42503
908,66181;2,42481
906,61066;2,42641
904,5595;2,43095
902,50835;2,43333
900,45719;2,43149
898,40604;2,42906
896,35488;2,42951
894,30373;2,43069
892,25257;2,42033
890,20142;2,39748
888,15026;2,38209
886,09911;2,38401
884,04795;2,38855
881,9968;2,37453
879,94564;2,34584
877,89448;2,31638
875,84333;2,28474
873,79217;2,25558
871,74102;2,2501
869,68986;2,28211
867,63871;2,33678
865,58755;2,38515
863,5364;2,41519
861,48524;2,42712
859,43409;2,42956
857,38293;2,43236
855,33178;2,43564
853,28062;2,44163
851,22947;2,45247
849,17831;2,45896
847,12715;2,45294
845,076;2,44033
843,02484;2,43142
840,97369;2,43133
838,92253;2,43736
836,87138;2,44179
834,82022;2,44044
832,76907;2,43652
830,71791;2,43698
828,66676;2,44538
826,6156;2,45856
824,56445;2,46504
822,51329;2,46083
820,46214;2,45633
818,41098;2,45546
816,35982;2,45573
814,30867;2,45547
812,25751;2,45456
810,20636;2,45393
808,1552;2,4574
806,10405;2,46953
804,05289;2,47799
802,00174;2,47348
799,95058;2,47125
797,89943;2,47478
795,84827;2,47332
793,79712;2,46967
791,74596;2,46837
789,69481;2,4702
787,64365;2,47513
785,59249;2,47796
783,54134;2,48207
781,49018;2,48968
779,43903;2,49308
777,38787;2,48844
775,33672;2,48072
773,28556;2,47659
771,23441;2,4753
769,18325;2,47368
767,1321;2,4708
765,08094;2,4679
763,02979;2,46998
760,97863;2,4771
758,92748;2,48178
756,87632;2,48354
754,82516;2,48419
752,77401;2,47917
750,72285;2,47226
748,6717;2,47268
746,62054;2,47565
744,56939;2,47124
742,51823;2,46657
740,46708;2,47081
738,41592;2,47473
736,36477;2,47079
734,31361;2,4674
732,26246;2,46916
730,2113;2,47238
728,16015;2,47696
726,10899;2,48328
724,05783;2,4865
722,00668;2,48774
719,95552;2,48915
717,90437;2,48851
715,85321;2,4877
713,80206;2,48866
711,7509;2,48739
709,69975;2,4812
707,64859;2,47364
705,59744;2,47267
703,54628;2,47766
701,49513;2,47898
699,44397;2,47529
697,39281;2,4723
695,34166;2,46943
693,2905;2,46317
691,23935;2,45718
689,18819;2,4539
687,13704;2,45206
685,08588;2,45343
683,03473;2,45915
680,98357;2,46687
678,93242;2,46465
676,88126;2,44436
674,83011;2,42209
672,77895;2,41149
670,7278;2,39947
668,67664;2,37764
666,62548;2,36602
664,57433;2,36974
662,52317;2,37612
660,47202;2,38148
658,42086;2,38414
656,36971;2,38316
654,31855;2,37949
652,2674;2,37562
650,21624;2,37548
648,16509;2,37947
646,11393;2,38508
644,06278;2,3926
642,01162;2,40229
639,96047;2,40564
637,90931;2,394
635,85815;2,3757
633,807;2,36889
631,75584;2,3778
629,70469;2,3862
627,65353;2,37871
625,60238;2,36237
623,55122;2,3473
621,50007;2,33443
619,44891;2,3221
617,39776;2,31408
615,3466;2,31172
613,29545;2,31066
611,24429;2,30738
609,19314;2,29797
607,14198;2,2853
605,09082;2,27885
603,03967;2,27891
600,98851;2,27697
598,93736;2,27434
596,8862;2,27561
594,83505;2,2757
592,78389;2,27453
590,73274;2,27854
588,68158;2,28358
586,63043;2,28273
584,57927;2,27772
582,52812;2,27423
580,47696;2,27574
578,42581;2,28203
576,37465;2,28845
574,32349;2,28995
572,27234;2,29607
570,22118;2,30855
568,17003;2,3096
566,11887;2,29526
564,06772;2,27823
562,01656;2,26616
559,96541;2,26341
557,91425;2,26835
555,8631;2,26999
553,81194;2,26529
551,76079;2,26399
549,70963;2,26832
547,65848;2,26665
545,60732;2,25643
543,55616;2,25216
541,50501;2,25501
539,45385;2,2495
537,4027;2,23624
535,35154;2,22836
533,30039;2,22447
531,24923;2,21859
529,19808;2,21755
527,14692;2,22888
525,09577;2,24113
523,04461;2,23568
520,99346;2,22179
518,9423;2,21736
516,89115;2,22222
514,83999;2,226
512,78883;2,22123
510,73768;2,21346
508,68652;2,21985
506,63537;2,23704
504,58421;2,23965
502,53306;2,23097
500,4819;2,2289
498,43075;2,22692
496,37959;2,21786
494,32844;2,20566
492,27728;2,1971
490,22613;2,19867
488,17497;2,20403
486,12382;2,19875
484,07266;2,19181
482,0215;2,20044
479,97035;2,20536
477,91919;2,18563
475,86804;2,16193
473,81688;2,16008
471,76573;2,17647
469,71457;2,18936
467,66342;2,18868
465,61226;2,18077
463,56111;2,17812
461,50995;2,18383
459,4588;2,18937
457,40764;2,18608
455,35649;2,1687
453,30533;2,14386
451,25417;2,12874
449,20302;2,12965
447,15186;2,13275
445,10071;2,12442
443,04955;2,11304
440,9984;2,12455
438,94724;2,15536
436,89609;2,15699
434,84493;2,12216
432,79378;2,09974
430,74262;2,10931
428,69147;2,13234
426,64031;2,14434
424,58916;2,13457
422,538;2,11062
420,48684;2,08887
418,43569;2,08681
416,38453;2,10019
414,33338;2,11416
412,28222;2,11471
410,23107;2,09373
408,17991;2,07411
406,12876;2,06706
404,0776;2,05977
402,02645;2,048
399,97529;2,02754
