3997,70175;1,68634
3995,6506;1,68693
3993,59944;1,68653
3991,54829;1,68606
3989,49713;1,68601
3987,44598;1,68659
3985,39482;1,68793
3983,34367;1,68859
3981,29251;1,68747
3979,24136;1,68642
3977,1902;1,68748
3975,13905;1,68978
3973,08789;1,69145
3971,03673;1,69228
3968,98558;1,69257
3966,93442;1,69254
3964,88327;1,69289
3962,83211;1,6937
3960,78096;1,69425
3958,7298;1,69494
3956,67865;1,69622
3954,62749;1,69706
3952,57634;1,69719
3950,52518;1,69731
3948,47403;1,69726
3946,42287;1,69706
3944,37172;1,69729
3942,32056;1,69776
3940,2694;1,69837
3938,21825;1,69877
3936,16709;1,69805
3934,11594;1,69636
3932,06478;1,69479
3930,01363;1,69403
3927,96247;1,69337
3925,91132;1,69131
3923,86016;1,68855
3921,80901;1,68754
3919,75785;1,68789
3917,7067;1,68701
3915,65554;1,68468
3913,60439;1,68264
3911,55323;1,6811
3909,50207;1,67984
3907,45092;1,67972
3905,39976;1,68038
3903,34861;1,67986
3901,29745;1,67767
3899,2463;1,67553
3897,19514;1,67508
3895,14399;1,67594
3893,09283;1,67584
3891,04168;1,67406
3888,99052;1,67353
3886,93937;1,67474
3884,88821;1,67462
3882,83706;1,67358
3880,7859;1,67314
3878,73474;1,67305
3876,68359;1,67339
3874,63243;1,67291
3872,58128;1,67179
3870,53012;1,67105
3868,47897;1,67014
3866,42781;1,67021
3864,37666;1,67107
3862,3255;1,67145
3860,27435;1,67152
3858,22319;1,67148
3856,17204;1,67091
3854,12088;1,66838
3852,06973;1,66522
3850,01857;1,66569
3847,96741;1,66858
3845,91626;1,67037
3843,8651;1,66966
3841,81395;1,66719
3839,76279;1,66493
3837,71164;1,66452
3835,66048;1,66584
3833,60933;1,66697
3831,55817;1,66695
3829,50702;1,66689
3827,45586;1,66707
3825,40471;1,66714
3823,35355;1,66751
3821,3024;1,66674
3819,25124;1,6657
3817,20008;1,66692
3815,14893;1,66833
3813,09777;1,66901
3811,04662;1,66996
3808,99546;1,67062
3806,94431;1,6701
3804,89315;1,66967
3802,842;1,66978
3800,79084;1,66878
3798,73969;1,66906
3796,68853;1,67184
3794,63738;1,67388
3792,58622;1,674
3790,53506;1,67393
3788,48391;1,67502
3786,43275;1,6765
3784,3816;1,6771
3782,33044;1,67731
3780,27929;1,67765
3778,22813;1,67788
3776,17698;1,67819
3774,12582;1,67835
3772,07467;1,67802
3770,02351;1,67728
3767,97236;1,67729
3765,9212;1,67874
3763,87005;1,68055
3761,81889;1,68156
3759,76773;1,68093
3757,71658;1,67997
3755,66542;1,68103
3753,61427;1,68263
3751,56311;1,68148
3749,51196;1,67881
3747,4608;1,6795
3745,40965;1,68329
3743,35849;1,68637
3741,30734;1,68889
3739,25618;1,69096
3737,20503;1,69059
3735,15387;1,6893
3733,10272;1,69079
3731,05156;1,69455
3729,0004;1,69807
3726,94925;1,7
3724,89809;1,70048
3722,84694;1,70167
3720,79578;1,70405
3718,74463;1,70599
3716,69347;1,70715
3714,64232;1,70841
3712,59116;1,70984
3710,54001;1,71153
3708,48885;1,71473
3706,4377;1,71957
3704,38654;1,72562
3702,33539;1,73288
3700,28423;1,74136
3698,23307;1,74995
3696,18192;1,75631
3694,13076;1,75931
3692,07961;1,75969
3690,02845;1,75827
3687,9773;1,75697
3685,92614;1,75775
3683,87499;1,75931
3681,82383;1,76021
3679,77268;1,76101
3677,72152;1,76336
3675,67037;1,76773
3673,61921;1,77414
3671,56806;1,78179
3669,5169;1,78807
3667,46574;1,79314
3665,41459;1,79932
3663,36343;1,80637
3661,31228;1,81286
3659,26112;1,81897
3657,20997;1,82532
3655,15881;1,83129
3653,10766;1,83657
3651,0565;1,84112
3649,00535;1,84635
3646,95419;1,85548
3644,90304;1,86693
3642,85188;1,87667
3640,80073;1,88275
3638,74957;1,88518
3636,69841;1,88529
3634,64726;1,88533
3632,5961;1,88731
3630,54495;1,89154
3628,49379;1,89681
3626,44264;1,90229
3624,39148;1,90715
3622,34033;1,91125
3620,28917;1,91621
3618,23802;1,92221
3616,18686;1,92704
3614,13571;1,92983
3612,08455;1,93263
3610,0334;1,93745
3607,98224;1,94282
3605,93108;1,94774
3603,87993;1,95338
3601,82877;1,95925
3599,77762;1,96405
3597,72646;1,96893
3595,67531;1,97497
3593,62415;1,98096
3591,573;1,98611
3589,52184;1,99106
3587,47069;1,99595
3585,41953;2,00042
3583,36838;2,00474
3581,31722;2,00953
3579,26607;2,01523
3577,21491;2,02155
3575,16375;2,02795
3573,1126;2,03384
3571,06144;2,03792
3569,01029;2,03938
3566,95913;2,03978
3564,90798;2,04185
3562,85682;2,04649
3560,80567;2,05238
3558,75451;2,05799
3556,70336;2,0632
3554,6522;2,06886
3552,60105;2,0756
3550,54989;2,08253
3548,49874;2,08812
3546,44758;2,09289
3544,39642;2,09781
3542,34527;2,10253
3540,29411;2,10751
3538,24296;2,11245
3536,1918;2,11501
3534,14065;2,11444
3532,08949;2,11262
3530,03834;2,11176
3527,98718;2,11333
3525,93603;2,1167
3523,88487;2,11917
3521,83372;2,11948
3519,78256;2,11887
3517,73141;2,11803
3515,68025;2,11699
3513,62909;2,1169
3511,57794;2,11791
3509,52678;2,1187
3507,47563;2,11982
3505,42447;2,12288
3503,37332;2,12789
3501,32216;2,13256
3499,27101;2,13443
3497,21985;2,13522
3495,1687;2,1369
3493,11754;2,13834
3491,06639;2,13999
3489,01523;2,14132
3486,96407;2,14115
3484,91292;2,14216
3482,86176;2,14491
3480,81061;2,14823
3478,75945;2,15207
3476,7083;2,15477
3474,65714;2,1553
3472,60599;2,15555
3470,55483;2,15696
3468,50368;2,15817
3466,45252;2,15908
3464,40137;2,16106
3462,35021;2,16241
3460,29906;2,16168
3458,2479;2,1619
3456,19674;2,16536
3454,14559;2,16868
3452,09443;2,16953
3450,04328;2,17086
3447,99212;2,17355
3445,94097;2,17618
3443,88981;2,17797
3441,83866;2,17861
3439,7875;2,17951
3437,73635;2,18086
3435,68519;2,18144
3433,63404;2,182
3431,58288;2,18322
3429,53173;2,185
3427,48057;2,18812
3425,42941;2,19123
3423,37826;2,19188
3421,3271;2,19223
3419,27595;2,19441
3417,22479;2,19676
3415,17364;2,19854
3413,12248;2,19856
3411,07133;2,19769
3409,02017;2,19878
3406,96902;2,19999
3404,91786;2,20065
3402,86671;2,20235
3400,81555;2,20442
3398,7644;2,20665
3396,71324;2,20724
3394,66208;2,20548
3392,61093;2,20449
3390,55977;2,20741
3388,50862;2,21129
3386,45746;2,2125
3384,40631;2,21254
3382,35515;2,21272
3380,304;2,2126
3378,25284;2,21314
3376,20169;2,21532
3374,15053;2,21775
3372,09938;2,21911
3370,04822;2,22065
3367,99707;2,22265
3365,94591;2,22381
3363,89475;2,22467
3361,8436;2,22622
3359,79244;2,22823
3357,74129;2,23056
3355,69013;2,23339
3353,63898;2,23544
3351,58782;2,23466
3349,53667;2,23197
3347,48551;2,23067
3345,43436;2,23273
3343,3832;2,23655
3341,33205;2,23962
3339,28089;2,24074
3337,22974;2,24038
3335,17858;2,24149
3333,12742;2,24482
3331,07627;2,24861
3329,02511;2,25315
3326,97396;2,25828
3324,9228;2,26073
3322,87165;2,26069
3320,82049;2,26145
3318,76934;2,26213
3316,71818;2,26203
3314,66703;2,26247
3312,61587;2,2623
3310,56472;2,26178
3308,51356;2,26361
3306,46241;2,26692
3304,41125;2,26888
3302,36009;2,26879
3300,30894;2,26702
3298,25778;2,26505
3296,20663;2,26596
3294,15547;2,26929
3292,10432;2,26912
3290,05316;2,26511
3288,00201;2,2635
3285,95085;2,26329
3283,8997;2,25985
3281,84854;2,25606
3279,79739;2,25581
3277,74623;2,25706
3275,69508;2,25706
3273,64392;2,25651
3271,59276;2,25549
3269,54161;2,25265
3267,49045;2,2483
3265,4393;2,24421
3263,38814;2,24129
3261,33699;2,23817
3259,28583;2,23455
3257,23468;2,23206
3255,18352;2,23107
3253,13237;2,22943
3251,08121;2,22575
3249,03006;2,22308
3246,9789;2,22293
3244,92775;2,22185
3242,87659;2,21872
3240,82543;2,21515
3238,77428;2,21047
3236,72312;2,20593
3234,67197;2,20539
3232,62081;2,20762
3230,56966;2,20829
3228,5185;2,20734
3226,46735;2,20737
3224,41619;2,20753
3222,36504;2,20398
3220,31388;2,19674
3218,26273;2,19073
3216,21157;2,1896
3214,16041;2,19072
3212,10926;2,1903
3210,0581;2,18991
3208,00695;2,19028
3205,95579;2,18947
3203,90464;2,18657
3201,85348;2,18275
3199,80233;2,18168
3197,75117;2,18267
3195,70002;2,18005
3193,64886;2,17424
3191,59771;2,17135
3189,54655;2,17145
3187,4954;2,16984
3185,44424;2,16619
3183,39308;2,16301
3181,34193;2,16154
3179,29077;2,1603
3177,23962;2,15744
3175,18846;2,15518
3173,13731;2,15447
3171,08615;2,15193
3169,035;2,14786
3166,98384;2,14533
3164,93269;2,14344
3162,88153;2,14005
3160,83038;2,13603
3158,77922;2,13373
3156,72807;2,13348
3154,67691;2,13335
3152,62575;2,13189
3150,5746;2,129
3148,52344;2,12565
3146,47229;2,1232
3144,42113;2,12201
3142,36998;2,12129
3140,31882;2,11958
3138,26767;2,1171
3136,21651;2,11546
3134,16536;2,11377
3132,1142;2,11089
3130,06305;2,10901
3128,01189;2,10874
3125,96074;2,10839
3123,90958;2,10821
3121,85842;2,10806
3119,80727;2,10677
3117,75611;2,10539
3115,70496;2,10601
3113,6538;2,1076
3111,60265;2,107
3109,55149;2,10418
3107,50034;2,10245
3105,44918;2,10379
3103,39803;2,1062
3101,34687;2,10693
3099,29572;2,10577
3097,24456;2,10447
3095,19341;2,1045
3093,14225;2,10574
3091,09109;2,10715
3089,03994;2,10765
3086,98878;2,1066
3084,93763;2,10477
3082,88647;2,10437
3080,83532;2,10623
3078,78416;2,10851
3076,73301;2,10949
3074,68185;2,10959
3072,6307;2,10908
3070,57954;2,10818
3068,52839;2,10827
3066,47723;2,10791
3064,42608;2,10477
3062,37492;2,10127
3060,32376;2,0996
3058,27261;2,09841
3056,22145;2,09691
3054,1703;2,09582
3052,11914;2,09554
3050,06799;2,09442
3048,01683;2,09075
3045,96568;2,08652
3043,91452;2,08413
3041,86337;2,08321
3039,81221;2,08251
3037,76106;2,08109
3035,7099;2,07938
3033,65875;2,07844
3031,60759;2,07744
3029,55643;2,07628
3027,50528;2,07653
3025,45412;2,07691
3023,40297;2,07426
3021,35181;2,06967
3019,30066;2,06668
3017,2495;2,06565
3015,19835;2,06552
3013,14719;2,06553
3011,09604;2,06463
3009,04488;2,06323
3006,99373;2,06294
3004,94257;2,06273
3002,89142;2,06079
3000,84026;2,0594
2998,7891;2,06089
2996,73795;2,06373
2994,68679;2,06593
2992,63564;2,06828
2990,58448;2,07192
2988,53333;2,07616
2986,48217;2,0792
2984,43102;2,0808
2982,37986;2,08341
2980,32871;2,08839
2978,27755;2,09513
2976,2264;2,10283
2974,17524;2,11027
2972,12409;2,11506
2970,07293;2,11721
2968,02177;2,11999
2965,97062;2,12407
2963,91946;2,12755
2961,86831;2,12828
2959,81715;2,12538
2957,766;2,12105
2955,71484;2,11728
2953,66369;2,11438
2951,61253;2,11212
2949,56138;2,10916
2947,51022;2,10619
2945,45907;2,10564
2943,40791;2,10664
2941,35675;2,10858
2939,3056;2,11125
2937,25444;2,11187
2935,20329;2,11003
2933,15213;2,10789
2931,10098;2,10645
2929,04982;2,10562
2926,99867;2,105
2924,94751;2,10288
2922,89636;2,09941
2920,8452;2,09716
2918,79405;2,0951
2916,74289;2,09158
2914,69174;2,08809
2912,64058;2,08465
2910,58942;2,08056
2908,53827;2,07733
2906,48711;2,07563
2904,43596;2,07382
2902,3848;2,07062
2900,33365;2,06683
2898,28249;2,06382
2896,23134;2,06181
2894,18018;2,06043
2892,12903;2,0595
2890,07787;2,05905
2888,02672;2,05967
2885,97556;2,06212
2883,92441;2,06526
2881,87325;2,06825
2879,82209;2,07186
2877,77094;2,07472
2875,71978;2,07545
2873,66863;2,0739
2871,61747;2,07008
2869,56632;2,06542
2867,51516;2,06144
2865,46401;2,05797
2863,41285;2,05404
2861,3617;2,0502
2859,31054;2,0467
2857,25939;2,04283
2855,20823;2,0396
2853,15708;2,03764
2851,10592;2,03568
2849,05476;2,03329
2847,00361;2,03092
2844,95245;2,02797
2842,9013;2,02456
2840,85014;2,02235
2838,79899;2,02187
2836,74783;2,02114
2834,69668;2,01756
2832,64552;2,01229
2830,59437;2,00842
2828,54321;2,00562
2826,49206;2,00262
2824,4409;2,00035
2822,38975;1,99931
2820,33859;1,99828
2818,28743;1,9967
2816,23628;1,99513
2814,18512;1,99348
2812,13397;1,99211
2810,08281;1,9913
2808,03166;1,99035
2805,9805;1,98924
2803,92935;1,98877
2801,87819;1,98783
2799,82704;1,98538
2797,77588;1,98303
2795,72473;1,98182
2793,67357;1,98096
2791,62242;1,97941
2789,57126;1,97764
2787,5201;1,9764
2785,46895;1,97543
2783,41779;1,97452
2781,36664;1,97286
2779,31548;1,97031
2777,26433;1,96855
2775,21317;1,96812
2773,16202;1,96745
2771,11086;1,9658
2769,05971;1,96445
2767,00855;1,9642
2764,9574;1,96353
2762,90624;1,96153
2760,85509;1,95974
2758,80393;1,95913
2756,75277;1,95882
2754,70162;1,95769
2752,65046;1,95616
2750,59931;1,95527
2748,54815;1,95451
2746,497;1,95359
2744,44584;1,95348
2742,39469;1,95347
2740,34353;1,9519
2738,29238;1,94962
2736,24122;1,9485
2734,19007;1,94843
2732,13891;1,94826
2730,08776;1,94779
2728,0366;1,9468
2725,98544;1,94488
2723,93429;1,94323
2721,88313;1,94273
2719,83198;1,94274
2717,78082;1,94288
2715,72967;1,94226
2713,67851;1,94072
2711,62736;1,93976
2709,5762;1,93931
2707,52505;1,93869
2705,47389;1,93834
2703,42274;1,93751
2701,37158;1,93593
2699,32043;1,93527
2697,26927;1,93577
2695,21811;1,9362
2693,16696;1,93588
2691,1158;1,93488
2689,06465;1,93399
2687,01349;1,93327
2684,96234;1,93245
2682,91118;1,93181
2680,86003;1,93181
2678,80887;1,93245
2676,75772;1,93237
2674,70656;1,93081
2672,65541;1,92961
2670,60425;1,92981
2668,55309;1,92994
2666,50194;1,92925
2664,45078;1,92905
2662,39963;1,92977
2660,34847;1,93038
2658,29732;1,93025
2656,24616;1,92983
2654,19501;1,9298
2652,14385;1,92996
2650,0927;1,93031
2648,04154;1,93101
2645,99039;1,93172
2643,93923;1,93217
2641,88808;1,93242
2639,83692;1,93285
2637,78576;1,93405
2635,73461;1,93572
2633,68345;1,93746
2631,6323;1,93979
2629,58114;1,94221
2627,52999;1,94392
2625,47883;1,94514
2623,42768;1,94643
2621,37652;1,94812
2619,32537;1,9494
2617,27421;1,94923
2615,22306;1,94905
2613,1719;1,95044
2611,12075;1,95218
2609,06959;1,95371
2607,01843;1,95535
2604,96728;1,95647
2602,91612;1,95635
2600,86497;1,95525
2598,81381;1,95448
2596,76266;1,9549
2594,7115;1,95581
2592,66035;1,95665
2590,60919;1,95763
2588,55804;1,95848
2586,50688;1,95887
2584,45573;1,95852
2582,40457;1,95793
2580,35342;1,95808
2578,30226;1,95854
2576,2511;1,9587
2574,19995;1,95828
2572,14879;1,95767
2570,09764;1,958
2568,04648;1,9592
2565,99533;1,96043
2563,94417;1,961
2561,89302;1,96024
2559,84186;1,95882
2557,79071;1,95865
2555,73955;1,95989
2553,6884;1,96086
2551,63724;1,96126
2549,58609;1,96192
2547,53493;1,96196
2545,48377;1,96149
2543,43262;1,96223
2541,38146;1,9644
2539,33031;1,9671
2537,27915;1,96903
2535,228;1,96983
2533,17684;1,97115
2531,12569;1,9742
2529,07453;1,9777
2527,02338;1,9799
2524,97222;1,98093
2522,92107;1,98165
2520,86991;1,98256
2518,81876;1,98382
2516,7676;1,98576
2514,71644;1,98764
2512,66529;1,98803
2510,61413;1,98708
2508,56298;1,98599
2506,51182;1,98542
2504,46067;1,98548
2502,40951;1,98582
2500,35836;1,98488
2498,3072;1,9821
2496,25605;1,97913
2494,20489;1,97612
2492,15374;1,97248
2490,10258;1,96904
2488,05143;1,96687
2486,00027;1,96548
2483,94911;1,96317
2481,89796;1,96026
2479,8468;1,95817
2477,79565;1,95624
2475,74449;1,95326
2473,69334;1,94985
2471,64218;1,94692
2469,59103;1,94484
2467,53987;1,94319
2465,48872;1,94101
2463,43756;1,93931
2461,38641;1,93858
2459,33525;1,93739
2457,2841;1,93564
2455,23294;1,93425
2453,18178;1,93361
2451,13063;1,9331
2449,07947;1,93218
2447,02832;1,93065
2444,97716;1,92872
2442,92601;1,92744
2440,87485;1,9271
2438,8237;1,92661
2436,77254;1,92534
2434,72139;1,92457
2432,67023;1,92446
2430,61908;1,92328
2428,56792;1,92175
2426,51677;1,92128
2424,46561;1,92084
2422,41445;1,91996
2420,3633;1,91947
2418,31214;1,91916
2416,26099;1,91849
2414,20983;1,91762
2412,15868;1,91686
2410,10752;1,9167
2408,05637;1,91687
2406,00521;1,91554
2403,95406;1,91312
2401,9029;1,91234
2399,85175;1,91302
2397,80059;1,91376
2395,74944;1,91396
2393,69828;1,91384
2391,64712;1,91397
2389,59597;1,91425
2387,54481;1,91422
2385,49366;1,91419
2383,4425;1,91425
2381,39135;1,91377
2379,34019;1,91292
2377,28904;1,91279
2375,23788;1,9142
2373,18673;1,9167
2371,13557;1,91819
2369,08442;1,91733
2367,03326;1,91575
2364,9821;1,91537
2362,93095;1,9166
2360,87979;1,91922
2358,82864;1,92093
2356,77748;1,91997
2354,72633;1,91791
2352,67517;1,91758
2350,62402;1,92009
2348,57286;1,92175
2346,52171;1,91938
2344,47055;1,91652
2342,4194;1,91713
2340,36824;1,91929
2338,31709;1,92026
2336,26593;1,91923
2334,21477;1,9164
2332,16362;1,9135
2330,11246;1,91344
2328,06131;1,91644
2326,01015;1,91986
2323,959;1,92197
2321,90784;1,92254
2319,85669;1,92197
2317,80553;1,92095
2315,75438;1,91979
2313,70322;1,91867
2311,65207;1,91825
2309,60091;1,91852
2307,54976;1,91865
2305,4986;1,91804
2303,44744;1,91666
2301,39629;1,91519
2299,34513;1,91443
2297,29398;1,91441
2295,24282;1,91474
2293,19167;1,91523
2291,14051;1,91557
2289,08936;1,91553
2287,0382;1,91542
2284,98705;1,91573
2282,93589;1,91655
2280,88474;1,91733
2278,83358;1,91757
2276,78243;1,91744
2274,73127;1,9172
2272,68011;1,91733
2270,62896;1,91821
2268,5778;1,91923
2266,52665;1,91962
2264,47549;1,91939
2262,42434;1,9191
2260,37318;1,91974
2258,32203;1,92149
2256,27087;1,92302
2254,21972;1,9235
2252,16856;1,92374
2250,11741;1,92434
2248,06625;1,92517
2246,0151;1,9261
2243,96394;1,92755
2241,91278;1,92895
2239,86163;1,92932
2237,81047;1,92875
2235,75932;1,92914
2233,70816;1,9314
2231,65701;1,93359
2229,60585;1,93468
2227,5547;1,93531
2225,50354;1,9352
2223,45239;1,93472
2221,40123;1,93489
2219,35008;1,93562
2217,29892;1,93716
2215,24777;1,93911
2213,19661;1,94017
2211,14545;1,94035
2209,0943;1,94065
2207,04314;1,94137
2204,99199;1,94165
2202,94083;1,94174
2200,88968;1,94309
2198,83852;1,94466
2196,78737;1,94466
2194,73621;1,94404
2192,68506;1,94471
2190,6339;1,94669
2188,58275;1,94774
2186,53159;1,94727
2184,48044;1,9471
2182,42928;1,94794
2180,37812;1,94895
2178,32697;1,95024
2176,27581;1,9525
2174,22466;1,95389
2172,1735;1,95346
2170,12235;1,95371
2168,07119;1,95563
2166,02004;1,95762
2163,96888;1,95907
2161,91773;1,96034
2159,86657;1,96193
2157,81542;1,96474
2155,76426;1,96785
2153,71311;1,96972
2151,66195;1,97154
2149,61079;1,97415
2147,55964;1,97565
2145,50848;1,97581
2143,45733;1,9764
2141,40617;1,97757
2139,35502;1,97847
2137,30386;1,9789
2135,25271;1,97858
2133,20155;1,97787
2131,1504;1,97761
2129,09924;1,97675
2127,04809;1,97441
2124,99693;1,97188
2122,94578;1,97013
2120,89462;1,96838
2118,84346;1,96686
2116,79231;1,96644
2114,74115;1,96578
2112,69;1,96378
2110,63884;1,96205
2108,58769;1,96225
2106,53653;1,96345
2104,48538;1,96426
2102,43422;1,96445
2100,38307;1,96414
2098,33191;1,96384
2096,28076;1,9635
2094,2296;1,96285
2092,17844;1,96282
2090,12729;1,96352
2088,07613;1,96418
2086,02498;1,96431
2083,97382;1,96402
2081,92267;1,96446
2079,87151;1,96604
2077,82036;1,96722
2075,7692;1,96737
2073,71805;1,96743
2071,66689;1,9682
2069,61574;1,96958
2067,56458;1,97013
2065,51343;1,96928
2063,46227;1,96869
2061,41111;1,96908
2059,35996;1,96959
2057,3088;1,9702
2055,25765;1,97093
2053,20649;1,97103
2051,15534;1,97075
2049,10418;1,97137
2047,05303;1,97283
2045,00187;1,97413
2042,95072;1,97483
2040,89956;1,97517
2038,84841;1,97537
2036,79725;1,97537
2034,7461;1,97571
2032,69494;1,97668
2030,64378;1,97743
2028,59263;1,97731
2026,54147;1,97748
2024,49032;1,97909
2022,43916;1,98072
2020,38801;1,98107
2018,33685;1,98092
2016,2857;1,98107
2014,23454;1,98115
2012,18339;1,981
2010,13223;1,98145
2008,08108;1,98278
2006,02992;1,98381
2003,97877;1,98398
2001,92761;1,98403
1999,87645;1,98392
1997,8253;1,98344
1995,77414;1,98348
1993,72299;1,98416
1991,67183;1,98506
1989,62068;1,98626
1987,56952;1,98718
1985,51837;1,98755
1983,46721;1,98798
1981,41606;1,98833
1979,3649;1,98872
1977,31375;1,98965
1975,26259;1,99064
1973,21144;1,99162
1971,16028;1,99256
1969,10912;1,99313
1967,05797;1,99416
1965,00681;1,99697
1962,95566;2,00034
1960,9045;2,00196
1958,85335;2,00204
1956,80219;2,00154
1954,75104;2,00048
1952,69988;1,99946
1950,64873;1,99948
1948,59757;2,00023
1946,54642;2,00056
1944,49526;2,00014
1942,44411;2,00005
1940,39295;2,00114
1938,34179;2,00273
1936,29064;2,00413
1934,23948;2,00494
1932,18833;2,00544
1930,13717;2,00649
1928,08602;2,00741
1926,03486;2,00753
1923,98371;2,00765
1921,93255;2,00836
1919,8814;2,00908
1917,83024;2,00908
1915,77909;2,00965
1913,72793;2,01176
1911,67678;2,0135
1909,62562;2,01343
1907,57446;2,01354
1905,52331;2,01564
1903,47215;2,01781
1901,421;2,01864
1899,36984;2,0192
1897,31869;2,01991
1895,26753;2,02084
1893,21638;2,02244
1891,16522;2,02382
1889,11407;2,02441
1887,06291;2,02555
1885,01176;2,02734
1882,9606;2,02888
1880,90945;2,02991
1878,85829;2,03045
1876,80713;2,03109
1874,75598;2,03243
1872,70482;2,03414
1870,65367;2,03539
1868,60251;2,03612
1866,55136;2,03775
1864,5002;2,04086
1862,44905;2,04391
1860,39789;2,04601
1858,34674;2,04745
1856,29558;2,04845
1854,24443;2,0493
1852,19327;2,05054
1850,14212;2,0518
1848,09096;2,05249
1846,0398;2,05353
1843,98865;2,05592
1841,93749;2,05905
1839,88634;2,06149
1837,83518;2,06268
1835,78403;2,06343
1833,73287;2,06459
1831,68172;2,06606
1829,63056;2,06763
1827,57941;2,0699
1825,52825;2,0727
1823,4771;2,07581
1821,42594;2,07958
1819,37478;2,08293
1817,32363;2,08521
1815,27247;2,08753
1813,22132;2,09061
1811,17016;2,09462
1809,11901;2,10005
1807,06785;2,10666
1805,0167;2,11359
1802,96554;2,12046
1800,91439;2,12754
1798,86323;2,13473
1796,81208;2,14047
1794,76092;2,14362
1792,70977;2,14471
1790,65861;2,14461
1788,60745;2,14339
1786,5563;2,14019
1784,50514;2,13547
1782,45399;2,13132
1780,40283;2,12921
1778,35168;2,12925
1776,30052;2,12949
1774,24937;2,12757
1772,19821;2,12477
1770,14706;2,12591
1768,0959;2,13127
1766,04475;2,13656
1763,99359;2,13915
1761,94244;2,13997
1759,89128;2,14177
1757,84012;2,14498
1755,78897;2,1487
1753,73781;2,15288
1751,68666;2,15652
1749,6355;2,15897
1747,58435;2,16173
1745,53319;2,16543
1743,48204;2,16913
1741,43088;2,17269
1739,37973;2,17641
1737,32857;2,18024
1735,27742;2,18322
1733,22626;2,18497
1731,17511;2,18797
1729,12395;2,19238
1727,07279;2,19574
1725,02164;2,19819
1722,97048;2,20198
1720,91933;2,20746
1718,86817;2,21255
1716,81702;2,21725
1714,76586;2,22492
1712,71471;2,2362
1710,66355;2,2492
1708,6124;2,26318
1706,56124;2,27934
1704,51009;2,29685
1702,45893;2,31349
1700,40778;2,33288
1698,35662;2,35646
1696,30546;2,37946
1694,25431;2,39993
1692,20315;2,41786
1690,152;2,4365
1688,10084;2,45575
1686,04969;2,4704
1683,99853;2,47988
1681,94738;2,48959
1679,89622;2,5001
1677,84507;2,50869
1675,79391;2,51432
1673,74276;2,5174
1671,6916;2,52061
1669,64045;2,52601
1667,58929;2,53203
1665,53813;2,53701
1663,48698;2,54058
1661,43582;2,54237
1659,38467;2,54402
1657,33351;2,54588
1655,28236;2,54533
1653,2312;2,54143
1651,18005;2,53858
1649,12889;2,53575
1647,07774;2,53037
1645,02658;2,52908
1642,97543;2,53123
1640,92427;2,52858
1638,87312;2,52184
1636,82196;2,51463
1634,7708;2,50597
1632,71965;2,49726
1630,66849;2,48846
1628,61734;2,47763
1626,56618;2,46568
1624,51503;2,45255
1622,46387;2,43896
1620,41272;2,42838
1618,36156;2,41868
1616,31041;2,40773
1614,25925;2,40027
1612,2081;2,3957
1610,15694;2,38903
1608,10579;2,38124
1606,05463;2,37584
1604,00347;2,37229
1601,95232;2,36954
1599,90116;2,36816
1597,85001;2,3673
1595,79885;2,36562
1593,7477;2,36438
1591,69654;2,36554
1589,64539;2,36895
1587,59423;2,3732
1585,54308;2,3769
1583,49192;2,37977
1581,44077;2,38291
1579,38961;2,38626
1577,33846;2,38864
1575,2873;2,39229
1573,23614;2,3984
1571,18499;2,40144
1569,13383;2,40028
1567,08268;2,40144
1565,03152;2,40648
1562,98037;2,41117
1560,92921;2,41176
1558,87806;2,40758
1556,8269;2,40354
1554,77575;2,4021
1552,72459;2,40158
1550,67344;2,40016
1548,62228;2,39777
1546,57113;2,3965
1544,51997;2,39622
1542,46881;2,39465
1540,41766;2,39041
1538,3665;2,38689
1536,31535;2,38695
1534,26419;2,38651
1532,21304;2,38238
1530,16188;2,37642
1528,11073;2,37095
1526,05957;2,36766
1524,00842;2,36625
1521,95726;2,36413
1519,90611;2,36333
1517,85495;2,36627
1515,80379;2,36853
1513,75264;2,36638
1511,70148;2,36038
1509,65033;2,35199
1507,59917;2,34507
1505,54802;2,34436
1503,49686;2,34591
1501,44571;2,34516
1499,39455;2,34353
1497,3434;2,34411
1495,29224;2,34711
1493,24109;2,34898
1491,18993;2,3481
1489,13878;2,34769
1487,08762;2,35073
1485,03646;2,35633
1482,98531;2,36366
1480,93415;2,37183
1478,883;2,37854
1476,83184;2,38269
1474,78069;2,38619
1472,72953;2,39325
1470,67838;2,40395
1468,62722;2,41289
1466,57607;2,41815
1464,52491;2,42019
1462,47376;2,41971
1460,4226;2,41877
1458,37145;2,41915
1456,32029;2,42209
1454,26913;2,42836
1452,21798;2,43584
1450,16682;2,44072
1448,11567;2,44196
1446,06451;2,44209
1444,01336;2,44266
1441,9622;2,44377
1439,91105;2,44604
1437,85989;2,44792
1435,80874;2,44696
1433,75758;2,44553
1431,70643;2,44602
1429,65527;2,4466
1427,60412;2,44537
1425,55296;2,4417
1423,5018;2,43702
1421,45065;2,43344
1419,39949;2,42932
1417,34834;2,42468
1415,29718;2,42295
1413,24603;2,42338
1411,19487;2,42234
1409,14372;2,41894
1407,09256;2,41667
1405,04141;2,4178
1402,99025;2,4206
1400,9391;2,42232
1398,88794;2,42258
1396,83679;2,42402
1394,78563;2,42765
1392,73447;2,43011
1390,68332;2,42929
1388,63216;2,42805
1386,58101;2,42968
1384,52985;2,43157
1382,4787;2,42977
1380,42754;2,42563
1378,37639;2,42324
1376,32523;2,42393
1374,27408;2,42541
1372,22292;2,42577
1370,17177;2,42508
1368,12061;2,42334
1366,06946;2,42151
1364,0183;2,42076
1361,96714;2,42023
1359,91599;2,41886
1357,86483;2,4174
1355,81368;2,41686
1353,76252;2,41639
1351,71137;2,4145
1349,66021;2,41179
1347,60906;2,40922
1345,5579;2,4075
1343,50675;2,40687
1341,45559;2,40512
1339,40444;2,40046
1337,35328;2,39593
1335,30213;2,39479
1333,25097;2,39583
1331,19981;2,39811
1329,14866;2,40084
1327,0975;2,40129
1325,04635;2,39938
1322,99519;2,39751
1320,94404;2,39651
1318,89288;2,3957
1316,84173;2,39465
1314,79057;2,39317
1312,73942;2,39111
1310,68826;2,38894
1308,63711;2,38661
1306,58595;2,38334
1304,5348;2,38039
1302,48364;2,37952
1300,43248;2,37998
1298,38133;2,38015
1296,33017;2,37911
1294,27902;2,37803
1292,22786;2,37869
1290,17671;2,37894
1288,12555;2,37553
1286,0744;2,3717
1284,02324;2,37288
1281,97209;2,37605
1279,92093;2,37548
1277,86978;2,37295
1275,81862;2,37173
1273,76747;2,37099
1271,71631;2,37045
1269,66515;2,37157
1267,614;2,37386
1265,56284;2,37567
1263,51169;2,37634
1261,46053;2,37562
1259,40938;2,37441
1257,35822;2,37459
1255,30707;2,37699
1253,25591;2,3792
1251,20476;2,3788
1249,1536;2,37771
1247,10245;2,37958
1245,05129;2,3844
1243,00013;2,38759
1240,94898;2,38622
1238,89782;2,38302
1236,84667;2,38182
1234,79551;2,38162
1232,74436;2,38116
1230,6932;2,38261
1228,64205;2,38433
1226,59089;2,38362
1224,53974;2,38251
1222,48858;2,38218
1220,43743;2,38065
1218,38627;2,37693
1216,33512;2,37207
1214,28396;2,36829
1212,2328;2,36784
1210,18165;2,36891
1208,13049;2,36942
1206,07934;2,37148
1204,02818;2,3746
1201,97703;2,3755
1199,92587;2,37424
1197,87472;2,37395
1195,82356;2,37439
1193,77241;2,37469
1191,72125;2,37577
1189,6701;2,37577
1187,61894;2,37472
1185,56779;2,37507
1183,51663;2,37646
1181,46547;2,38005
1179,41432;2,38708
1177,36316;2,39267
1175,31201;2,39383
1173,26085;2,39372
1171,2097;2,39393
1169,15854;2,39417
1167,10739;2,39505
1165,05623;2,3969
1163,00508;2,39933
1160,95392;2,40161
1158,90277;2,40351
1156,85161;2,4039
1154,80046;2,40362
1152,7493;2,40519
1150,69814;2,4055
1148,64699;2,40197
1146,59583;2,39901
1144,54468;2,39993
1142,49352;2,40238
1140,44237;2,40284
1138,39121;2,40062
1136,34006;2,39917
1134,2889;2,40122
1132,23775;2,40401
1130,18659;2,40544
1128,13544;2,40543
1126,08428;2,40459
1124,03313;2,40695
1121,98197;2,41103
1119,93081;2,41138
1117,87966;2,4092
1115,8285;2,40804
1113,77735;2,40905
1111,72619;2,41139
1109,67504;2,41297
1107,62388;2,41264
1105,57273;2,4127
1103,52157;2,41555
1101,47042;2,41661
1099,41926;2,41448
1097,36811;2,41389
1095,31695;2,41596
1093,2658;2,42053
1091,21464;2,42539
1089,16348;2,42742
1087,11233;2,428
1085,06117;2,43147
1083,01002;2,43473
1080,95886;2,43133
1078,90771;2,42755
1076,85655;2,42926
1074,8054;2,43225
1072,75424;2,43249
1070,70309;2,42956
1068,65193;2,42682
1066,60078;2,42726
1064,54962;2,42975
1062,49847;2,4317
1060,44731;2,43199
1058,39615;2,43137
1056,345;2,43218
1054,29384;2,43356
1052,24269;2,43271
1050,19153;2,43234
1048,14038;2,43423
1046,08922;2,43573
1044,03807;2,43512
1041,98691;2,433
1039,93576;2,43097
1037,8846;2,42906
1035,83345;2,42743
1033,78229;2,42585
1031,73114;2,42467
1029,67998;2,42451
1027,62882;2,42326
1025,57767;2,42154
1023,52651;2,42002
1021,47536;2,41975
1019,4242;2,42435
1017,37305;2,42838
1015,32189;2,42699
1013,27074;2,42616
1011,21958;2,4279
1009,16843;2,4257
1007,11727;2,41944
1005,06612;2,41708
1003,01496;2,41961
1000,96381;2,42374
998,91265;2,42637
996,86149;2,42411
994,81034;2,41909
992,75918;2,41562
990,70803;2,41487
988,65687;2,41579
986,60572;2,41644
984,55456;2,41395
982,50341;2,40962
980,45225;2,40802
978,4011;2,40799
976,34994;2,40787
974,29879;2,40751
972,24763;2,40588
970,19647;2,40574
968,14532;2,40785
966,09416;2,409
964,04301;2,40688
961,99185;2,40154
959,9407;2,39805
957,88954;2,40018
955,83839;2,40625
953,78723;2,41179
951,73608;2,41162
949,68492;2,40743
947,63377;2,40617
945,58261;2,40671
943,53146;2,40467
941,4803;2,40604
939,42914;2,41148
937,37799;2,41146
935,32683;2,40773
933,27568;2,40908
931,22452;2,41472
929,17337;2,4192
927,12221;2,4202
925,07106;2,4182
923,0199;2,41713
920,96875;2,41643
918,91759;2,41517
916,86644;2,41663
914,81528;2,41647
912,76413;2,41051
910,71297;2,40631
908,66181;2,40948
906,61066;2,41445
904,5595;2,4172
902,50835;2,41799
900,45719;2,41554
898,40604;2,41029
896,35488;2,40395
894,30373;2,39742
892,25257;2,38819
890,20142;2,37293
888,15026;2,35932
886,09911;2,36072
884,04795;2,3764
881,9968;2,38939
879,94564;2,38308
877,89448;2,3611
875,84333;2,33923
873,79217;2,32785
871,74102;2,33786
869,68986;2,37578
867,63871;2,425
865,58755;2,45694
863,5364;2,46613
861,48524;2,46824
859,43409;2,4702
857,38293;2,46738
855,33178;2,46391
853,28062;2,46987
851,22947;2,48493
849,17831;2,4987
847,12715;2,50066
845,076;2,49274
843,02484;2,48338
840,97369;2,47577
838,92253;2,47285
836,87138;2,47301
834,82022;2,4725
832,76907;2,47425
830,71791;2,47899
828,66676;2,47978
826,6156;2,47667
824,56445;2,48031
822,51329;2,48617
820,46214;2,48489
818,41098;2,4874
816,35982;2,49735
814,30867;2,50015
812,25751;2,49463
810,20636;2,49403
808,1552;2,50256
806,10405;2,51547
804,05289;2,51854
802,00174;2,50743
799,95058;2,50289
797,89943;2,51091
795,84827;2,52297
793,79712;2,5374
791,74596;2,5427
789,69481;2,53843
787,64365;2,53919
785,59249;2,54265
783,54134;2,54609
781,49018;2,5522
779,43903;2,55188
777,38787;2,54484
775,33672;2,54502
773,28556;2,54935
771,23441;2,54809
769,18325;2,54714
767,1321;2,55451
765,08094;2,56495
763,02979;2,5688
760,97863;2,56781
758,92748;2,56559
756,87632;2,55896
754,82516;2,5495
752,77401;2,54422
750,72285;2,54702
748,6717;2,55597
746,62054;2,5616
744,56939;2,56092
742,51823;2,5651
740,46708;2,57793
738,41592;2,59422
736,36477;2,59718
734,31361;2,58865
732,26246;2,5949
730,2113;2,61145
728,16015;2,61376
726,10899;2,60734
724,05783;2,6176
722,00668;2,64582
719,95552;2,67526
717,90437;2,68464
715,85321;2,66847
713,80206;2,64996
711,7509;2,6508
709,69975;2,66573
707,64859;2,67772
705,59744;2,68184
703,54628;2,68408
701,49513;2,68547
699,44397;2,68537
697,39281;2,6884
695,34166;2,68948
693,2905;2,6771
691,23935;2,6585
689,18819;2,65015
687,13704;2,65885
685,08588;2,67311
683,03473;2,67006
680,98357;2,65457
678,93242;2,65271
676,88126;2,66181
674,83011;2,66586
672,77895;2,66756
670,7278;2,67285
668,67664;2,68525
666,62548;2,70847
664,57433;2,73088
662,52317;2,7435
660,47202;2,74652
658,42086;2,74646
656,36971;2,74668
654,31855;2,74444
652,2674;2,74267
650,21624;2,74308
648,16509;2,75146
646,11393;2,77471
644,06278;2,79714
642,01162;2,79605
639,96047;2,7876
637,90931;2,8043
635,85815;2,83099
633,807;2,83405
631,75584;2,82627
629,70469;2,83678
627,65353;2,8702
625,60238;2,90756
623,55122;2,93834
621,50007;2,96256
619,44891;2,95154
617,39776;2,9191
615,3466;2,93476
613,29545;2,97114
611,24429;2,97058
609,19314;2,94977
607,14198;2,96048
605,09082;3,01291
603,03967;3,03439
600,98851;3,01629
598,93736;3,03775
596,8862;3,08944
594,83505;3,09095
592,78389;3,04159
590,73274;3,02152
588,68158;3,08384
586,63043;3,1843
584,57927;3,23889
582,52812;3,24721
580,47696;3,22131
578,42581;3,16221
576,37465;3,13452
574,32349;3,15524
572,27234;3,14648
570,22118;3,09246
568,17003;3,05726
566,11887;3,06026
564,06772;3,05037
562,01656;2,99699
559,96541;2,94622
557,91425;2,91021
555,8631;2,83933
553,81194;2,72406
551,76079;2,59756
549,70963;2,49308
547,65848;2,41201
545,60732;2,34261
543,55616;2,28258
541,50501;2,24025
539,45385;2,21641
537,4027;2,19874
535,35154;2,17969
533,30039;2,1636
531,24923;2,1545
529,19808;2,14953
527,14692;2,14679
525,09577;2,15501
523,04461;2,17792
520,99346;2,19916
518,9423;2,20472
516,89115;2,20408
514,83999;2,20881
512,78883;2,21473
510,73768;2,2159
508,68652;2,21324
506,63537;2,20847
504,58421;2,19838
502,53306;2,17981
500,4819;2,1644
498,43075;2,16555
496,37959;2,17393
494,32844;2,17655
492,27728;2,17753
490,22613;2,18201
488,17497;2,18163
486,12382;2,17384
484,07266;2,16772
482,0215;2,16119
479,97035;2,14277
477,91919;2,11709
475,86804;2,09845
473,81688;2,08242
471,76573;2,05912
469,71457;2,03094
467,66342;2,00432
465,61226;1,98575
463,56111;1,96968
461,50995;1,94916
459,4588;1,92856
457,40764;1,91038
455,35649;1,89839
453,30533;1,89537
451,25417;1,89517
449,20302;1,89612
447,15186;1,90184
445,10071;1,90916
443,04955;1,91096
440,9984;1,90687
438,94724;1,90451
436,89609;1,90759
434,84493;1,91496
432,79378;1,92431
430,74262;1,92602
428,69147;1,91043
426,64031;1,88847
424,58916;1,88489
422,538;1,90585
420,48684;1,93514
418,43569;1,96236
416,38453;1,98637
414,33338;2,00563
412,28222;2,01283
410,23107;2,00283
408,17991;1,98375
406,12876;1,96723
404,0776;1,9616
402,02645;1,965
399,97529;1,96565
