3997,70175;1,78552
3995,6506;1,78789
3993,59944;1,78961
3991,54829;1,78973
3989,49713;1,78899
3987,44598;1,78863
3985,39482;1,78894
3983,34367;1,78982
3981,29251;1,79168
3979,24136;1,79439
3977,1902;1,7966
3975,13905;1,79732
3973,08789;1,79709
3971,03673;1,7973
3968,98558;1,79832
3966,93442;1,79979
3964,88327;1,80183
3962,83211;1,80442
3960,78096;1,80729
3958,7298;1,80961
3956,67865;1,81088
3954,62749;1,81186
3952,57634;1,81382
3950,52518;1,81688
3948,47403;1,81925
3946,42287;1,8192
3944,37172;1,81679
3942,32056;1,81434
3940,2694;1,81417
3938,21825;1,81527
3936,16709;1,8153
3934,11594;1,81337
3932,06478;1,81026
3930,01363;1,80759
3927,96247;1,80578
3925,91132;1,80273
3923,86016;1,79764
3921,80901;1,79294
3919,75785;1,79016
3917,7067;1,78818
3915,65554;1,78578
3913,60439;1,78299
3911,55323;1,78039
3909,50207;1,7788
3907,45092;1,7781
3905,39976;1,77684
3903,34861;1,77435
3901,29745;1,77109
3899,2463;1,7674
3897,19514;1,76511
3895,14399;1,76524
3893,09283;1,76581
3891,04168;1,76581
3888,99052;1,76674
3886,93937;1,76688
3884,88821;1,76477
3882,83706;1,76288
3880,7859;1,76175
3878,73474;1,76162
3876,68359;1,76286
3874,63243;1,76391
3872,58128;1,76358
3870,53012;1,76142
3868,47897;1,76018
3866,42781;1,76106
3864,37666;1,76123
3862,3255;1,75986
3860,27435;1,7588
3858,22319;1,75923
3856,17204;1,75931
3854,12088;1,75654
3852,06973;1,75359
3850,01857;1,75314
3847,96741;1,75329
3845,91626;1,7525
3843,8651;1,75056
3841,81395;1,74823
3839,76279;1,74625
3837,71164;1,74529
3835,66048;1,746
3833,60933;1,74692
3831,55817;1,74653
3829,50702;1,74602
3827,45586;1,74641
3825,40471;1,7477
3823,35355;1,74872
3821,3024;1,74855
3819,25124;1,74956
3817,20008;1,75102
3815,14893;1,75052
3813,09777;1,74929
3811,04662;1,74896
3808,99546;1,74898
3806,94431;1,74853
3804,89315;1,7492
3802,842;1,75
3800,79084;1,74978
3798,73969;1,75041
3796,68853;1,75174
3794,63738;1,75339
3792,58622;1,75511
3790,53506;1,75673
3788,48391;1,75821
3786,43275;1,759
3784,3816;1,75949
3782,33044;1,76072
3780,27929;1,7615
3778,22813;1,76106
3776,17698;1,76102
3774,12582;1,76241
3772,07467;1,76447
3770,02351;1,76637
3767,97236;1,76828
3765,9212;1,76917
3763,87005;1,76956
3761,81889;1,77103
3759,76773;1,7728
3757,71658;1,77438
3755,66542;1,77743
3753,61427;1,78146
3751,56311;1,78304
3749,51196;1,78271
3747,4608;1,78449
3745,40965;1,78763
3743,35849;1,79132
3741,30734;1,79505
3739,25618;1,7978
3737,20503;1,80053
3735,15387;1,80346
3733,10272;1,80507
3731,05156;1,80702
3729,0004;1,81133
3726,94925;1,81591
3724,89809;1,81925
3722,84694;1,82213
3720,79578;1,82464
3718,74463;1,82634
3716,69347;1,82862
3714,64232;1,83238
3712,59116;1,83715
3710,54001;1,84303
3708,48885;1,85017
3706,4377;1,85892
3704,38654;1,87077
3702,33539;1,8861
3700,28423;1,90348
3698,23307;1,92055
3696,18192;1,93544
3694,13076;1,94726
3692,07961;1,95483
3690,02845;1,95639
3687,9773;1,95456
3685,92614;1,95559
3683,87499;1,96056
3681,82383;1,96836
3679,77268;1,97875
3677,72152;1,99145
3675,67037;2,00504
3673,61921;2,01839
3671,56806;2,03082
3669,5169;2,04279
3667,46574;2,05512
3665,41459;2,06816
3663,36343;2,08217
3661,31228;2,0961
3659,26112;2,10951
3657,20997;2,12278
3655,15881;2,13578
3653,10766;2,14819
3651,0565;2,16234
3649,00535;2,18228
3646,95419;2,20565
3644,90304;2,22604
3642,85188;2,23855
3640,80073;2,24249
3638,74957;2,24379
3636,69841;2,24881
3634,64726;2,25759
3632,5961;2,26825
3630,54495;2,27905
3628,49379;2,28736
3626,44264;2,2941
3624,39148;2,30152
3622,34033;2,30913
3620,28917;2,31557
3618,23802;2,32191
3616,18686;2,32965
3614,13571;2,33624
3612,08455;2,34014
3610,0334;2,3443
3607,98224;2,35238
3605,93108;2,36509
3603,87993;2,37832
3601,82877;2,38816
3599,77762;2,39493
3597,72646;2,40164
3595,67531;2,41096
3593,62415;2,42231
3591,573;2,43344
3589,52184;2,44243
3587,47069;2,44596
3585,41953;2,44576
3583,36838;2,44748
3581,31722;2,451
3579,26607;2,45432
3577,21491;2,45716
3575,16375;2,46071
3573,1126;2,46932
3571,06144;2,48392
3569,01029;2,4958
3566,95913;2,49832
3564,90798;2,49909
3562,85682;2,50685
3560,80567;2,51576
3558,75451;2,51751
3556,70336;2,5165
3554,6522;2,52051
3552,60105;2,52685
3550,54989;2,52826
3548,49874;2,52608
3546,44758;2,52535
3544,39642;2,52754
3542,34527;2,53221
3540,29411;2,53974
3538,24296;2,54939
3536,1918;2,55618
3534,14065;2,55676
3532,08949;2,55325
3530,03834;2,55042
3527,98718;2,55318
3525,93603;2,55803
3523,88487;2,55881
3521,83372;2,56252
3519,78256;2,57496
3517,73141;2,5866
3515,68025;2,58736
3513,62909;2,58336
3511,57794;2,58724
3509,52678;2,59696
3507,47563;2,60326
3505,42447;2,60627
3503,37332;2,60507
3501,32216;2,5977
3499,27101;2,59367
3497,21985;2,59721
3495,1687;2,60122
3493,11754;2,60421
3491,06639;2,61031
3489,01523;2,61585
3486,96407;2,61562
3484,91292;2,6133
3482,86176;2,60998
3480,81061;2,60429
3478,75945;2,60256
3476,7083;2,60498
3474,65714;2,60517
3472,60599;2,60861
3470,55483;2,61737
3468,50368;2,61873
3466,45252;2,61374
3464,40137;2,61502
3462,35021;2,62031
3460,29906;2,6234
3458,2479;2,62667
3456,19674;2,62742
3454,14559;2,62257
3452,09443;2,61857
3450,04328;2,62157
3447,99212;2,62936
3445,94097;2,63391
3443,88981;2,63389
3441,83866;2,63732
3439,7875;2,64444
3437,73635;2,64792
3435,68519;2,64416
3433,63404;2,63321
3431,58288;2,62372
3429,53173;2,62515
3427,48057;2,63271
3425,42941;2,63701
3423,37826;2,63943
3421,3271;2,64739
3419,27595;2,6593
3417,22479;2,66136
3415,17364;2,65184
3413,12248;2,64519
3411,07133;2,64288
3409,02017;2,64219
3406,96902;2,65071
3404,91786;2,66114
3402,86671;2,65926
3400,81555;2,65187
3398,7644;2,64877
3396,71324;2,64845
3394,66208;2,6482
3392,61093;2,64527
3390,55977;2,6411
3388,50862;2,63829
3386,45746;2,6371
3384,40631;2,64066
3382,35515;2,65002
3380,304;2,65971
3378,25284;2,66382
3376,20169;2,66055
3374,15053;2,6522
3372,09938;2,64516
3370,04822;2,64696
3367,99707;2,65712
3365,94591;2,66502
3363,89475;2,66357
3361,8436;2,65734
3359,79244;2,65201
3357,74129;2,65127
3355,69013;2,65721
3353,63898;2,66582
3351,58782;2,67049
3349,53667;2,6704
3347,48551;2,67218
3345,43436;2,67381
3343,3832;2,66849
3341,33205;2,66549
3339,28089;2,66902
3337,22974;2,66631
3335,17858;2,65573
3333,12742;2,65113
3331,07627;2,65544
3329,02511;2,66268
3326,97396;2,6683
3324,9228;2,66843
3322,87165;2,66971
3320,82049;2,67194
3318,76934;2,66689
3316,71818;2,66324
3314,66703;2,66679
3312,61587;2,67026
3310,56472;2,66946
3308,51356;2,66653
3306,46241;2,66497
3304,41125;2,66474
3302,36009;2,66195
3300,30894;2,65866
3298,25778;2,65812
3296,20663;2,65685
3294,15547;2,65443
3292,10432;2,65516
3290,05316;2,66141
3288,00201;2,6678
3285,95085;2,66723
3283,8997;2,66386
3281,84854;2,66559
3279,79739;2,66946
3277,74623;2,66612
3275,69508;2,65721
3273,64392;2,65503
3271,59276;2,66079
3269,54161;2,66314
3267,49045;2,65893
3265,4393;2,65581
3263,38814;2,66118
3261,33699;2,66896
3259,28583;2,66589
3257,23468;2,6567
3255,18352;2,65098
3253,13237;2,64583
3251,08121;2,64345
3249,03006;2,64577
3246,9789;2,64739
3244,92775;2,64933
3242,87659;2,64976
3240,82543;2,64255
3238,77428;2,63527
3236,72312;2,63767
3234,67197;2,64243
3232,62081;2,63922
3230,56966;2,63109
3228,5185;2,62463
3226,46735;2,6229
3224,41619;2,62579
3222,36504;2,63062
3220,31388;2,63244
3218,26273;2,62701
3216,21157;2,62041
3214,16041;2,62054
3212,10926;2,62185
3210,0581;2,61912
3208,00695;2,61763
3205,95579;2,61593
3203,90464;2,61364
3201,85348;2,61695
3199,80233;2,62166
3197,75117;2,62058
3195,70002;2,61929
3193,64886;2,62366
3191,59771;2,62612
3189,54655;2,62007
3187,4954;2,61021
3185,44424;2,60196
3183,39308;2,5994
3181,34193;2,60005
3179,29077;2,59713
3177,23962;2,59322
3175,18846;2,59302
3173,13731;2,59559
3171,08615;2,59825
3169,035;2,59912
3166,98384;2,59664
3164,93269;2,59109
3162,88153;2,58704
3160,83038;2,58662
3158,77922;2,58637
3156,72807;2,58373
3154,67691;2,58061
3152,62575;2,57984
3150,5746;2,57858
3148,52344;2,57353
3146,47229;2,56871
3144,42113;2,56587
3142,36998;2,56233
3140,31882;2,56085
3138,26767;2,56546
3136,21651;2,57002
3134,16536;2,56686
3132,1142;2,56235
3130,06305;2,56113
3128,01189;2,55839
3125,96074;2,5545
3123,90958;2,55354
3121,85842;2,55702
3119,80727;2,56167
3117,75611;2,56141
3115,70496;2,55597
3113,6538;2,55074
3111,60265;2,54928
3109,55149;2,55098
3107,50034;2,5555
3105,44918;2,55893
3103,39803;2,55722
3101,34687;2,55702
3099,29572;2,56321
3097,24456;2,56803
3095,19341;2,56523
3093,14225;2,55795
3091,09109;2,55175
3089,03994;2,55194
3086,98878;2,55773
3084,93763;2,56339
3082,88647;2,5658
3080,83532;2,56397
3078,78416;2,5602
3076,73301;2,558
3074,68185;2,55762
3072,6307;2,5573
3070,57954;2,55455
3068,52839;2,54954
3066,47723;2,54563
3064,42608;2,54572
3062,37492;2,54789
3060,32376;2,54627
3058,27261;2,54167
3056,22145;2,54165
3054,1703;2,54712
3052,11914;2,54998
3050,06799;2,54631
3048,01683;2,54357
3045,96568;2,54559
3043,91452;2,54601
3041,86337;2,54187
3039,81221;2,53638
3037,76106;2,53211
3035,7099;2,52907
3033,65875;2,52571
3031,60759;2,52164
3029,55643;2,51694
3027,50528;2,51236
3025,45412;2,51288
3023,40297;2,52021
3021,35181;2,52512
3019,30066;2,52158
3017,2495;2,5154
3015,19835;2,51174
3013,14719;2,51036
3011,09604;2,51142
3009,04488;2,5145
3006,99373;2,5151
3004,94257;2,51223
3002,89142;2,51168
3000,84026;2,51561
2998,7891;2,5194
2996,73795;2,51815
2994,68679;2,51506
2992,63564;2,5185
2990,58448;2,52781
2988,53333;2,53433
2986,48217;2,538
2984,43102;2,54507
2982,37986;2,5532
2980,32871;2,55712
2978,27755;2,55745
2976,2264;2,55977
2974,17524;2,56633
2972,12409;2,57219
2970,07293;2,57725
2968,02177;2,58465
2965,97062;2,59038
2963,91946;2,59125
2961,86831;2,58802
2959,81715;2,58366
2957,766;2,58332
2955,71484;2,58502
2953,66369;2,58189
2951,61253;2,57422
2949,56138;2,56754
2947,51022;2,56175
2945,45907;2,55666
2943,40791;2,55848
2941,35675;2,56518
2939,3056;2,56691
2937,25444;2,56199
2935,20329;2,55732
2933,15213;2,55754
2931,10098;2,55906
2929,04982;2,5582
2926,99867;2,55514
2924,94751;2,55159
2922,89636;2,54884
2920,8452;2,54702
2918,79405;2,5451
2916,74289;2,54372
2914,69174;2,54522
2912,64058;2,5443
2910,58942;2,53767
2908,53827;2,53051
2906,48711;2,5232
2904,43596;2,51406
2902,3848;2,50851
2900,33365;2,5096
2898,28249;2,51088
2896,23134;2,50968
2894,18018;2,50812
2892,12903;2,50515
2890,07787;2,50232
2888,02672;2,50222
2885,97556;2,50307
2883,92441;2,5044
2881,87325;2,50817
2879,82209;2,51208
2877,77094;2,51423
2875,71978;2,51549
2873,66863;2,51454
2871,61747;2,51197
2869,56632;2,50994
2867,51516;2,50779
2865,46401;2,50682
2863,41285;2,50565
2861,3617;2,49774
2859,31054;2,48719
2857,25939;2,48076
2855,20823;2,47681
2853,15708;2,47387
2851,10592;2,46958
2849,05476;2,46212
2847,00361;2,45388
2844,95245;2,44715
2842,9013;2,44075
2840,85014;2,43292
2838,79899;2,42565
2836,74783;2,42101
2834,69668;2,41751
2832,64552;2,41252
2830,59437;2,40732
2828,54321;2,40444
2826,49206;2,4008
2824,4409;2,39556
2822,38975;2,39213
2820,33859;2,38954
2818,28743;2,38528
2816,23628;2,37921
2814,18512;2,37429
2812,13397;2,37309
2810,08281;2,37297
2808,03166;2,37196
2805,9805;2,37021
2803,92935;2,36672
2801,87819;2,36332
2799,82704;2,36202
2797,77588;2,36063
2795,72473;2,35783
2793,67357;2,35508
2791,62242;2,35258
2789,57126;2,3488
2787,5201;2,34463
2785,46895;2,3424
2783,41779;2,33929
2781,36664;2,33326
2779,31548;2,32831
2777,26433;2,32592
2775,21317;2,32469
2773,16202;2,323
2771,11086;2,31996
2769,05971;2,3177
2767,00855;2,31761
2764,9574;2,31621
2762,90624;2,31255
2760,85509;2,31044
2758,80393;2,30851
2756,75277;2,30441
2754,70162;2,30097
2752,65046;2,30037
2750,59931;2,30097
2748,54815;2,29935
2746,497;2,29588
2744,44584;2,29322
2742,39469;2,29097
2740,34353;2,28868
2738,29238;2,28704
2736,24122;2,28501
2734,19007;2,28141
2732,13891;2,27789
2730,08776;2,27656
2728,0366;2,27538
2725,98544;2,27273
2723,93429;2,27142
2721,88313;2,27208
2719,83198;2,27246
2717,78082;2,27087
2715,72967;2,26622
2713,67851;2,26157
2711,62736;2,26032
2709,5762;2,26036
2707,52505;2,25988
2705,47389;2,25883
2703,42274;2,25748
2701,37158;2,25666
2699,32043;2,25589
2697,26927;2,25515
2695,21811;2,25395
2693,16696;2,25176
2691,1158;2,25099
2689,06465;2,25208
2687,01349;2,25188
2684,96234;2,25009
2682,91118;2,24856
2680,86003;2,24817
2678,80887;2,24855
2676,75772;2,24778
2674,70656;2,24526
2672,65541;2,24418
2670,60425;2,24588
2668,55309;2,24751
2666,50194;2,24794
2664,45078;2,24747
2662,39963;2,24626
2660,34847;2,24468
2658,29732;2,24352
2656,24616;2,2449
2654,19501;2,24692
2652,14385;2,24497
2650,0927;2,24148
2648,04154;2,24152
2645,99039;2,24418
2643,93923;2,2464
2641,88808;2,24753
2639,83692;2,24929
2637,78576;2,25241
2635,73461;2,25695
2633,68345;2,26314
2631,6323;2,2686
2629,58114;2,27198
2627,52999;2,27462
2625,47883;2,27653
2623,42768;2,27735
2621,37652;2,27935
2619,32537;2,28388
2617,27421;2,28831
2615,22306;2,29033
2613,1719;2,29215
2611,12075;2,29511
2609,06959;2,29697
2607,01843;2,29871
2604,96728;2,30197
2602,91612;2,30516
2600,86497;2,30634
2598,81381;2,30533
2596,76266;2,30501
2594,7115;2,30661
2592,66035;2,30829
2590,60919;2,30975
2588,55804;2,31114
2586,50688;2,3121
2584,45573;2,3111
2582,40457;2,30702
2580,35342;2,30386
2578,30226;2,30355
2576,2511;2,30335
2574,19995;2,30447
2572,14879;2,30829
2570,09764;2,31039
2568,04648;2,30835
2565,99533;2,30615
2563,94417;2,30622
2561,89302;2,30667
2559,84186;2,30745
2557,79071;2,30828
2555,73955;2,3073
2553,6884;2,30673
2551,63724;2,30748
2549,58609;2,30671
2547,53493;2,30568
2545,48377;2,30763
2543,43262;2,31234
2541,38146;2,3162
2539,33031;2,3171
2537,27915;2,31881
2535,228;2,32463
2533,17684;2,33173
2531,12569;2,33553
2529,07453;2,33725
2527,02338;2,34199
2524,97222;2,3491
2522,92107;2,35382
2520,86991;2,3559
2518,81876;2,35714
2516,7676;2,35748
2514,71644;2,35803
2512,66529;2,35936
2510,61413;2,35998
2508,56298;2,35896
2506,51182;2,35577
2504,46067;2,35125
2502,40951;2,34688
2500,35836;2,34352
2498,3072;2,33993
2496,25605;2,33336
2494,20489;2,32536
2492,15374;2,31872
2490,10258;2,31189
2488,05143;2,30341
2486,00027;2,29497
2483,94911;2,28811
2481,89796;2,28302
2479,8468;2,27813
2477,79565;2,27145
2475,74449;2,26297
2473,69334;2,25465
2471,64218;2,24752
2469,59103;2,24053
2467,53987;2,23475
2465,48872;2,23006
2463,43756;2,22445
2461,38641;2,21871
2459,33525;2,21394
2457,2841;2,21048
2455,23294;2,20751
2453,18178;2,20396
2451,13063;2,20041
2449,07947;2,19668
2447,02832;2,19241
2444,97716;2,18849
2442,92601;2,18623
2440,87485;2,18541
2438,8237;2,18316
2436,77254;2,17965
2434,72139;2,17756
2432,67023;2,17506
2430,61908;2,17126
2428,56792;2,16793
2426,51677;2,16577
2424,46561;2,16387
2422,41445;2,16067
2420,3633;2,15756
2418,31214;2,15579
2416,26099;2,15554
2414,20983;2,15611
2412,15868;2,15472
2410,10752;2,15261
2408,05637;2,15226
2406,00521;2,15118
2403,95406;2,14805
2401,9029;2,14535
2399,85175;2,14404
2397,80059;2,14288
2395,74944;2,14155
2393,69828;2,14066
2391,64712;2,13988
2389,59597;2,13908
2387,54481;2,13902
2385,49366;2,13948
2383,4425;2,14002
2381,39135;2,14054
2379,34019;2,14071
2377,28904;2,14061
2375,23788;2,14077
2373,18673;2,14165
2371,13557;2,14368
2369,08442;2,14593
2367,03326;2,14581
2364,9821;2,14259
2362,93095;2,13933
2360,87979;2,13772
2358,82864;2,13659
2356,77748;2,13688
2354,72633;2,13883
2352,67517;2,14041
2350,62402;2,14199
2348,57286;2,14252
2346,52171;2,14006
2344,47055;2,13864
2342,4194;2,14212
2340,36824;2,14549
2338,31709;2,14506
2336,26593;2,14335
2334,21477;2,1422
2332,16362;2,14251
2330,11246;2,14463
2328,06131;2,14605
2326,01015;2,14524
2323,959;2,14385
2321,90784;2,14315
2319,85669;2,14278
2317,80553;2,14189
2315,75438;2,14042
2313,70322;2,13929
2311,65207;2,13953
2309,60091;2,14089
2307,54976;2,14162
2305,4986;2,14073
2303,44744;2,1396
2301,39629;2,13951
2299,34513;2,13966
2297,29398;2,13949
2295,24282;2,13977
2293,19167;2,14031
2291,14051;2,13954
2289,08936;2,13747
2287,0382;2,13664
2284,98705;2,13796
2282,93589;2,13877
2280,88474;2,13759
2278,83358;2,13668
2276,78243;2,13794
2274,73127;2,14012
2272,68011;2,14109
2270,62896;2,14085
2268,5778;2,14056
2266,52665;2,1406
2264,47549;2,14113
2262,42434;2,14228
2260,37318;2,14388
2258,32203;2,14564
2256,27087;2,14718
2254,21972;2,14861
2252,16856;2,15101
2250,11741;2,15392
2248,06625;2,15539
2246,0151;2,15522
2243,96394;2,15523
2241,91278;2,15615
2239,86163;2,15765
2237,81047;2,15908
2235,75932;2,16141
2233,70816;2,1639
2231,65701;2,16527
2229,60585;2,16681
2227,5547;2,16794
2225,50354;2,16805
2223,45239;2,16917
2221,40123;2,17144
2219,35008;2,17367
2217,29892;2,17568
2215,24777;2,17729
2213,19661;2,17838
2211,14545;2,17864
2209,0943;2,17899
2207,04314;2,18075
2204,99199;2,18214
2202,94083;2,18201
2200,88968;2,18276
2198,83852;2,18436
2196,78737;2,18387
2194,73621;2,1834
2192,68506;2,18599
2190,6339;2,18901
2188,58275;2,19002
2186,53159;2,18969
2184,48044;2,18914
2182,42928;2,18945
2180,37812;2,1911
2178,32697;2,19347
2176,27581;2,19638
2174,22466;2,19897
2172,1735;2,20013
2170,12235;2,2015
2168,07119;2,20395
2166,02004;2,20589
2163,96888;2,20817
2161,91773;2,21293
2159,86657;2,21874
2157,81542;2,22362
2155,76426;2,22812
2153,71311;2,23165
2151,66195;2,23357
2149,61079;2,23626
2147,55964;2,24014
2145,50848;2,24298
2143,45733;2,24526
2141,40617;2,24701
2139,35502;2,24756
2137,30386;2,24786
2135,25271;2,24676
2133,20155;2,24365
2131,1504;2,24072
2129,09924;2,23833
2127,04809;2,23521
2124,99693;2,23094
2122,94578;2,22558
2120,89462;2,22165
2118,84346;2,22112
2116,79231;2,22081
2114,74115;2,21775
2112,69;2,21412
2110,63884;2,21168
2108,58769;2,20916
2106,53653;2,20612
2104,48538;2,20329
2102,43422;2,2021
2100,38307;2,20248
2098,33191;2,20249
2096,28076;2,20125
2094,2296;2,19976
2092,17844;2,19955
2090,12729;2,2003
2088,07613;2,2009
2086,02498;2,20084
2083,97382;2,20112
2081,92267;2,20189
2079,87151;2,20173
2077,82036;2,20178
2075,7692;2,20336
2073,71805;2,2043
2071,66689;2,20372
2069,61574;2,20357
2067,56458;2,20368
2065,51343;2,20267
2063,46227;2,20142
2061,41111;2,20168
2059,35996;2,20334
2057,3088;2,204
2055,25765;2,2033
2053,20649;2,20334
2051,15534;2,20427
2049,10418;2,20472
2047,05303;2,20367
2045,00187;2,20263
2042,95072;2,20337
2040,89956;2,20514
2038,84841;2,20694
2036,79725;2,20732
2034,7461;2,20634
2032,69494;2,20618
2030,64378;2,20737
2028,59263;2,20807
2026,54147;2,20728
2024,49032;2,20669
2022,43916;2,20751
2020,38801;2,20858
2018,33685;2,2083
2016,2857;2,20719
2014,23454;2,20706
2012,18339;2,20819
2010,13223;2,20983
2008,08108;2,21105
2006,02992;2,21179
2003,97877;2,21263
2001,92761;2,21276
1999,87645;2,21169
1997,8253;2,21122
1995,77414;2,2134
1993,72299;2,21597
1991,67183;2,21513
1989,62068;2,2122
1987,56952;2,21074
1985,51837;2,21186
1983,46721;2,21321
1981,41606;2,21265
1979,3649;2,2123
1977,31375;2,21424
1975,26259;2,21641
1973,21144;2,21706
1971,16028;2,21718
1969,10912;2,21837
1967,05797;2,22239
1965,00681;2,22889
1962,95566;2,23467
1960,9045;2,23702
1958,85335;2,23531
1956,80219;2,2315
1954,75104;2,22795
1952,69988;2,22543
1950,64873;2,22481
1948,59757;2,22652
1946,54642;2,22877
1944,49526;2,22967
1942,44411;2,2287
1940,39295;2,22741
1938,34179;2,22771
1936,29064;2,229
1934,23948;2,22927
1932,18833;2,22928
1930,13717;2,23105
1928,08602;2,23355
1926,03486;2,2346
1923,98371;2,23426
1921,93255;2,23523
1919,8814;2,23815
1917,83024;2,24037
1915,77909;2,24072
1913,72793;2,24014
1911,67678;2,23895
1909,62562;2,23756
1907,57446;2,23826
1905,52331;2,24142
1903,47215;2,24496
1901,421;2,24737
1899,36984;2,24885
1897,31869;2,25047
1895,26753;2,25247
1893,21638;2,25483
1891,16522;2,25715
1889,11407;2,25899
1887,06291;2,26047
1885,01176;2,26142
1882,9606;2,26265
1880,90945;2,26484
1878,85829;2,26639
1876,80713;2,26705
1874,75598;2,26872
1872,70482;2,27151
1870,65367;2,27346
1868,60251;2,27457
1866,55136;2,27733
1864,5002;2,28186
1862,44905;2,2863
1860,39789;2,28943
1858,34674;2,29087
1856,29558;2,29139
1854,24443;2,29178
1852,19327;2,29221
1850,14212;2,29342
1848,09096;2,29642
1846,0398;2,3005
1843,98865;2,30389
1841,93749;2,30692
1839,88634;2,31093
1837,83518;2,31598
1835,78403;2,32087
1833,73287;2,32498
1831,68172;2,32919
1829,63056;2,33393
1827,57941;2,33809
1825,52825;2,34109
1823,4771;2,34429
1821,42594;2,34744
1819,37478;2,34907
1817,32363;2,35155
1815,27247;2,3579
1813,22132;2,36631
1811,17016;2,37447
1809,11901;2,38313
1807,06785;2,39264
1805,0167;2,40312
1802,96554;2,41569
1800,91439;2,43029
1798,86323;2,44518
1796,81208;2,4565
1794,76092;2,45975
1792,70977;2,45552
1790,65861;2,45057
1788,60745;2,4478
1786,5563;2,4441
1784,50514;2,43889
1782,45399;2,43343
1780,40283;2,428
1778,35168;2,42407
1776,30052;2,42165
1774,24937;2,41945
1772,19821;2,41925
1770,14706;2,42147
1768,0959;2,42343
1766,04475;2,42686
1763,99359;2,43157
1761,94244;2,43456
1759,89128;2,43671
1757,84012;2,44023
1755,78897;2,44679
1753,73781;2,45583
1751,68666;2,46375
1749,6355;2,4688
1747,58435;2,47336
1745,53319;2,47912
1743,48204;2,483
1741,43088;2,48261
1739,37973;2,48254
1737,32857;2,487
1735,27742;2,4913
1733,22626;2,49443
1731,17511;2,49877
1729,12395;2,50093
1727,07279;2,5027
1725,02164;2,50785
1722,97048;2,51518
1720,91933;2,52281
1718,86817;2,53232
1716,81702;2,54438
1714,76586;2,55489
1712,71471;2,56449
1710,66355;2,57592
1708,6124;2,58875
1706,56124;2,60475
1704,51009;2,62708
1702,45893;2,64892
1700,40778;2,66371
1698,35662;2,67787
1696,30546;2,69748
1694,25431;2,7199
1692,20315;2,73768
1690,152;2,75171
1688,10084;2,76612
1686,04969;2,776
1683,99853;2,77561
1681,94738;2,76901
1679,89622;2,76266
1677,84507;2,7608
1675,79391;2,76344
1673,74276;2,7644
1671,6916;2,75705
1669,64045;2,74362
1667,58929;2,73144
1665,53813;2,72035
1663,48698;2,70684
1661,43582;2,69657
1659,38467;2,69549
1657,33351;2,69814
1655,28236;2,69536
1653,2312;2,68626
1651,18005;2,67942
1649,12889;2,6696
1647,07774;2,65162
1645,02658;2,63545
1642,97543;2,62698
1640,92427;2,62321
1638,87312;2,62049
1636,82196;2,61437
1634,7708;2,60537
1632,71965;2,59962
1630,66849;2,59861
1628,61734;2,60041
1626,56618;2,60073
1624,51503;2,59547
1622,46387;2,58851
1620,41272;2,58752
1618,36156;2,5907
1616,31041;2,59107
1614,25925;2,58728
1612,2081;2,58325
1610,15694;2,58031
1608,10579;2,57835
1606,05463;2,57912
1604,00347;2,58253
1601,95232;2,58576
1599,90116;2,58716
1597,85001;2,58686
1595,79885;2,58481
1593,7477;2,58122
1591,69654;2,5789
1589,64539;2,58041
1587,59423;2,58473
1585,54308;2,58908
1583,49192;2,59303
1581,44077;2,598
1579,38961;2,60257
1577,33846;2,60192
1575,2873;2,59767
1573,23614;2,59858
1571,18499;2,60345
1569,13383;2,60484
1567,08268;2,60015
1565,03152;2,5962
1562,98037;2,60012
1560,92921;2,60293
1558,87806;2,59206
1556,8269;2,58076
1554,77575;2,57712
1552,72459;2,5722
1550,67344;2,56551
1548,62228;2,56352
1546,57113;2,56663
1544,51997;2,56907
1542,46881;2,56504
1540,41766;2,55245
1538,3665;2,54199
1536,31535;2,53865
1534,26419;2,53432
1532,21304;2,52916
1530,16188;2,52794
1528,11073;2,52836
1526,05957;2,52778
1524,00842;2,52577
1521,95726;2,52069
1519,90611;2,51499
1517,85495;2,51153
1515,80379;2,50818
1513,75264;2,50398
1511,70148;2,50103
1509,65033;2,49987
1507,59917;2,49473
1505,54802;2,48661
1503,49686;2,48411
1501,44571;2,48297
1499,39455;2,47767
1497,3434;2,46986
1495,29224;2,46585
1493,24109;2,46591
1491,18993;2,46408
1489,13878;2,46135
1487,08762;2,46325
1485,03646;2,46753
1482,98531;2,47079
1480,93415;2,47492
1478,883;2,48111
1476,83184;2,4889
1474,78069;2,49935
1472,72953;2,51184
1470,67838;2,52361
1468,62722;2,5312
1466,57607;2,53465
1464,52491;2,53841
1462,47376;2,54462
1460,4226;2,55081
1458,37145;2,55488
1456,32029;2,55715
1454,26913;2,5599
1452,21798;2,56211
1450,16682;2,56076
1448,11567;2,55606
1446,06451;2,55233
1444,01336;2,55257
1441,9622;2,55608
1439,91105;2,55972
1437,85989;2,55952
1435,80874;2,55548
1433,75758;2,55178
1431,70643;2,54866
1429,65527;2,54384
1427,60412;2,53916
1425,55296;2,53831
1423,5018;2,54346
1421,45065;2,55055
1419,39949;2,55045
1417,34834;2,5441
1415,29718;2,53929
1413,24603;2,53601
1411,19487;2,53296
1409,14372;2,53218
1407,09256;2,53426
1405,04141;2,53931
1402,99025;2,54756
1400,9391;2,55505
1398,88794;2,55987
1396,83679;2,56293
1394,78563;2,56215
1392,73447;2,56042
1390,68332;2,56224
1388,63216;2,56496
1386,58101;2,56501
1384,52985;2,5638
1382,4787;2,56416
1380,42754;2,56626
1378,37639;2,5699
1376,32523;2,5748
1374,27408;2,57753
1372,22292;2,57544
1370,17177;2,57061
1368,12061;2,56705
1366,06946;2,56714
1364,0183;2,56797
1361,96714;2,5663
1359,91599;2,5652
1357,86483;2,56733
1355,81368;2,57067
1353,76252;2,57235
1351,71137;2,57266
1349,66021;2,57298
1347,60906;2,5709
1345,5579;2,56665
1343,50675;2,56364
1341,45559;2,56043
1339,40444;2,55638
1337,35328;2,55484
1335,30213;2,55621
1333,25097;2,55813
1331,19981;2,55958
1329,14866;2,56188
1327,0975;2,56482
1325,04635;2,56681
1322,99519;2,56753
1320,94404;2,56686
1318,89288;2,5657
1316,84173;2,56513
1314,79057;2,56414
1312,73942;2,56231
1310,68826;2,56015
1308,63711;2,55797
1306,58595;2,55679
1304,5348;2,55788
1302,48364;2,56115
1300,43248;2,56279
1298,38133;2,56098
1296,33017;2,56049
1294,27902;2,56312
1292,22786;2,56467
1290,17671;2,5627
1288,12555;2,55773
1286,0744;2,55261
1284,02324;2,55101
1281,97209;2,55146
1279,92093;2,55017
1277,86978;2,54741
1275,81862;2,54502
1273,76747;2,54498
1271,71631;2,54726
1269,66515;2,54945
1267,614;2,55224
1265,56284;2,5563
1263,51169;2,55936
1261,46053;2,56061
1259,40938;2,56102
1257,35822;2,56074
1255,30707;2,56036
1253,25591;2,56041
1251,20476;2,5587
1249,1536;2,55404
1247,10245;2,55037
1245,05129;2,55321
1243,00013;2,55908
1240,94898;2,55978
1238,89782;2,55677
1236,84667;2,5556
1234,79551;2,55498
1232,74436;2,55271
1230,6932;2,54981
1228,64205;2,54618
1226,59089;2,54106
1224,53974;2,53801
1222,48858;2,54072
1220,43743;2,54415
1218,38627;2,54175
1216,33512;2,53844
1214,28396;2,54168
1212,2328;2,54762
1210,18165;2,54884
1208,13049;2,54787
1206,07934;2,54829
1204,02818;2,54737
1201,97703;2,54434
1199,92587;2,54227
1197,87472;2,54322
1195,82356;2,5449
1193,77241;2,54647
1191,72125;2,5496
1189,6701;2,55161
1187,61894;2,54884
1185,56779;2,5448
1183,51663;2,54567
1181,46547;2,55108
1179,41432;2,55508
1177,36316;2,55575
1175,31201;2,55479
1173,26085;2,55451
1171,2097;2,55711
1169,15854;2,55875
1167,10739;2,55632
1165,05623;2,55575
1163,00508;2,55817
1160,95392;2,5564
1158,90277;2,55177
1156,85161;2,54996
1154,80046;2,55
1152,7493;2,54867
1150,69814;2,54861
1148,64699;2,55407
1146,59583;2,55633
1144,54468;2,54881
1142,49352;2,54407
1140,44237;2,55069
1138,39121;2,5581
1136,34006;2,55985
1134,2889;2,56037
1132,23775;2,5589
1130,18659;2,55704
1128,13544;2,5568
1126,08428;2,55593
1124,03313;2,55589
1121,98197;2,55785
1119,93081;2,55787
1117,87966;2,55575
1115,8285;2,55325
1113,77735;2,54894
1111,72619;2,54689
1109,67504;2,55204
1107,62388;2,55813
1105,57273;2,55928
1103,52157;2,55848
1101,47042;2,55792
1099,41926;2,55836
1097,36811;2,55867
1095,31695;2,55596
1093,2658;2,55127
1091,21464;2,54934
1089,16348;2,55618
1087,11233;2,56609
1085,06117;2,56715
1083,01002;2,56132
1080,95886;2,55454
1078,90771;2,54884
1076,85655;2,54408
1074,8054;2,53972
1072,75424;2,53765
1070,70309;2,53679
1068,65193;2,53826
1066,60078;2,54424
1064,54962;2,54955
1062,49847;2,55096
1060,44731;2,55075
1058,39615;2,54834
1056,345;2,54299
1054,29384;2,53996
1052,24269;2,54013
1050,19153;2,53719
1048,14038;2,53189
1046,08922;2,52935
1044,03807;2,52878
1041,98691;2,52865
1039,93576;2,52738
1037,8846;2,5236
1035,83345;2,52239
1033,78229;2,52622
1031,73114;2,52843
1029,67998;2,52587
1027,62882;2,52303
1025,57767;2,52327
1023,52651;2,5268
1021,47536;2,52982
1019,4242;2,53052
1017,37305;2,53335
1015,32189;2,53684
1013,27074;2,537
1011,21958;2,53786
1009,16843;2,53951
1007,11727;2,53743
1005,06612;2,53165
1003,01496;2,52704
1000,96381;2,53034
998,91265;2,53672
996,86149;2,53724
994,81034;2,53593
992,75918;2,53853
990,70803;2,53982
988,65687;2,53598
986,60572;2,53373
984,55456;2,53279
982,50341;2,53046
980,45225;2,5273
978,4011;2,52175
976,34994;2,5186
974,29879;2,51965
972,24763;2,519
970,19647;2,51668
968,14532;2,51267
966,09416;2,50612
964,04301;2,5039
961,99185;2,50686
959,9407;2,50884
957,88954;2,50768
955,83839;2,50429
953,78723;2,50516
951,73608;2,51044
949,68492;2,51094
947,63377;2,50878
945,58261;2,50789
943,53146;2,50693
941,4803;2,50856
939,42914;2,50801
937,37799;2,50333
935,32683;2,50632
933,27568;2,51697
931,22452;2,51704
929,17337;2,50584
927,12221;2,49812
925,07106;2,49859
923,0199;2,5052
920,96875;2,50789
918,91759;2,50377
916,86644;2,50299
914,81528;2,50448
912,76413;2,50441
910,71297;2,50644
908,66181;2,50658
906,61066;2,5024
904,5595;2,49605
902,50835;2,48697
900,45719;2,48252
898,40604;2,4833
896,35488;2,47817
894,30373;2,4661
892,25257;2,45263
890,20142;2,4352
888,15026;2,41651
886,09911;2,41375
884,04795;2,43096
881,9968;2,45122
879,94564;2,46431
877,89448;2,47022
875,84333;2,47027
873,79217;2,47451
871,74102;2,49532
869,68986;2,52899
867,63871;2,55454
865,58755;2,56344
863,5364;2,56436
861,48524;2,55921
859,43409;2,5542
857,38293;2,55845
855,33178;2,56598
853,28062;2,56512
851,22947;2,5651
849,17831;2,57801
847,12715;2,58728
845,076;2,58192
843,02484;2,57278
840,97369;2,56465
838,92253;2,55708
836,87138;2,55339
834,82022;2,55768
832,76907;2,56409
830,71791;2,56602
828,66676;2,56171
826,6156;2,55404
824,56445;2,55839
822,51329;2,5758
820,46214;2,58551
818,41098;2,57893
816,35982;2,56643
814,30867;2,55938
812,25751;2,56074
810,20636;2,56744
808,1552;2,57734
806,10405;2,58615
804,05289;2,59055
802,00174;2,58777
799,95058;2,57933
797,89943;2,57855
795,84827;2,58988
793,79712;2,60084
791,74596;2,60624
789,69481;2,60782
787,64365;2,60359
785,59249;2,59665
783,54134;2,59825
781,49018;2,60901
779,43903;2,61308
777,38787;2,6072
775,33672;2,60723
773,28556;2,61402
771,23441;2,61265
769,18325;2,60374
767,1321;2,59478
765,08094;2,58907
763,02979;2,59023
760,97863;2,59599
758,92748;2,60217
756,87632;2,60897
754,82516;2,61718
752,77401;2,61669
750,72285;2,60237
748,6717;2,59153
746,62054;2,59102
744,56939;2,5921
742,51823;2,5971
740,46708;2,60521
738,41592;2,60949
736,36477;2,61272
734,31361;2,61795
732,26246;2,62019
730,2113;2,62388
728,16015;2,63356
726,10899;2,64301
724,05783;2,65142
722,00668;2,65859
719,95552;2,66346
717,90437;2,66214
715,85321;2,65709
713,80206;2,6589
711,7509;2,6691
709,69975;2,68166
707,64859;2,68504
705,59744;2,66864
703,54628;2,64366
701,49513;2,62759
699,44397;2,624
697,39281;2,62536
695,34166;2,6242
693,2905;2,6253
691,23935;2,63599
689,18819;2,64928
687,13704;2,65079
685,08588;2,6393
683,03473;2,62783
680,98357;2,62086
678,93242;2,61557
676,88126;2,62171
674,83011;2,64602
672,77895;2,67463
670,7278;2,68798
668,67664;2,68507
666,62548;2,68072
664,57433;2,66961
662,52317;2,64627
660,47202;2,63012
658,42086;2,63555
656,36971;2,65475
654,31855;2,66534
652,2674;2,65669
650,21624;2,64404
648,16509;2,64097
646,11393;2,64525
644,06278;2,65276
642,01162;2,662
639,96047;2,67013
637,90931;2,67961
635,85815;2,68942
633,807;2,68932
631,75584;2,67694
629,70469;2,66021
627,65353;2,65058
625,60238;2,66572
623,55122;2,69474
621,50007;2,71609
619,44891;2,72956
617,39776;2,73546
615,3466;2,72692
613,29545;2,71482
611,24429;2,70075
609,19314;2,67859
607,14198;2,66846
605,09082;2,68243
603,03967;2,70585
600,98851;2,72551
598,93736;2,74545
596,8862;2,76761
594,83505;2,77447
592,78389;2,76777
590,73274;2,7712
588,68158;2,77926
586,63043;2,78404
584,57927;2,78474
582,52812;2,78187
580,47696;2,79211
578,42581;2,82642
576,37465;2,87728
574,32349;2,9042
572,27234;2,87065
570,22118;2,85542
568,17003;2,89266
566,11887;2,91166
564,06772;2,89101
562,01656;2,88754
559,96541;2,89278
557,91425;2,86494
555,8631;2,84132
553,81194;2,82811
551,76079;2,78139
549,70963;2,73621
547,65848;2,72863
545,60732;2,71005
543,55616;2,65511
541,50501;2,59275
539,45385;2,52771
537,4027;2,46522
535,35154;2,42265
533,30039;2,40255
531,24923;2,38725
529,19808;2,36347
527,14692;2,33743
525,09577;2,3288
523,04461;2,3358
520,99346;2,34129
518,9423;2,34466
516,89115;2,34311
514,83999;2,33487
512,78883;2,33252
510,73768;2,33609
508,68652;2,33481
506,63537;2,33343
504,58421;2,33937
502,53306;2,34657
500,4819;2,34706
498,43075;2,34117
496,37959;2,32995
494,32844;2,30874
492,27728;2,28358
490,22613;2,26877
488,17497;2,265
486,12382;2,26265
484,07266;2,25633
482,0215;2,24649
479,97035;2,23945
477,91919;2,24649
475,86804;2,25954
473,81688;2,25065
471,76573;2,21656
469,71457;2,18619
467,66342;2,16773
465,61226;2,14778
463,56111;2,12267
461,50995;2,09796
459,4588;2,0813
457,40764;2,07911
455,35649;2,08283
453,30533;2,07888
451,25417;2,06987
449,20302;2,06068
447,15186;2,04726
445,10071;2,03427
443,04955;2,0314
440,9984;2,03402
438,94724;2,03534
436,89609;2,03865
434,84493;2,0408
432,79378;2,03552
430,74262;2,03033
428,69147;2,0297
426,64031;2,02814
424,58916;2,02911
422,538;2,03068
420,48684;2,01738
418,43569;2,0035
416,38453;2,02018
414,33338;2,05236
412,28222;2,07599
410,23107;2,09218
408,17991;2,11186
406,12876;2,13085
404,0776;2,13868
402,02645;2,13241
399,97529;2,11316
