3997,70175;1,7527
3995,6506;1,75276
3993,59944;1,75332
3991,54829;1,75378
3989,49713;1,75408
3987,44598;1,75489
3985,39482;1,75544
3983,34367;1,75534
3981,29251;1,75539
3979,24136;1,7558
3977,1902;1,75639
3975,13905;1,75736
3973,08789;1,75899
3971,03673;1,76054
3968,98558;1,76106
3966,93442;1,7613
3964,88327;1,76231
3962,83211;1,76333
3960,78096;1,76375
3958,7298;1,76468
3956,67865;1,7664
3954,62749;1,76746
3952,57634;1,76746
3950,52518;1,76822
3948,47403;1,77023
3946,42287;1,77164
3944,37172;1,77177
3942,32056;1,77115
3940,2694;1,77038
3938,21825;1,76992
3936,16709;1,76959
3934,11594;1,76885
3932,06478;1,76681
3930,01363;1,76367
3927,96247;1,76096
3925,91132;1,75848
3923,86016;1,75492
3921,80901;1,75114
3919,75785;1,7486
3917,7067;1,74666
3915,65554;1,7443
3913,60439;1,7418
3911,55323;1,73954
3909,50207;1,73762
3907,45092;1,73562
3905,39976;1,73235
3903,34861;1,72845
3901,29745;1,72672
3899,2463;1,72665
3897,19514;1,72608
3895,14399;1,72562
3893,09283;1,72504
3891,04168;1,72319
3888,99052;1,72273
3886,93937;1,72433
3884,88821;1,72437
3882,83706;1,72342
3880,7859;1,72317
3878,73474;1,7229
3876,68359;1,72291
3874,63243;1,7218
3872,58128;1,71937
3870,53012;1,71752
3868,47897;1,71616
3866,42781;1,71568
3864,37666;1,71554
3862,3255;1,71487
3860,27435;1,71411
3858,22319;1,71371
3856,17204;1,71374
3854,12088;1,71189
3852,06973;1,70801
3850,01857;1,70696
3847,96741;1,7085
3845,91626;1,70947
3843,8651;1,70847
3841,81395;1,70647
3839,76279;1,70527
3837,71164;1,70469
3835,66048;1,70425
3833,60933;1,70432
3831,55817;1,70459
3829,50702;1,70534
3827,45586;1,70628
3825,40471;1,70637
3823,35355;1,70566
3821,3024;1,70281
3819,25124;1,70005
3817,20008;1,70158
3815,14893;1,70427
3813,09777;1,70565
3811,04662;1,707
3808,99546;1,708
3806,94431;1,7071
3804,89315;1,70596
3802,842;1,70646
3800,79084;1,70646
3798,73969;1,70654
3796,68853;1,70794
3794,63738;1,70902
3792,58622;1,70953
3790,53506;1,70998
3788,48391;1,71023
3786,43275;1,70995
3784,3816;1,70973
3782,33044;1,71141
3780,27929;1,71398
3778,22813;1,71448
3776,17698;1,71374
3774,12582;1,71384
3772,07467;1,71433
3770,02351;1,71418
3767,97236;1,71453
3765,9212;1,71592
3763,87005;1,71737
3761,81889;1,71934
3759,76773;1,72088
3757,71658;1,72047
3755,66542;1,72054
3753,61427;1,72329
3751,56311;1,72574
3749,51196;1,72512
3747,4608;1,72589
3745,40965;1,72956
3743,35849;1,73228
3741,30734;1,73474
3739,25618;1,73846
3737,20503;1,74175
3735,15387;1,74315
3733,10272;1,74345
3731,05156;1,74542
3729,0004;1,74947
3726,94925;1,75332
3724,89809;1,75511
3722,84694;1,75584
3720,79578;1,75783
3718,74463;1,7613
3716,69347;1,76466
3714,64232;1,76722
3712,59116;1,76952
3710,54001;1,77331
3708,48885;1,77916
3706,4377;1,78499
3704,38654;1,79217
3702,33539;1,80455
3700,28423;1,82204
3698,23307;1,83977
3696,18192;1,85335
3694,13076;1,86171
3692,07961;1,86546
3690,02845;1,86499
3687,9773;1,86163
3685,92614;1,85863
3683,87499;1,85836
3681,82383;1,86058
3679,77268;1,8643
3677,72152;1,87019
3675,67037;1,8773
3673,61921;1,88408
3671,56806;1,89385
3669,5169;1,90774
3667,46574;1,92164
3665,41459;1,9332
3663,36343;1,94269
3661,31228;1,95123
3659,26112;1,96103
3657,20997;1,97211
3655,15881;1,98165
3653,10766;1,99019
3651,0565;2,00356
3649,00535;2,02503
3646,95419;2,04655
3644,90304;2,05991
3642,85188;2,06743
3640,80073;2,07319
3638,74957;2,07795
3636,69841;2,08166
3634,64726;2,08433
3632,5961;2,08682
3630,54495;2,09153
3628,49379;2,09835
3626,44264;2,10478
3624,39148;2,11035
3622,34033;2,11585
3620,28917;2,12133
3618,23802;2,12595
3616,18686;2,1319
3614,13571;2,142
3612,08455;2,15406
3610,0334;2,16281
3607,98224;2,16594
3605,93108;2,16783
3603,87993;2,17244
3601,82877;2,17793
3599,77762;2,18238
3597,72646;2,18712
3595,67531;2,19279
3593,62415;2,19798
3591,573;2,2028
3589,52184;2,20866
3587,47069;2,21534
3585,41953;2,22137
3583,36838;2,22592
3581,31722;2,22951
3579,26607;2,23369
3577,21491;2,23869
3575,16375;2,24341
3573,1126;2,24708
3571,06144;2,25056
3569,01029;2,25526
3566,95913;2,2595
3564,90798;2,26258
3562,85682;2,26902
3560,80567;2,27819
3558,75451;2,28457
3556,70336;2,28756
3554,6522;2,28941
3552,60105;2,29137
3550,54989;2,29663
3548,49874;2,30477
3546,44758;2,30846
3544,39642;2,30715
3542,34527;2,30886
3540,29411;2,31405
3538,24296;2,31746
3536,1918;2,31746
3534,14065;2,3164
3532,08949;2,31738
3530,03834;2,32105
3527,98718;2,32589
3525,93603;2,32925
3523,88487;2,32931
3521,83372;2,32896
3519,78256;2,33054
3517,73141;2,33295
3515,68025;2,336
3513,62909;2,33914
3511,57794;2,34264
3509,52678;2,34699
3507,47563;2,35005
3505,42447;2,35179
3503,37332;2,35288
3501,32216;2,35242
3499,27101;2,35303
3497,21985;2,35688
3495,1687;2,35989
3493,11754;2,35866
3491,06639;2,35823
3489,01523;2,36273
3486,96407;2,36799
3484,91292;2,36971
3482,86176;2,36956
3480,81061;2,37008
3478,75945;2,37161
3476,7083;2,37437
3474,65714;2,37765
3472,60599;2,38177
3470,55483;2,38581
3468,50368;2,38484
3466,45252;2,38001
3464,40137;2,3776
3462,35021;2,37804
3460,29906;2,37947
3458,2479;2,38379
3456,19674;2,39075
3454,14559;2,39553
3452,09443;2,39606
3450,04328;2,39472
3447,99212;2,3923
3445,94097;2,3898
3443,88981;2,39076
3441,83866;2,39463
3439,7875;2,39773
3437,73635;2,3985
3435,68519;2,39904
3433,63404;2,40121
3431,58288;2,40247
3429,53173;2,40256
3427,48057;2,40307
3425,42941;2,40319
3423,37826;2,40241
3421,3271;2,40174
3419,27595;2,40379
3417,22479;2,40829
3415,17364;2,4098
3413,12248;2,40482
3411,07133;2,39983
3409,02017;2,40484
3406,96902;2,41456
3404,91786;2,41586
3402,86671;2,41196
3400,81555;2,41126
3398,7644;2,4119
3396,71324;2,41089
3394,66208;2,41031
3392,61093;2,411
3390,55977;2,413
3388,50862;2,41492
3386,45746;2,41446
3384,40631;2,41349
3382,35515;2,41517
3380,304;2,42005
3378,25284;2,425
3376,20169;2,4258
3374,15053;2,42396
3372,09938;2,42525
3370,04822;2,42914
3367,99707;2,42886
3365,94591;2,42379
3363,89475;2,4207
3361,8436;2,42378
3359,79244;2,42809
3357,74129;2,43017
3355,69013;2,43241
3353,63898;2,4324
3351,58782;2,43056
3349,53667;2,43167
3347,48551;2,43357
3345,43436;2,43312
3343,3832;2,43317
3341,33205;2,43628
3339,28089;2,43908
3337,22974;2,43924
3335,17858;2,43902
3333,12742;2,43884
3331,07627;2,43903
3329,02511;2,44039
3326,97396;2,44259
3324,9228;2,44566
3322,87165;2,44634
3320,82049;2,44253
3318,76934;2,44028
3316,71818;2,44217
3314,66703;2,44442
3312,61587;2,44659
3310,56472;2,44665
3308,51356;2,44466
3306,46241;2,44676
3304,41125;2,45237
3302,36009;2,45662
3300,30894;2,45763
3298,25778;2,45657
3296,20663;2,45719
3294,15547;2,46125
3292,10432;2,46335
3290,05316;2,45755
3288,00201;2,44847
3285,95085;2,44546
3283,8997;2,44956
3281,84854;2,45247
3279,79739;2,45126
3277,74623;2,44921
3275,69508;2,44466
3273,64392;2,43841
3271,59276;2,43559
3269,54161;2,43671
3267,49045;2,43821
3265,4393;2,43567
3263,38814;2,43066
3261,33699;2,42958
3259,28583;2,43022
3257,23468;2,42826
3255,18352;2,42393
3253,13237;2,41815
3251,08121;2,41609
3249,03006;2,41927
3246,9789;2,42162
3244,92775;2,42285
3242,87659;2,42519
3240,82543;2,42361
3238,77428;2,42057
3236,72312;2,4217
3234,67197;2,42046
3232,62081;2,41542
3230,56966;2,41249
3228,5185;2,41238
3226,46735;2,41251
3224,41619;2,40926
3222,36504;2,40428
3220,31388;2,40247
3218,26273;2,40248
3216,21157;2,4021
3214,16041;2,40052
3212,10926;2,39828
3210,0581;2,39842
3208,00695;2,39876
3205,95579;2,39607
3203,90464;2,39251
3201,85348;2,39093
3199,80233;2,39091
3197,75117;2,39129
3195,70002;2,39333
3193,64886;2,3957
3191,59771;2,39435
3189,54655;2,39096
3187,4954;2,38791
3185,44424;2,38309
3183,39308;2,37888
3181,34193;2,3775
3179,29077;2,37572
3177,23962;2,37236
3175,18846;2,36988
3173,13731;2,36908
3171,08615;2,36889
3169,035;2,36872
3166,98384;2,36804
3164,93269;2,36688
3162,88153;2,36475
3160,83038;2,36155
3158,77922;2,35813
3156,72807;2,35522
3154,67691;2,35286
3152,62575;2,35006
3150,5746;2,34871
3148,52344;2,35063
3146,47229;2,35282
3144,42113;2,35266
3142,36998;2,35046
3140,31882;2,34715
3138,26767;2,34669
3136,21651;2,34998
3134,16536;2,35138
3132,1142;2,34898
3130,06305;2,34458
3128,01189;2,33963
3125,96074;2,33653
3123,90958;2,33636
3121,85842;2,33772
3119,80727;2,33861
3117,75611;2,33808
3115,70496;2,3367
3113,6538;2,33535
3111,60265;2,33291
3109,55149;2,33041
3107,50034;2,33158
3105,44918;2,33478
3103,39803;2,33651
3101,34687;2,33688
3099,29572;2,33501
3097,24456;2,33203
3095,19341;2,33222
3093,14225;2,33457
3091,09109;2,3348
3089,03994;2,33358
3086,98878;2,33502
3084,93763;2,34039
3082,88647;2,34519
3080,83532;2,34621
3078,78416;2,34474
3076,73301;2,34094
3074,68185;2,33738
3072,6307;2,33787
3070,57954;2,3404
3068,52839;2,34033
3066,47723;2,33602
3064,42608;2,33036
3062,37492;2,32718
3060,32376;2,32794
3058,27261;2,33095
3056,22145;2,3324
3054,1703;2,33171
3052,11914;2,3307
3050,06799;2,3304
3048,01683;2,33008
3045,96568;2,32858
3043,91452;2,32758
3041,86337;2,32775
3039,81221;2,32627
3037,76106;2,32263
3035,7099;2,32085
3033,65875;2,32202
3031,60759;2,32225
3029,55643;2,32082
3027,50528;2,32128
3025,45412;2,32428
3023,40297;2,32679
3021,35181;2,32769
3019,30066;2,329
3017,2495;2,33213
3015,19835;2,33551
3013,14719;2,33767
3011,09604;2,34017
3009,04488;2,34365
3006,99373;2,3463
3004,94257;2,34869
3002,89142;2,35119
3000,84026;2,35161
2998,7891;2,35123
2996,73795;2,35213
2994,68679;2,35192
2992,63564;2,35101
2990,58448;2,3531
2988,53333;2,35765
2986,48217;2,36297
2984,43102;2,36828
2982,37986;2,37315
2980,32871;2,37999
2978,27755;2,39056
2976,2264;2,40243
2974,17524;2,41177
2972,12409;2,42103
2970,07293;2,43289
2968,02177;2,44328
2965,97062;2,45094
2963,91946;2,45664
2961,86831;2,46047
2959,81715;2,46312
2957,766;2,46342
2955,71484;2,4652
2953,66369;2,47196
2951,61253;2,47894
2949,56138;2,48235
2947,51022;2,48163
2945,45907;2,48133
2943,40791;2,48418
2941,35675;2,48549
2939,3056;2,48595
2937,25444;2,49077
2935,20329;2,49792
2933,15213;2,50197
2931,10098;2,50149
2929,04982;2,49458
2926,99867;2,485
2924,94751;2,47823
2922,89636;2,47048
2920,8452;2,46219
2918,79405;2,45873
2916,74289;2,45689
2914,69174;2,45186
2912,64058;2,44584
2910,58942;2,44195
2908,53827;2,4388
2906,48711;2,4345
2904,43596;2,43068
2902,3848;2,42769
2900,33365;2,42309
2898,28249;2,41695
2896,23134;2,41167
2894,18018;2,41089
2892,12903;2,41015
2890,07787;2,40307
2888,02672;2,39716
2885,97556;2,39675
2883,92441;2,39882
2881,87325;2,40396
2879,82209;2,41021
2877,77094;2,41411
2875,71978;2,41468
2873,66863;2,41425
2871,61747;2,41687
2869,56632;2,42131
2867,51516;2,42415
2865,46401;2,42731
2863,41285;2,4351
2861,3617;2,44571
2859,31054;2,45401
2857,25939;2,45689
2855,20823;2,45371
2853,15708;2,44753
2851,10592;2,43932
2849,05476;2,43032
2847,00361;2,42061
2844,95245;2,40553
2842,9013;2,38552
2840,85014;2,36698
2838,79899;2,35259
2836,74783;2,34162
2834,69668;2,33335
2832,64552;2,32517
2830,59437;2,31544
2828,54321;2,30458
2826,49206;2,29414
2824,4409;2,28631
2822,38975;2,281
2820,33859;2,27618
2818,28743;2,26987
2816,23628;2,26323
2814,18512;2,2584
2812,13397;2,25431
2810,08281;2,2494
2808,03166;2,2437
2805,9805;2,23816
2803,92935;2,23473
2801,87819;2,23277
2799,82704;2,23041
2797,77588;2,2269
2795,72473;2,22157
2793,67357;2,21672
2791,62242;2,21381
2789,57126;2,21129
2787,5201;2,20911
2785,46895;2,20762
2783,41779;2,2043
2781,36664;2,19892
2779,31548;2,19499
2777,26433;2,19279
2775,21317;2,19096
2773,16202;2,18864
2771,11086;2,18502
2769,05971;2,18183
2767,00855;2,18116
2764,9574;2,18048
2762,90624;2,17705
2760,85509;2,17407
2758,80393;2,17363
2756,75277;2,17357
2754,70162;2,17311
2752,65046;2,17253
2750,59931;2,17085
2748,54815;2,16788
2746,497;2,16557
2744,44584;2,16472
2742,39469;2,16364
2740,34353;2,16168
2738,29238;2,16114
2736,24122;2,16191
2734,19007;2,16041
2732,13891;2,15683
2730,08776;2,15416
2728,0366;2,15331
2725,98544;2,15422
2723,93429;2,15497
2721,88313;2,15354
2719,83198;2,15117
2717,78082;2,14886
2715,72967;2,14654
2713,67851;2,14488
2711,62736;2,14426
2709,5762;2,14403
2707,52505;2,14329
2705,47389;2,14203
2703,42274;2,1407
2701,37158;2,13966
2699,32043;2,14001
2697,26927;2,14187
2695,21811;2,14292
2693,16696;2,1418
2691,1158;2,13961
2689,06465;2,13765
2687,01349;2,13669
2684,96234;2,13684
2682,91118;2,13792
2680,86003;2,13989
2678,80887;2,14191
2676,75772;2,14203
2674,70656;2,13995
2672,65541;2,13752
2670,60425;2,13587
2668,55309;2,13497
2666,50194;2,13428
2664,45078;2,13287
2662,39963;2,13033
2660,34847;2,12803
2658,29732;2,12774
2656,24616;2,12857
2654,19501;2,12887
2652,14385;2,12898
2650,0927;2,12898
2648,04154;2,12802
2645,99039;2,12675
2643,93923;2,12656
2641,88808;2,12723
2639,83692;2,12828
2637,78576;2,13057
2635,73461;2,13424
2633,68345;2,13775
2631,6323;2,1404
2629,58114;2,1431
2627,52999;2,14622
2625,47883;2,14899
2623,42768;2,15106
2621,37652;2,15297
2619,32537;2,1542
2617,27421;2,15453
2615,22306;2,15623
2613,1719;2,15969
2611,12075;2,16178
2609,06959;2,16191
2607,01843;2,16153
2604,96728;2,16139
2602,91612;2,16266
2600,86497;2,16403
2598,81381;2,16373
2596,76266;2,16359
2594,7115;2,16409
2592,66035;2,16382
2590,60919;2,16333
2588,55804;2,1633
2586,50688;2,16324
2584,45573;2,16353
2582,40457;2,1637
2580,35342;2,16334
2578,30226;2,16318
2576,2511;2,1622
2574,19995;2,16044
2572,14879;2,15981
2570,09764;2,16053
2568,04648;2,16213
2565,99533;2,16319
2563,94417;2,1618
2561,89302;2,15898
2559,84186;2,15766
2557,79071;2,1588
2555,73955;2,16051
2553,6884;2,16146
2551,63724;2,16236
2549,58609;2,16306
2547,53493;2,16268
2545,48377;2,16259
2543,43262;2,16436
2541,38146;2,16635
2539,33031;2,16845
2537,27915;2,17262
2535,228;2,17721
2533,17684;2,18042
2531,12569;2,18317
2529,07453;2,18554
2527,02338;2,1874
2524,97222;2,1892
2522,92107;2,19123
2520,86991;2,1944
2518,81876;2,1982
2516,7676;2,19992
2514,71644;2,19889
2512,66529;2,19674
2510,61413;2,19463
2508,56298;2,19311
2506,51182;2,19276
2504,46067;2,19342
2502,40951;2,19241
2500,35836;2,18858
2498,3072;2,18346
2496,25605;2,17763
2494,20489;2,17208
2492,15374;2,16728
2490,10258;2,16159
2488,05143;2,1557
2486,00027;2,15182
2483,94911;2,1492
2481,89796;2,14596
2479,8468;2,1415
2477,79565;2,13559
2475,74449;2,12896
2473,69334;2,12279
2471,64218;2,11686
2469,59103;2,11128
2467,53987;2,10675
2465,48872;2,10279
2463,43756;2,09794
2461,38641;2,09261
2459,33525;2,08885
2457,2841;2,08754
2455,23294;2,08734
2453,18178;2,08552
2451,13063;2,08103
2449,07947;2,07614
2447,02832;2,07299
2444,97716;2,0709
2442,92601;2,0688
2440,87485;2,06733
2438,8237;2,06644
2436,77254;2,06461
2434,72139;2,06198
2432,67023;2,05971
2430,61908;2,05777
2428,56792;2,05615
2426,51677;2,05505
2424,46561;2,05422
2422,41445;2,05245
2420,3633;2,05054
2418,31214;2,05087
2416,26099;2,05141
2414,20983;2,04912
2412,15868;2,04667
2410,10752;2,04651
2408,05637;2,0456
2406,00521;2,04381
2403,95406;2,04421
2401,9029;2,04523
2399,85175;2,04437
2397,80059;2,04256
2395,74944;2,04099
2393,69828;2,03977
2391,64712;2,03888
2389,59597;2,03852
2387,54481;2,03835
2385,49366;2,03816
2383,4425;2,03866
2381,39135;2,04004
2379,34019;2,04115
2377,28904;2,04125
2375,23788;2,04139
2373,18673;2,04227
2371,13557;2,04209
2369,08442;2,04009
2367,03326;2,03796
2364,9821;2,03511
2362,93095;2,03123
2360,87979;2,03015
2358,82864;2,03315
2356,77748;2,03688
2354,72633;2,03916
2352,67517;2,04041
2350,62402;2,04166
2348,57286;2,0431
2346,52171;2,04403
2344,47055;2,04354
2342,4194;2,04168
2340,36824;2,04022
2338,31709;2,04089
2336,26593;2,04308
2334,21477;2,04375
2332,16362;2,04159
2330,11246;2,03955
2328,06131;2,04002
2326,01015;2,04233
2323,959;2,04508
2321,90784;2,04647
2319,85669;2,04602
2317,80553;2,04552
2315,75438;2,04612
2313,70322;2,04717
2311,65207;2,04733
2309,60091;2,04606
2307,54976;2,04495
2305,4986;2,04531
2303,44744;2,04618
2301,39629;2,04629
2299,34513;2,04512
2297,29398;2,04307
2295,24282;2,04179
2293,19167;2,04177
2291,14051;2,04144
2289,08936;2,04009
2287,0382;2,03907
2284,98705;2,03932
2282,93589;2,04003
2280,88474;2,0403
2278,83358;2,0401
2276,78243;2,03954
2274,73127;2,03898
2272,68011;2,03907
2270,62896;2,03989
2268,5778;2,04069
2266,52665;2,04129
2264,47549;2,04249
2262,42434;2,04442
2260,37318;2,04596
2258,32203;2,04616
2256,27087;2,04516
2254,21972;2,04425
2252,16856;2,04478
2250,11741;2,04623
2248,06625;2,04809
2246,0151;2,05061
2243,96394;2,05316
2241,91278;2,05418
2239,86163;2,05482
2237,81047;2,05617
2235,75932;2,05706
2233,70816;2,05761
2231,65701;2,05918
2229,60585;2,0613
2227,5547;2,06303
2225,50354;2,06461
2223,45239;2,06546
2221,40123;2,06611
2219,35008;2,06756
2217,29892;2,06837
2215,24777;2,06883
2213,19661;2,07058
2211,14545;2,0721
2209,0943;2,07179
2207,04314;2,07152
2204,99199;2,07198
2202,94083;2,072
2200,88968;2,07216
2198,83852;2,0722
2196,78737;2,0711
2194,73621;2,07126
2192,68506;2,07442
2190,6339;2,07766
2188,58275;2,07898
2186,53159;2,07941
2184,48044;2,08034
2182,42928;2,08184
2180,37812;2,08236
2178,32697;2,08157
2176,27581;2,08109
2174,22466;2,08201
2172,1735;2,08418
2170,12235;2,08644
2168,07119;2,08772
2166,02004;2,08909
2163,96888;2,09156
2161,91773;2,09436
2159,86657;2,09668
2157,81542;2,09914
2155,76426;2,10373
2153,71311;2,10961
2151,66195;2,11313
2149,61079;2,11388
2147,55964;2,1145
2145,50848;2,11609
2143,45733;2,11778
2141,40617;2,11931
2139,35502;2,12064
2137,30386;2,12066
2135,25271;2,11922
2133,20155;2,11757
2131,1504;2,11624
2129,09924;2,11452
2127,04809;2,11155
2124,99693;2,10718
2122,94578;2,10295
2120,89462;2,10074
2118,84346;2,09941
2116,79231;2,09665
2114,74115;2,09326
2112,69;2,09119
2110,63884;2,09047
2108,58769;2,08942
2106,53653;2,0877
2104,48538;2,08752
2102,43422;2,08896
2100,38307;2,0898
2098,33191;2,0897
2096,28076;2,08909
2094,2296;2,08875
2092,17844;2,08988
2090,12729;2,09134
2088,07613;2,09175
2086,02498;2,09173
2083,97382;2,09188
2081,92267;2,09249
2079,87151;2,09362
2077,82036;2,0941
2075,7692;2,09338
2073,71805;2,0925
2071,66689;2,09251
2069,61574;2,09353
2067,56458;2,09488
2065,51343;2,09562
2063,46227;2,09564
2061,41111;2,09584
2059,35996;2,09679
2057,3088;2,09829
2055,25765;2,10006
2053,20649;2,10182
2051,15534;2,10279
2049,10418;2,10248
2047,05303;2,10222
2045,00187;2,10311
2042,95072;2,10399
2040,89956;2,1037
2038,84841;2,10282
2036,79725;2,10256
2034,7461;2,10327
2032,69494;2,10458
2030,64378;2,10616
2028,59263;2,10717
2026,54147;2,1072
2024,49032;2,10751
2022,43916;2,10839
2020,38801;2,10836
2018,33685;2,10752
2016,2857;2,10698
2014,23454;2,10699
2012,18339;2,10773
2010,13223;2,10859
2008,08108;2,10873
2006,02992;2,10856
2003,97877;2,1084
2001,92761;2,10855
1999,87645;2,10887
1997,8253;2,10858
1995,77414;2,10815
1993,72299;2,10822
1991,67183;2,10872
1989,62068;2,11007
1987,56952;2,11169
1985,51837;2,11227
1983,46721;2,11197
1981,41606;2,11194
1979,3649;2,1131
1977,31375;2,11495
1975,26259;2,11649
1973,21144;2,11768
1971,16028;2,1188
1969,10912;2,11955
1967,05797;2,12089
1965,00681;2,12488
1962,95566;2,12924
1960,9045;2,13019
1958,85335;2,12899
1956,80219;2,12758
1954,75104;2,12587
1952,69988;2,12507
1950,64873;2,12522
1948,59757;2,12545
1946,54642;2,12706
1944,49526;2,12963
1942,44411;2,12992
1940,39295;2,12779
1938,34179;2,1264
1936,29064;2,12726
1934,23948;2,12931
1932,18833;2,13098
1930,13717;2,13225
1928,08602;2,13374
1926,03486;2,13508
1923,98371;2,13579
1921,93255;2,13587
1919,8814;2,13504
1917,83024;2,13415
1915,77909;2,13575
1913,72793;2,1395
1911,67678;2,14231
1909,62562;2,14265
1907,57446;2,14233
1905,52331;2,14351
1903,47215;2,1456
1901,421;2,14715
1899,36984;2,14778
1897,31869;2,14826
1895,26753;2,14941
1893,21638;2,15149
1891,16522;2,1535
1889,11407;2,15407
1887,06291;2,1543
1885,01176;2,15521
1882,9606;2,15622
1880,90945;2,15799
1878,85829;2,16114
1876,80713;2,16422
1874,75598;2,16595
1872,70482;2,16667
1870,65367;2,16655
1868,60251;2,16618
1866,55136;2,16773
1864,5002;2,17164
1862,44905;2,17608
1860,39789;2,17978
1858,34674;2,18239
1856,29558;2,18414
1854,24443;2,18581
1852,19327;2,18835
1850,14212;2,19155
1848,09096;2,19437
1846,0398;2,19652
1843,98865;2,19836
1841,93749;2,20052
1839,88634;2,20323
1837,83518;2,20575
1835,78403;2,20768
1833,73287;2,20976
1831,68172;2,21257
1829,63056;2,21634
1827,57941;2,22134
1825,52825;2,22637
1823,4771;2,23025
1821,42594;2,23395
1819,37478;2,23849
1817,32363;2,24267
1815,27247;2,24581
1813,22132;2,25073
1811,17016;2,25978
1809,11901;2,26989
1807,06785;2,27752
1805,0167;2,28464
1802,96554;2,29382
1800,91439;2,30296
1798,86323;2,30974
1796,81208;2,31571
1794,76092;2,32229
1792,70977;2,32869
1790,65861;2,33232
1788,60745;2,33122
1786,5563;2,32659
1784,50514;2,32194
1782,45399;2,32045
1780,40283;2,32178
1778,35168;2,32441
1776,30052;2,32884
1774,24937;2,33611
1772,19821;2,34492
1770,14706;2,35388
1768,0959;2,36462
1766,04475;2,37813
1763,99359;2,39365
1761,94244;2,41241
1759,89128;2,43511
1757,84012;2,45828
1755,78897;2,47857
1753,73781;2,4955
1751,68666;2,50889
1749,6355;2,515
1747,58435;2,51253
1745,53319;2,50617
1743,48204;2,49606
1741,43088;2,48105
1739,37973;2,46629
1737,32857;2,45644
1735,27742;2,44984
1733,22626;2,44409
1731,17511;2,43882
1729,12395;2,43303
1727,07279;2,42818
1725,02164;2,42457
1722,97048;2,42026
1720,91933;2,41613
1718,86817;2,41179
1716,81702;2,40602
1714,76586;2,40349
1712,71471;2,40648
1710,66355;2,41116
1708,6124;2,41435
1706,56124;2,41654
1704,51009;2,42085
1702,45893;2,42656
1700,40778;2,43151
1698,35662;2,43935
1696,30546;2,4507
1694,25431;2,45967
1692,20315;2,46436
1690,152;2,46715
1688,10084;2,47026
1686,04969;2,4738
1683,99853;2,47481
1681,94738;2,47384
1679,89622;2,47403
1677,84507;2,47436
1675,79391;2,47361
1673,74276;2,47238
1671,6916;2,47076
1669,64045;2,46846
1667,58929;2,46805
1665,53813;2,4695
1663,48698;2,46763
1661,43582;2,46267
1659,38467;2,46032
1657,33351;2,45972
1655,28236;2,45668
1653,2312;2,44973
1651,18005;2,44096
1649,12889;2,43195
1647,07774;2,42362
1645,02658;2,42187
1642,97543;2,4257
1640,92427;2,42678
1638,87312;2,42251
1636,82196;2,41605
1634,7708;2,41093
1632,71965;2,40892
1630,66849;2,40754
1628,61734;2,40376
1626,56618;2,39833
1624,51503;2,39411
1622,46387;2,39186
1620,41272;2,39051
1618,36156;2,38855
1616,31041;2,3865
1614,25925;2,38643
1612,2081;2,38634
1610,15694;2,3841
1608,10579;2,3815
1606,05463;2,38094
1604,00347;2,38203
1601,95232;2,38294
1599,90116;2,3836
1597,85001;2,38468
1595,79885;2,38544
1593,7477;2,38584
1591,69654;2,38735
1589,64539;2,39033
1587,59423;2,39303
1585,54308;2,39419
1583,49192;2,39537
1581,44077;2,39839
1579,38961;2,40103
1577,33846;2,39903
1575,2873;2,3938
1573,23614;2,39225
1571,18499;2,39417
1569,13383;2,39478
1567,08268;2,39224
1565,03152;2,38713
1562,98037;2,3814
1560,92921;2,37641
1558,87806;2,37154
1556,8269;2,36887
1554,77575;2,36832
1552,72459;2,3665
1550,67344;2,36272
1548,62228;2,35919
1546,57113;2,3567
1544,51997;2,35298
1542,46881;2,34688
1540,41766;2,33966
1538,3665;2,33723
1536,31535;2,34122
1534,26419;2,34357
1532,21304;2,34076
1530,16188;2,33738
1528,11073;2,33512
1526,05957;2,33261
1524,00842;2,33078
1521,95726;2,33051
1519,90611;2,33027
1517,85495;2,3285
1515,80379;2,32506
1513,75264;2,32071
1511,70148;2,31557
1509,65033;2,31064
1507,59917;2,30757
1505,54802;2,30698
1503,49686;2,30843
1501,44571;2,30882
1499,39455;2,30651
1497,3434;2,30506
1495,29224;2,30867
1493,24109;2,31454
1491,18993;2,31668
1489,13878;2,31422
1487,08762;2,31301
1485,03646;2,31497
1482,98531;2,31768
1480,93415;2,32153
1478,883;2,32733
1476,83184;2,33359
1474,78069;2,34105
1472,72953;2,35234
1470,67838;2,3649
1468,62722;2,3732
1466,57607;2,37523
1464,52491;2,37339
1462,47376;2,37236
1460,4226;2,37172
1458,37145;2,3671
1456,32029;2,36087
1454,26913;2,35955
1452,21798;2,36071
1450,16682;2,3618
1448,11567;2,36194
1446,06451;2,36001
1444,01336;2,35737
1441,9622;2,35612
1439,91105;2,35692
1437,85989;2,35749
1435,80874;2,35605
1433,75758;2,35482
1431,70643;2,3542
1429,65527;2,35343
1427,60412;2,35411
1425,55296;2,35575
1423,5018;2,35574
1421,45065;2,35467
1419,39949;2,35405
1417,34834;2,35259
1415,29718;2,34993
1413,24603;2,34749
1411,19487;2,34604
1409,14372;2,34576
1407,09256;2,34701
1405,04141;2,3498
1402,99025;2,35264
1400,9391;2,35398
1398,88794;2,35421
1396,83679;2,35453
1394,78563;2,35541
1392,73447;2,35806
1390,68332;2,36451
1388,63216;2,37306
1386,58101;2,3784
1384,52985;2,3786
1382,4787;2,37649
1380,42754;2,3748
1378,37639;2,37526
1376,32523;2,37841
1374,27408;2,38221
1372,22292;2,38297
1370,17177;2,37977
1368,12061;2,37564
1366,06946;2,37332
1364,0183;2,37233
1361,96714;2,37165
1359,91599;2,37215
1357,86483;2,37447
1355,81368;2,37815
1353,76252;2,38216
1351,71137;2,38523
1349,66021;2,38613
1347,60906;2,3848
1345,5579;2,38278
1343,50675;2,38022
1341,45559;2,37673
1339,40444;2,37534
1337,35328;2,37822
1335,30213;2,38235
1333,25097;2,38493
1331,19981;2,38542
1329,14866;2,38392
1327,0975;2,38224
1325,04635;2,38292
1322,99519;2,38652
1320,94404;2,39025
1318,89288;2,3913
1316,84173;2,391
1314,79057;2,39038
1312,73942;2,3889
1310,68826;2,38755
1308,63711;2,38724
1306,58595;2,38779
1304,5348;2,38791
1302,48364;2,38766
1300,43248;2,38823
1298,38133;2,38927
1296,33017;2,38983
1294,27902;2,38958
1292,22786;2,38991
1290,17671;2,39158
1288,12555;2,39285
1286,0744;2,39252
1284,02324;2,39272
1281,97209;2,39601
1279,92093;2,40049
1277,86978;2,40335
1275,81862;2,40373
1273,76747;2,40267
1271,71631;2,40286
1269,66515;2,40391
1267,614;2,40421
1265,56284;2,40396
1263,51169;2,40348
1261,46053;2,40435
1259,40938;2,4069
1257,35822;2,40802
1255,30707;2,40805
1253,25591;2,40876
1251,20476;2,40698
1249,1536;2,40315
1247,10245;2,40311
1245,05129;2,40527
1243,00013;2,40259
1240,94898;2,39586
1238,89782;2,39046
1236,84667;2,38839
1234,79551;2,38748
1232,74436;2,38448
1230,6932;2,38153
1228,64205;2,38099
1226,59089;2,38078
1224,53974;2,38106
1222,48858;2,38234
1220,43743;2,3817
1218,38627;2,37838
1216,33512;2,3751
1214,28396;2,37328
1212,2328;2,3709
1210,18165;2,36874
1208,13049;2,36956
1206,07934;2,37194
1204,02818;2,37438
1201,97703;2,3761
1199,92587;2,3769
1197,87472;2,37949
1195,82356;2,38357
1193,77241;2,38652
1191,72125;2,38963
1189,6701;2,39213
1187,61894;2,39008
1185,56779;2,38772
1183,51663;2,38931
1181,46547;2,39116
1179,41432;2,39074
1177,36316;2,38953
1175,31201;2,3887
1173,26085;2,3888
1171,2097;2,39007
1169,15854;2,3906
1167,10739;2,39091
1165,05623;2,39256
1163,00508;2,39186
1160,95392;2,38936
1158,90277;2,39056
1156,85161;2,39274
1154,80046;2,3908
1152,7493;2,3865
1150,69814;2,38364
1148,64699;2,38369
1146,59583;2,3856
1144,54468;2,38817
1142,49352;2,38861
1140,44237;2,38469
1138,39121;2,38033
1136,34006;2,37831
1134,2889;2,37803
1132,23775;2,38016
1130,18659;2,38454
1128,13544;2,38913
1126,08428;2,39177
1124,03313;2,39169
1121,98197;2,39158
1119,93081;2,39374
1117,87966;2,39592
1115,8285;2,39731
1113,77735;2,39761
1111,72619;2,39596
1109,67504;2,39461
1107,62388;2,39209
1105,57273;2,38664
1103,52157;2,38299
1101,47042;2,38437
1099,41926;2,38634
1097,36811;2,38378
1095,31695;2,37864
1093,2658;2,37435
1091,21464;2,37273
1089,16348;2,37323
1087,11233;2,37233
1085,06117;2,36893
1083,01002;2,36543
1080,95886;2,36502
1078,90771;2,3663
1076,85655;2,36471
1074,8054;2,36096
1072,75424;2,35831
1070,70309;2,35779
1068,65193;2,35889
1066,60078;2,3583
1064,54962;2,35367
1062,49847;2,34837
1060,44731;2,34512
1058,39615;2,34216
1056,345;2,33741
1054,29384;2,33191
1052,24269;2,32854
1050,19153;2,32845
1048,14038;2,32895
1046,08922;2,32718
1044,03807;2,32593
1041,98691;2,32856
1039,93576;2,33106
1037,8846;2,33112
1035,83345;2,33443
1033,78229;2,34059
1031,73114;2,3422
1029,67998;2,33896
1027,62882;2,33551
1025,57767;2,33392
1023,52651;2,33429
1021,47536;2,33601
1019,4242;2,33981
1017,37305;2,34692
1015,32189;2,35354
1013,27074;2,35472
1011,21958;2,35281
1009,16843;2,35205
1007,11727;2,35261
1005,06612;2,35388
1003,01496;2,35444
1000,96381;2,35185
998,91265;2,34773
996,86149;2,34763
994,81034;2,35295
992,75918;2,35753
990,70803;2,35814
988,65687;2,3567
986,60572;2,35441
984,55456;2,35465
982,50341;2,35812
980,45225;2,35915
978,4011;2,35658
976,34994;2,35298
974,29879;2,34807
972,24763;2,34469
970,19647;2,3444
968,14532;2,34188
966,09416;2,33625
964,04301;2,33347
961,99185;2,3347
959,9407;2,33552
957,88954;2,33516
955,83839;2,33454
953,78723;2,3339
951,73608;2,33557
949,68492;2,33763
947,63377;2,33666
945,58261;2,33599
943,53146;2,33726
941,4803;2,33723
939,42914;2,33596
937,37799;2,33577
935,32683;2,33665
933,27568;2,33808
931,22452;2,33907
929,17337;2,34025
927,12221;2,34305
925,07106;2,34295
923,0199;2,33945
920,96875;2,33823
918,91759;2,33787
916,86644;2,33721
914,81528;2,3388
912,76413;2,34045
910,71297;2,33941
908,66181;2,33648
906,61066;2,33439
904,5595;2,33462
902,50835;2,33505
900,45719;2,3342
898,40604;2,33293
896,35488;2,33096
894,30373;2,32703
892,25257;2,31681
890,20142;2,29974
888,15026;2,28708
886,09911;2,28915
884,04795;2,30465
881,9968;2,32226
879,94564;2,33455
877,89448;2,3407
875,84333;2,33586
873,79217;2,32688
871,74102;2,3316
869,68986;2,3505
867,63871;2,36815
865,58755;2,37683
863,5364;2,37631
861,48524;2,37011
859,43409;2,36783
857,38293;2,37419
855,33178;2,38338
853,28062;2,38853
851,22947;2,39274
849,17831;2,39809
847,12715;2,39852
845,076;2,39325
843,02484;2,38765
840,97369;2,38482
838,92253;2,38427
836,87138;2,38252
834,82022;2,37998
832,76907;2,37881
830,71791;2,37559
828,66676;2,37292
826,6156;2,37539
824,56445;2,38024
822,51329;2,38554
820,46214;2,39045
818,41098;2,39331
816,35982;2,39386
814,30867;2,39143
812,25751;2,38673
810,20636;2,38319
808,1552;2,38189
806,10405;2,38084
804,05289;2,38009
802,00174;2,37992
799,95058;2,37998
797,89943;2,38381
795,84827;2,39176
793,79712;2,39994
791,74596;2,40429
789,69481;2,40183
787,64365;2,39767
785,59249;2,39655
783,54134;2,39722
781,49018;2,39678
779,43903;2,39895
777,38787;2,40597
775,33672;2,40557
773,28556;2,39717
771,23441;2,39473
769,18325;2,39944
767,1321;2,40703
765,08094;2,41396
763,02979;2,41113
760,97863;2,40267
758,92748;2,39832
756,87632;2,39586
754,82516;2,39651
752,77401;2,40301
750,72285;2,40864
748,6717;2,41018
746,62054;2,41196
744,56939;2,41356
742,51823;2,41639
740,46708;2,42118
738,41592;2,42519
736,36477;2,43207
734,31361;2,43882
732,26246;2,43578
730,2113;2,42901
728,16015;2,42561
726,10899;2,42155
724,05783;2,42105
722,00668;2,42647
719,95552;2,43386
717,90437;2,43604
715,85321;2,43167
713,80206;2,42862
711,7509;2,43137
709,69975;2,43729
707,64859;2,44079
705,59744;2,43925
703,54628;2,43668
701,49513;2,43448
699,44397;2,43234
697,39281;2,43647
695,34166;2,44689
693,2905;2,45418
691,23935;2,45195
689,18819;2,44045
687,13704;2,42904
685,08588;2,42311
683,03473;2,42161
680,98357;2,42375
678,93242;2,42464
676,88126;2,42473
674,83011;2,43001
672,77895;2,4394
670,7278;2,4453
668,67664;2,44228
666,62548;2,43448
664,57433;2,42982
662,52317;2,42874
660,47202;2,43247
658,42086;2,43668
656,36971;2,43036
654,31855;2,41585
652,2674;2,40916
650,21624;2,41732
648,16509;2,43433
646,11393;2,45193
644,06278;2,4638
642,01162;2,46627
639,96047;2,46354
637,90931;2,46385
635,85815;2,4671
633,807;2,46725
631,75584;2,46541
629,70469;2,4698
627,65353;2,47996
625,60238;2,47911
623,55122;2,46786
621,50007;2,46154
619,44891;2,4678
617,39776;2,47911
615,3466;2,48592
613,29545;2,49267
611,24429;2,50006
609,19314;2,49877
607,14198;2,49093
605,09082;2,49109
603,03967;2,49852
600,98851;2,5005
598,93736;2,49312
596,8862;2,48946
594,83505;2,50118
592,78389;2,52281
590,73274;2,54269
588,68158;2,55894
586,63043;2,56249
584,57927;2,54768
582,52812;2,54635
580,47696;2,57411
578,42581;2,59499
576,37465;2,581
574,32349;2,5565
572,27234;2,55339
570,22118;2,57785
568,17003;2,60475
566,11887;2,60683
564,06772;2,61309
562,01656;2,64457
559,96541;2,65963
557,91425;2,63736
555,8631;2,62773
553,81194;2,65466
551,76079;2,67488
549,70963;2,66382
547,65848;2,65714
545,60732;2,66659
543,55616;2,66822
541,50501;2,63674
539,45385;2,58787
537,4027;2,55465
535,35154;2,53265
533,30039;2,50297
531,24923;2,46123
529,19808;2,41983
527,14692;2,40589
525,09577;2,41767
523,04461;2,41355
520,99346;2,38763
518,9423;2,38087
516,89115;2,39979
514,83999;2,41039
512,78883;2,40896
510,73768;2,40896
508,68652;2,40832
506,63537;2,40929
504,58421;2,41733
502,53306;2,42356
500,4819;2,42111
498,43075;2,41976
496,37959;2,41961
494,32844;2,40723
492,27728;2,3851
490,22613;2,37615
488,17497;2,38618
486,12382;2,38603
484,07266;2,36614
482,0215;2,35483
479,97035;2,34627
477,91919;2,32003
475,86804;2,29476
473,81688;2,28179
471,76573;2,26768
469,71457;2,25675
467,66342;2,25982
465,61226;2,26673
463,56111;2,25474
461,50995;2,22318
459,4588;2,19007
457,40764;2,16796
455,35649;2,15629
453,30533;2,14195
451,25417;2,12528
449,20302;2,11808
447,15186;2,1173
445,10071;2,11579
443,04955;2,1156
440,9984;2,11408
438,94724;2,10959
436,89609;2,11088
434,84493;2,11161
432,79378;2,09533
430,74262;2,07939
428,69147;2,0931
426,64031;2,12193
424,58916;2,13014
422,538;2,11632
420,48684;2,10345
418,43569;2,11049
416,38453;2,13619
414,33338;2,15977
412,28222;2,17629
410,23107;2,20115
408,17991;2,22616
406,12876;2,21611
404,0776;2,17601
402,02645;2,1425
399,97529;2,12836
