3997,70175;1,78105
3995,6506;1,78357
3993,59944;1,78581
3991,54829;1,78644
3989,49713;1,78548
3987,44598;1,7848
3985,39482;1,78526
3983,34367;1,78587
3981,29251;1,78614
3979,24136;1,7866
3977,1902;1,78662
3975,13905;1,78586
3973,08789;1,78584
3971,03673;1,7874
3968,98558;1,7894
3966,93442;1,7907
3964,88327;1,79115
3962,83211;1,79143
3960,78096;1,79266
3958,7298;1,79437
3956,67865;1,79532
3954,62749;1,79616
3952,57634;1,79717
3950,52518;1,79764
3948,47403;1,79817
3946,42287;1,79899
3944,37172;1,799
3942,32056;1,79802
3940,2694;1,79665
3938,21825;1,79536
3936,16709;1,79505
3934,11594;1,79482
3932,06478;1,79221
3930,01363;1,78799
3927,96247;1,78487
3925,91132;1,78271
3923,86016;1,78133
3921,80901;1,78128
3919,75785;1,78074
3917,7067;1,77823
3915,65554;1,77541
3913,60439;1,77384
3911,55323;1,77293
3909,50207;1,7716
3907,45092;1,7693
3905,39976;1,76672
3903,34861;1,76526
3901,29745;1,76482
3899,2463;1,76432
3897,19514;1,76391
3895,14399;1,76367
3893,09283;1,76231
3891,04168;1,76015
3888,99052;1,76025
3886,93937;1,76173
3884,88821;1,76237
3882,83706;1,76243
3880,7859;1,76139
3878,73474;1,76051
3876,68359;1,76083
3874,63243;1,76057
3872,58128;1,75971
3870,53012;1,75895
3868,47897;1,75882
3866,42781;1,75848
3864,37666;1,75714
3862,3255;1,75615
3860,27435;1,75604
3858,22319;1,7566
3856,17204;1,75688
3854,12088;1,75504
3852,06973;1,75277
3850,01857;1,75299
3847,96741;1,75475
3845,91626;1,75584
3843,8651;1,75511
3841,81395;1,7534
3839,76279;1,75109
3837,71164;1,74861
3835,66048;1,74837
3833,60933;1,75048
3831,55817;1,75292
3829,50702;1,75439
3827,45586;1,75417
3825,40471;1,75331
3823,35355;1,75174
3821,3024;1,74879
3819,25124;1,74861
3817,20008;1,75135
3815,14893;1,75358
3813,09777;1,75494
3811,04662;1,75586
3808,99546;1,75602
3806,94431;1,75555
3804,89315;1,75625
3802,842;1,75706
3800,79084;1,75721
3798,73969;1,75772
3796,68853;1,758
3794,63738;1,75893
3792,58622;1,76045
3790,53506;1,76163
3788,48391;1,76248
3786,43275;1,7628
3784,3816;1,76301
3782,33044;1,76429
3780,27929;1,76565
3778,22813;1,76622
3776,17698;1,76692
3774,12582;1,76806
3772,07467;1,76868
3770,02351;1,76859
3767,97236;1,76955
3765,9212;1,77121
3763,87005;1,77245
3761,81889;1,77362
3759,76773;1,77496
3757,71658;1,77657
3755,66542;1,77861
3753,61427;1,78014
3751,56311;1,78039
3749,51196;1,7825
3747,4608;1,78803
3745,40965;1,79145
3743,35849;1,7913
3741,30734;1,79171
3739,25618;1,79336
3737,20503;1,79499
3735,15387;1,79593
3733,10272;1,79711
3731,05156;1,80065
3729,0004;1,80566
3726,94925;1,80908
3724,89809;1,81092
3722,84694;1,81308
3720,79578;1,81611
3718,74463;1,81923
3716,69347;1,82196
3714,64232;1,82453
3712,59116;1,82718
3710,54001;1,83038
3708,48885;1,83497
3706,4377;1,84116
3704,38654;1,84901
3702,33539;1,85959
3700,28423;1,87346
3698,23307;1,88711
3696,18192;1,89734
3694,13076;1,90353
3692,07961;1,9048
3690,02845;1,90184
3687,9773;1,89961
3685,92614;1,90173
3683,87499;1,90622
3681,82383;1,91138
3679,77268;1,91708
3677,72152;1,92324
3675,67037;1,92997
3673,61921;1,93853
3671,56806;1,94768
3669,5169;1,95693
3667,46574;1,96741
3665,41459;1,97852
3663,36343;1,9896
3661,31228;2,0003
3659,26112;2,01034
3657,20997;2,0192
3655,15881;2,02781
3653,10766;2,03747
3651,0565;2,04838
3649,00535;2,06291
3646,95419;2,08185
3644,90304;2,0985
3642,85188;2,10782
3640,80073;2,11276
3638,74957;2,11776
3636,69841;2,12346
3634,64726;2,12919
3632,5961;2,13463
3630,54495;2,13972
3628,49379;2,14682
3626,44264;2,1556
3624,39148;2,16202
3622,34033;2,16655
3620,28917;2,17208
3618,23802;2,18109
3616,18686;2,19153
3614,13571;2,19675
3612,08455;2,19611
3610,0334;2,19805
3607,98224;2,20779
3605,93108;2,22049
3603,87993;2,23005
3601,82877;2,23732
3599,77762;2,24529
3597,72646;2,25267
3595,67531;2,25684
3593,62415;2,2597
3591,573;2,2641
3589,52184;2,26985
3587,47069;2,27666
3585,41953;2,28424
3583,36838;2,29149
3581,31722;2,29912
3579,26607;2,30654
3577,21491;2,30929
3575,16375;2,30705
3573,1126;2,30836
3571,06144;2,31679
3569,01029;2,32408
3566,95913;2,32635
3564,90798;2,33084
3562,85682;2,33968
3560,80567;2,34834
3558,75451;2,35432
3556,70336;2,35838
3554,6522;2,36113
3552,60105;2,36094
3550,54989;2,35901
3548,49874;2,3593
3546,44758;2,36333
3544,39642;2,37072
3542,34527;2,37877
3540,29411;2,38625
3538,24296;2,39402
3536,1918;2,40076
3534,14065;2,40378
3532,08949;2,4019
3530,03834;2,3987
3527,98718;2,39891
3525,93603;2,40114
3523,88487;2,40208
3521,83372;2,40237
3519,78256;2,40334
3517,73141;2,40711
3515,68025;2,41511
3513,62909;2,42252
3511,57794;2,42639
3509,52678;2,43102
3507,47563;2,43767
3505,42447;2,44359
3503,37332;2,44626
3501,32216;2,44359
3499,27101;2,43875
3497,21985;2,43565
3495,1687;2,4337
3493,11754;2,43295
3491,06639;2,43576
3489,01523;2,44136
3486,96407;2,44484
3484,91292;2,44461
3482,86176;2,44524
3480,81061;2,44954
3478,75945;2,45505
3476,7083;2,45879
3474,65714;2,46084
3472,60599;2,46345
3470,55483;2,46357
3468,50368;2,4583
3466,45252;2,45451
3464,40137;2,45714
3462,35021;2,46166
3460,29906;2,46284
3458,2479;2,46306
3456,19674;2,46761
3454,14559;2,47166
3452,09443;2,47095
3450,04328;2,47191
3447,99212;2,47354
3445,94097;2,47349
3443,88981;2,47941
3441,83866;2,48936
3439,7875;2,49228
3437,73635;2,48718
3435,68519;2,48401
3433,63404;2,48991
3431,58288;2,4972
3429,53173;2,49496
3427,48057;2,48808
3425,42941;2,48596
3423,37826;2,48811
3421,3271;2,49167
3419,27595;2,49618
3417,22479;2,4964
3415,17364;2,49171
3413,12248;2,48951
3411,07133;2,49109
3409,02017;2,49161
3406,96902;2,48926
3404,91786;2,48801
3402,86671;2,49102
3400,81555;2,49494
3398,7644;2,49413
3396,71324;2,4895
3394,66208;2,487
3392,61093;2,48929
3390,55977;2,49549
3388,50862;2,50259
3386,45746;2,50553
3384,40631;2,50128
3382,35515;2,49535
3380,304;2,49467
3378,25284;2,49826
3376,20169;2,49986
3374,15053;2,49684
3372,09938;2,49348
3370,04822;2,49376
3367,99707;2,49674
3365,94591;2,49876
3363,89475;2,49746
3361,8436;2,49547
3359,79244;2,4974
3357,74129;2,49951
3355,69013;2,49649
3353,63898;2,4937
3351,58782;2,49411
3349,53667;2,49298
3347,48551;2,49145
3345,43436;2,49275
3343,3832;2,49406
3341,33205;2,49378
3339,28089;2,4946
3337,22974;2,49542
3335,17858;2,49377
3333,12742;2,49137
3331,07627;2,48645
3329,02511;2,47869
3326,97396;2,47756
3324,9228;2,48584
3322,87165;2,49308
3320,82049;2,49197
3318,76934;2,48576
3316,71818;2,48098
3314,66703;2,47982
3312,61587;2,48042
3310,56472;2,48123
3308,51356;2,48233
3306,46241;2,48158
3304,41125;2,47571
3302,36009;2,47042
3300,30894;2,47172
3298,25778;2,47751
3296,20663;2,48403
3294,15547;2,48709
3292,10432;2,48867
3290,05316;2,4902
3288,00201;2,48605
3285,95085;2,4789
3283,8997;2,47545
3281,84854;2,47335
3279,79739;2,47031
3277,74623;2,47118
3275,69508;2,47637
3273,64392;2,4815
3271,59276;2,48513
3269,54161;2,48466
3267,49045;2,47965
3265,4393;2,47667
3263,38814;2,47856
3261,33699;2,47979
3259,28583;2,47624
3257,23468;2,47228
3255,18352;2,47358
3253,13237;2,47772
3251,08121;2,47955
3249,03006;2,47773
3246,9789;2,47407
3244,92775;2,47089
3242,87659;2,46899
3240,82543;2,4671
3238,77428;2,46361
3236,72312;2,46107
3234,67197;2,46065
3232,62081;2,45947
3230,56966;2,45928
3228,5185;2,46179
3226,46735;2,46224
3224,41619;2,4593
3222,36504;2,45725
3220,31388;2,45584
3218,26273;2,45178
3216,21157;2,4459
3214,16041;2,44339
3212,10926;2,4475
3210,0581;2,45189
3208,00695;2,44893
3205,95579;2,44332
3203,90464;2,44167
3201,85348;2,44205
3199,80233;2,44314
3197,75117;2,44351
3195,70002;2,44026
3193,64886;2,43665
3191,59771;2,43451
3189,54655;2,43077
3187,4954;2,42574
3185,44424;2,42087
3183,39308;2,41896
3181,34193;2,42334
3179,29077;2,42878
3177,23962;2,42708
3175,18846;2,41974
3173,13731;2,41457
3171,08615;2,41393
3169,035;2,41399
3166,98384;2,41292
3164,93269;2,41136
3162,88153;2,40926
3160,83038;2,40616
3158,77922;2,40225
3156,72807;2,39827
3154,67691;2,39522
3152,62575;2,39451
3150,5746;2,39538
3148,52344;2,39629
3146,47229;2,3972
3144,42113;2,39743
3142,36998;2,39585
3140,31882;2,39325
3138,26767;2,39192
3136,21651;2,39095
3134,16536;2,38726
3132,1142;2,38203
3130,06305;2,37902
3128,01189;2,37673
3125,96074;2,37254
3123,90958;2,37062
3121,85842;2,37259
3119,80727;2,37326
3117,75611;2,37113
3115,70496;2,36893
3113,6538;2,36647
3111,60265;2,3622
3109,55149;2,35677
3107,50034;2,35362
3105,44918;2,35484
3103,39803;2,35596
3101,34687;2,35346
3099,29572;2,34997
3097,24456;2,34785
3095,19341;2,34611
3093,14225;2,34434
3091,09109;2,34279
3089,03994;2,33961
3086,98878;2,33697
3084,93763;2,33878
3082,88647;2,33973
3080,83532;2,33494
3078,78416;2,32915
3076,73301;2,32467
3074,68185;2,321
3072,6307;2,32062
3070,57954;2,32271
3068,52839;2,32305
3066,47723;2,32107
3064,42608;2,31948
3062,37492;2,31813
3060,32376;2,31481
3058,27261;2,3107
3056,22145;2,30835
3054,1703;2,30736
3052,11914;2,30512
3050,06799;2,30076
3048,01683;2,29856
3045,96568;2,30145
3043,91452;2,30462
3041,86337;2,30265
3039,81221;2,29624
3037,76106;2,29073
3035,7099;2,29003
3033,65875;2,29282
3031,60759;2,29385
3029,55643;2,29154
3027,50528;2,28943
3025,45412;2,28772
3023,40297;2,28415
3021,35181;2,28031
3019,30066;2,27853
3017,2495;2,27684
3015,19835;2,27416
3013,14719;2,27264
3011,09604;2,27282
3009,04488;2,27386
3006,99373;2,27647
3004,94257;2,2795
3002,89142;2,2788
3000,84026;2,27602
2998,7891;2,27659
2996,73795;2,27888
2994,68679;2,27846
2992,63564;2,27823
2990,58448;2,28296
2988,53333;2,2896
2986,48217;2,29289
2984,43102;2,29443
2982,37986;2,29638
2980,32871;2,29865
2978,27755;2,29981
2976,2264;2,2992
2974,17524;2,29913
2972,12409;2,30095
2970,07293;2,30452
2968,02177;2,30794
2965,97062;2,30945
2963,91946;2,31152
2961,86831;2,31482
2959,81715;2,317
2957,766;2,31875
2955,71484;2,32143
2953,66369;2,32418
2951,61253;2,32638
2949,56138;2,32985
2947,51022;2,33539
2945,45907;2,33948
2943,40791;2,34052
2941,35675;2,34084
2939,3056;2,34141
2937,25444;2,34057
2935,20329;2,3399
2933,15213;2,34238
2931,10098;2,34493
2929,04982;2,34379
2926,99867;2,34237
2924,94751;2,34374
2922,89636;2,34474
2920,8452;2,344
2918,79405;2,34286
2916,74289;2,33985
2914,69174;2,33579
2912,64058;2,33476
2910,58942;2,33577
2908,53827;2,33622
2906,48711;2,33667
2904,43596;2,33713
2902,3848;2,33632
2900,33365;2,33294
2898,28249;2,3284
2896,23134;2,32563
2894,18018;2,3259
2892,12903;2,32699
2890,07787;2,32622
2888,02672;2,32486
2885,97556;2,3236
2883,92441;2,323
2881,87325;2,32455
2879,82209;2,32458
2877,77094;2,31995
2875,71978;2,31373
2873,66863;2,3093
2871,61747;2,3078
2869,56632;2,30688
2867,51516;2,30446
2865,46401;2,30188
2863,41285;2,30012
2861,3617;2,29948
2859,31054;2,29928
2857,25939;2,29682
2855,20823;2,2923
2853,15708;2,28917
2851,10592;2,28785
2849,05476;2,28495
2847,00361;2,2782
2844,95245;2,27181
2842,9013;2,2696
2840,85014;2,26854
2838,79899;2,26518
2836,74783;2,26126
2834,69668;2,26042
2832,64552;2,26063
2830,59437;2,25762
2828,54321;2,25191
2826,49206;2,24694
2824,4409;2,24375
2822,38975;2,23995
2820,33859;2,23467
2818,28743;2,2294
2816,23628;2,22587
2814,18512;2,22503
2812,13397;2,22492
2810,08281;2,22322
2808,03166;2,22182
2805,9805;2,22092
2803,92935;2,21848
2801,87819;2,21617
2799,82704;2,21592
2797,77588;2,21668
2795,72473;2,21585
2793,67357;2,21318
2791,62242;2,21062
2789,57126;2,20833
2787,5201;2,20515
2785,46895;2,20172
2783,41779;2,19975
2781,36664;2,19971
2779,31548;2,20008
2777,26433;2,19887
2775,21317;2,19618
2773,16202;2,19337
2771,11086;2,1918
2769,05971;2,19093
2767,00855;2,1904
2764,9574;2,19162
2762,90624;2,19319
2760,85509;2,1926
2758,80393;2,19012
2756,75277;2,18709
2754,70162;2,18408
2752,65046;2,18144
2750,59931;2,17942
2748,54815;2,17932
2746,497;2,18088
2744,44584;2,18064
2742,39469;2,17814
2740,34353;2,17661
2738,29238;2,17682
2736,24122;2,17675
2734,19007;2,17658
2732,13891;2,1773
2730,08776;2,17741
2728,0366;2,17576
2725,98544;2,17412
2723,93429;2,17444
2721,88313;2,17579
2719,83198;2,17506
2717,78082;2,17162
2715,72967;2,16969
2713,67851;2,1709
2711,62736;2,17172
2709,5762;2,17003
2707,52505;2,16762
2705,47389;2,16685
2703,42274;2,16743
2701,37158;2,16715
2699,32043;2,16504
2697,26927;2,16218
2695,21811;2,16
2693,16696;2,15962
2691,1158;2,16036
2689,06465;2,15917
2687,01349;2,156
2684,96234;2,15376
2682,91118;2,15373
2680,86003;2,15545
2678,80887;2,1557
2676,75772;2,15336
2674,70656;2,15208
2672,65541;2,15219
2670,60425;2,15113
2668,55309;2,14919
2666,50194;2,14819
2664,45078;2,14776
2662,39963;2,14738
2660,34847;2,14656
2658,29732;2,14481
2656,24616;2,14362
2654,19501;2,14283
2652,14385;2,14111
2650,0927;2,13878
2648,04154;2,13742
2645,99039;2,13798
2643,93923;2,1392
2641,88808;2,13996
2639,83692;2,14058
2637,78576;2,14139
2635,73461;2,14257
2633,68345;2,14347
2631,6323;2,14302
2629,58114;2,14271
2627,52999;2,14477
2625,47883;2,14817
2623,42768;2,15071
2621,37652;2,15172
2619,32537;2,15177
2617,27421;2,1517
2615,22306;2,15249
2613,1719;2,15534
2611,12075;2,15972
2609,06959;2,16246
2607,01843;2,16215
2604,96728;2,16143
2602,91612;2,16111
2600,86497;2,16053
2598,81381;2,16021
2596,76266;2,16
2594,7115;2,16099
2592,66035;2,16263
2590,60919;2,16196
2588,55804;2,16013
2586,50688;2,16036
2584,45573;2,16165
2582,40457;2,16107
2580,35342;2,16005
2578,30226;2,16022
2576,2511;2,1604
2574,19995;2,16098
2572,14879;2,1621
2570,09764;2,16134
2568,04648;2,15988
2565,99533;2,16075
2563,94417;2,1624
2561,89302;2,16379
2559,84186;2,16558
2557,79071;2,16657
2555,73955;2,16605
2553,6884;2,16577
2551,63724;2,16738
2549,58609;2,16999
2547,53493;2,17169
2545,48377;2,1722
2543,43262;2,17266
2541,38146;2,17383
2539,33031;2,17469
2537,27915;2,17487
2535,228;2,17701
2533,17684;2,18128
2531,12569;2,1857
2529,07453;2,19095
2527,02338;2,19638
2524,97222;2,20004
2522,92107;2,20169
2520,86991;2,20135
2518,81876;2,20053
2516,7676;2,20054
2514,71644;2,20096
2512,66529;2,20168
2510,61413;2,20225
2508,56298;2,20256
2506,51182;2,20233
2504,46067;2,20083
2502,40951;2,1978
2500,35836;2,19273
2498,3072;2,18679
2496,25605;2,18193
2494,20489;2,17822
2492,15374;2,17455
2490,10258;2,17029
2488,05143;2,16614
2486,00027;2,16197
2483,94911;2,1577
2481,89796;2,15472
2479,8468;2,15122
2477,79565;2,14576
2475,74449;2,14027
2473,69334;2,13472
2471,64218;2,12893
2469,59103;2,1239
2467,53987;2,12008
2465,48872;2,1174
2463,43756;2,11433
2461,38641;2,11037
2459,33525;2,10737
2457,2841;2,10574
2455,23294;2,10457
2453,18178;2,10305
2451,13063;2,09999
2449,07947;2,09627
2447,02832;2,09368
2444,97716;2,09201
2442,92601;2,09022
2440,87485;2,08826
2438,8237;2,08719
2436,77254;2,08629
2434,72139;2,08326
2432,67023;2,07974
2430,61908;2,07903
2428,56792;2,07995
2426,51677;2,07934
2424,46561;2,07763
2422,41445;2,07657
2420,3633;2,07517
2418,31214;2,07261
2416,26099;2,06945
2414,20983;2,06699
2412,15868;2,06684
2410,10752;2,06778
2408,05637;2,06774
2406,00521;2,06701
2403,95406;2,06596
2401,9029;2,06424
2399,85175;2,06319
2397,80059;2,06326
2395,74944;2,06361
2393,69828;2,06364
2391,64712;2,06347
2389,59597;2,06331
2387,54481;2,06322
2385,49366;2,06296
2383,4425;2,06254
2381,39135;2,06253
2379,34019;2,0634
2377,28904;2,06466
2375,23788;2,06533
2373,18673;2,06508
2371,13557;2,06442
2369,08442;2,06476
2367,03326;2,06676
2364,9821;2,06842
2362,93095;2,0685
2360,87979;2,06839
2358,82864;2,06811
2356,77748;2,06622
2354,72633;2,06427
2352,67517;2,06514
2350,62402;2,06793
2348,57286;2,07004
2346,52171;2,07085
2344,47055;2,07077
2342,4194;2,06965
2340,36824;2,0681
2338,31709;2,06779
2336,26593;2,06971
2334,21477;2,0731
2332,16362;2,07516
2330,11246;2,07326
2328,06131;2,06869
2326,01015;2,06577
2323,959;2,06663
2321,90784;2,0688
2319,85669;2,06957
2317,80553;2,06953
2315,75438;2,06916
2313,70322;2,0682
2311,65207;2,06725
2309,60091;2,06612
2307,54976;2,06474
2305,4986;2,06444
2303,44744;2,06549
2301,39629;2,06693
2299,34513;2,06794
2297,29398;2,06807
2295,24282;2,06722
2293,19167;2,06596
2291,14051;2,06527
2289,08936;2,06526
2287,0382;2,06545
2284,98705;2,06588
2282,93589;2,06659
2280,88474;2,0671
2278,83358;2,06712
2276,78243;2,06694
2274,73127;2,06733
2272,68011;2,06888
2270,62896;2,07072
2268,5778;2,07178
2266,52665;2,07251
2264,47549;2,07373
2262,42434;2,07512
2260,37318;2,07599
2258,32203;2,07632
2256,27087;2,07664
2254,21972;2,07762
2252,16856;2,07949
2250,11741;2,08172
2248,06625;2,08335
2246,0151;2,08334
2243,96394;2,08361
2241,91278;2,0858
2239,86163;2,08842
2237,81047;2,08969
2235,75932;2,08996
2233,70816;2,09064
2231,65701;2,0912
2229,60585;2,09136
2227,5547;2,0924
2225,50354;2,09392
2223,45239;2,09548
2221,40123;2,09725
2219,35008;2,09902
2217,29892;2,10058
2215,24777;2,1023
2213,19661;2,10437
2211,14545;2,10547
2209,0943;2,10546
2207,04314;2,10572
2204,99199;2,1067
2202,94083;2,1072
2200,88968;2,10674
2198,83852;2,10686
2196,78737;2,10769
2194,73621;2,10805
2192,68506;2,10878
2190,6339;2,11048
2188,58275;2,1117
2186,53159;2,11225
2184,48044;2,1131
2182,42928;2,11479
2180,37812;2,11761
2178,32697;2,11974
2176,27581;2,11978
2174,22466;2,12001
2172,1735;2,12161
2170,12235;2,12354
2168,07119;2,12566
2166,02004;2,12784
2163,96888;2,12964
2161,91773;2,13092
2159,86657;2,13249
2157,81542;2,13514
2155,76426;2,1382
2153,71311;2,14104
2151,66195;2,14337
2149,61079;2,14517
2147,55964;2,14688
2145,50848;2,14791
2143,45733;2,148
2141,40617;2,1484
2139,35502;2,14968
2137,30386;2,15126
2135,25271;2,15197
2133,20155;2,15007
2131,1504;2,14624
2129,09924;2,14358
2127,04809;2,14262
2124,99693;2,1421
2122,94578;2,14123
2120,89462;2,13956
2118,84346;2,13855
2116,79231;2,13781
2114,74115;2,13455
2112,69;2,1302
2110,63884;2,12848
2108,58769;2,12944
2106,53653;2,13034
2104,48538;2,13019
2102,43422;2,13026
2100,38307;2,13061
2098,33191;2,13098
2096,28076;2,13137
2094,2296;2,13166
2092,17844;2,13206
2090,12729;2,13151
2088,07613;2,13084
2086,02498;2,13161
2083,97382;2,13197
2081,92267;2,13063
2079,87151;2,12892
2077,82036;2,12774
2075,7692;2,12776
2073,71805;2,12891
2071,66689;2,13024
2069,61574;2,13175
2067,56458;2,13274
2065,51343;2,13284
2063,46227;2,13302
2061,41111;2,13326
2059,35996;2,13349
2057,3088;2,13428
2055,25765;2,13543
2053,20649;2,13598
2051,15534;2,13608
2049,10418;2,13614
2047,05303;2,13533
2045,00187;2,13361
2042,95072;2,13282
2040,89956;2,13404
2038,84841;2,13543
2036,79725;2,13528
2034,7461;2,13474
2032,69494;2,13532
2030,64378;2,1365
2028,59263;2,1367
2026,54147;2,1361
2024,49032;2,13592
2022,43916;2,13617
2020,38801;2,13684
2018,33685;2,13775
2016,2857;2,13758
2014,23454;2,1366
2012,18339;2,13651
2010,13223;2,13703
2008,08108;2,13681
2006,02992;2,13655
2003,97877;2,13771
2001,92761;2,1392
1999,87645;2,13965
1997,8253;2,1399
1995,77414;2,1402
1993,72299;2,13916
1991,67183;2,1371
1989,62068;2,13624
1987,56952;2,13697
1985,51837;2,13811
1983,46721;2,13906
1981,41606;2,14018
1979,3649;2,14145
1977,31375;2,14229
1975,26259;2,14241
1973,21144;2,14227
1971,16028;2,14274
1969,10912;2,14387
1967,05797;2,14502
1965,00681;2,14672
1962,95566;2,14999
1960,9045;2,1531
1958,85335;2,15331
1956,80219;2,15105
1954,75104;2,14867
1952,69988;2,14762
1950,64873;2,14737
1948,59757;2,14722
1946,54642;2,14766
1944,49526;2,14816
1942,44411;2,14801
1940,39295;2,14832
1938,34179;2,14874
1936,29064;2,14866
1934,23948;2,14918
1932,18833;2,15019
1930,13717;2,15086
1928,08602;2,15122
1926,03486;2,15117
1923,98371;2,15096
1921,93255;2,15168
1919,8814;2,15221
1917,83024;2,15174
1915,77909;2,15218
1913,72793;2,15349
1911,67678;2,15507
1909,62562;2,15678
1907,57446;2,15796
1905,52331;2,15847
1903,47215;2,15854
1901,421;2,15877
1899,36984;2,15989
1897,31869;2,16119
1895,26753;2,16156
1893,21638;2,16213
1891,16522;2,16334
1889,11407;2,16399
1887,06291;2,16439
1885,01176;2,16575
1882,9606;2,16807
1880,90945;2,16954
1878,85829;2,16955
1876,80713;2,17006
1874,75598;2,17163
1872,70482;2,17303
1870,65367;2,17363
1868,60251;2,17413
1866,55136;2,17559
1864,5002;2,17768
1862,44905;2,17938
1860,39789;2,18031
1858,34674;2,18095
1856,29558;2,18157
1854,24443;2,18199
1852,19327;2,1828
1850,14212;2,18423
1848,09096;2,1854
1846,0398;2,18572
1843,98865;2,18678
1841,93749;2,19049
1839,88634;2,19443
1837,83518;2,19688
1835,78403;2,19951
1833,73287;2,20257
1831,68172;2,20445
1829,63056;2,20609
1827,57941;2,20877
1825,52825;2,21057
1823,4771;2,21208
1821,42594;2,2153
1819,37478;2,21866
1817,32363;2,22071
1815,27247;2,22344
1813,22132;2,2277
1811,17016;2,23233
1809,11901;2,23796
1807,06785;2,24543
1805,0167;2,25392
1802,96554;2,26211
1800,91439;2,27033
1798,86323;2,27982
1796,81208;2,28851
1794,76092;2,29304
1792,70977;2,29321
1790,65861;2,29114
1788,60745;2,28737
1786,5563;2,28158
1784,50514;2,27539
1782,45399;2,27003
1780,40283;2,26528
1778,35168;2,26235
1776,30052;2,262
1774,24937;2,26136
1772,19821;2,258
1770,14706;2,25478
1768,0959;2,25418
1766,04475;2,25633
1763,99359;2,25943
1761,94244;2,26226
1759,89128;2,26507
1757,84012;2,26597
1755,78897;2,26589
1753,73781;2,26717
1751,68666;2,26823
1749,6355;2,26859
1747,58435;2,26973
1745,53319;2,27186
1743,48204;2,27466
1741,43088;2,27683
1739,37973;2,27779
1737,32857;2,27824
1735,27742;2,27684
1733,22626;2,27663
1731,17511;2,28091
1729,12395;2,28524
1727,07279;2,28804
1725,02164;2,29017
1722,97048;2,29145
1720,91933;2,29183
1718,86817;2,29227
1716,81702;2,29513
1714,76586;2,3001
1712,71471;2,30447
1710,66355;2,30729
1708,6124;2,30875
1706,56124;2,31053
1704,51009;2,31452
1702,45893;2,3179
1700,40778;2,31966
1698,35662;2,32537
1696,30546;2,33359
1694,25431;2,3411
1692,20315;2,34748
1690,152;2,35284
1688,10084;2,35701
1686,04969;2,35743
1683,99853;2,35754
1681,94738;2,36522
1679,89622;2,37527
1677,84507;2,38147
1675,79391;2,38445
1673,74276;2,38828
1671,6916;2,39153
1669,64045;2,39218
1667,58929;2,39488
1665,53813;2,39852
1663,48698;2,39966
1661,43582;2,40189
1659,38467;2,40644
1657,33351;2,40902
1655,28236;2,40903
1653,2312;2,41228
1651,18005;2,42013
1649,12889;2,4219
1647,07774;2,41655
1645,02658;2,41375
1642,97543;2,41547
1640,92427;2,41815
1638,87312;2,42016
1636,82196;2,41833
1634,7708;2,41404
1632,71965;2,41274
1630,66849;2,41223
1628,61734;2,41113
1626,56618;2,41206
1624,51503;2,41355
1622,46387;2,41326
1620,41272;2,41369
1618,36156;2,41536
1616,31041;2,41695
1614,25925;2,41736
1612,2081;2,4156
1610,15694;2,41248
1608,10579;2,41109
1606,05463;2,41325
1604,00347;2,41486
1601,95232;2,41249
1599,90116;2,40816
1597,85001;2,40338
1595,79885;2,39787
1593,7477;2,39199
1591,69654;2,38573
1589,64539;2,37887
1587,59423;2,37174
1585,54308;2,36414
1583,49192;2,35659
1581,44077;2,35031
1579,38961;2,34318
1577,33846;2,33066
1575,2873;2,3165
1573,23614;2,30766
1571,18499;2,29822
1569,13383;2,28611
1567,08268;2,2784
1565,03152;2,27461
1562,98037;2,26896
1560,92921;2,25348
1558,87806;2,22903
1556,8269;2,21659
1554,77575;2,21384
1552,72459;2,20724
1550,67344;2,19684
1548,62228;2,18848
1546,57113;2,18376
1544,51997;2,18134
1542,46881;2,18105
1540,41766;2,18148
1538,3665;2,18439
1536,31535;2,18939
1534,26419;2,19309
1532,21304;2,19712
1530,16188;2,20208
1528,11073;2,2053
1526,05957;2,20728
1524,00842;2,21033
1521,95726;2,21623
1519,90611;2,22493
1517,85495;2,23149
1515,80379;2,23477
1513,75264;2,23767
1511,70148;2,24058
1509,65033;2,24039
1507,59917;2,23749
1505,54802;2,24279
1503,49686;2,25532
1501,44571;2,265
1499,39455;2,27055
1497,3434;2,27449
1495,29224;2,27924
1493,24109;2,28467
1491,18993;2,28805
1489,13878;2,29045
1487,08762;2,29483
1485,03646;2,30057
1482,98531;2,30604
1480,93415;2,3113
1478,883;2,3165
1476,83184;2,32181
1474,78069;2,3277
1472,72953;2,33297
1470,67838;2,33779
1468,62722;2,34225
1466,57607;2,34605
1464,52491;2,35167
1462,47376;2,35908
1460,4226;2,36233
1458,37145;2,35841
1456,32029;2,35504
1454,26913;2,35965
1452,21798;2,36636
1450,16682;2,3693
1448,11567;2,36876
1446,06451;2,3695
1444,01336;2,37212
1441,9622;2,37294
1439,91105;2,37161
1437,85989;2,37082
1435,80874;2,37368
1433,75758;2,37767
1431,70643;2,37711
1429,65527;2,37444
1427,60412;2,37528
1425,55296;2,37754
1423,5018;2,37715
1421,45065;2,37313
1419,39949;2,36626
1417,34834;2,36137
1415,29718;2,3603
1413,24603;2,35943
1411,19487;2,35685
1409,14372;2,35374
1407,09256;2,35227
1405,04141;2,35426
1402,99025;2,36
1400,9391;2,36673
1398,88794;2,37296
1396,83679;2,37855
1394,78563;2,38273
1392,73447;2,38728
1390,68332;2,39144
1388,63216;2,39283
1386,58101;2,39423
1384,52985;2,39797
1382,4787;2,40277
1380,42754;2,40845
1378,37639;2,41348
1376,32523;2,41517
1374,27408;2,41514
1372,22292;2,41764
1370,17177;2,42138
1368,12061;2,42121
1366,06946;2,4188
1364,0183;2,42016
1361,96714;2,42438
1359,91599;2,42547
1357,86483;2,42309
1355,81368;2,4218
1353,76252;2,42259
1351,71137;2,42262
1349,66021;2,42099
1347,60906;2,41858
1345,5579;2,41655
1343,50675;2,41661
1341,45559;2,41799
1339,40444;2,41769
1337,35328;2,41641
1335,30213;2,41658
1333,25097;2,41744
1331,19981;2,4173
1329,14866;2,41636
1327,0975;2,4167
1325,04635;2,41916
1322,99519;2,42179
1320,94404;2,42265
1318,89288;2,4218
1316,84173;2,41995
1314,79057;2,41886
1312,73942;2,42086
1310,68826;2,42232
1308,63711;2,41869
1306,58595;2,41403
1304,5348;2,41264
1302,48364;2,41315
1300,43248;2,41464
1298,38133;2,4163
1296,33017;2,41635
1294,27902;2,41559
1292,22786;2,41608
1290,17671;2,41845
1288,12555;2,4204
1286,0744;2,4199
1284,02324;2,41946
1281,97209;2,41977
1279,92093;2,41765
1277,86978;2,41465
1275,81862;2,41569
1273,76747;2,41847
1271,71631;2,41804
1269,66515;2,41597
1267,614;2,41448
1265,56284;2,41336
1263,51169;2,41282
1261,46053;2,41267
1259,40938;2,41301
1257,35822;2,41431
1255,30707;2,41633
1253,25591;2,41841
1251,20476;2,41807
1249,1536;2,41514
1247,10245;2,41491
1245,05129;2,41787
1243,00013;2,41815
1240,94898;2,41662
1238,89782;2,41784
1236,84667;2,42023
1234,79551;2,42155
1232,74436;2,42128
1230,6932;2,4192
1228,64205;2,41768
1226,59089;2,41734
1224,53974;2,41706
1222,48858;2,41629
1220,43743;2,4142
1218,38627;2,41348
1216,33512;2,4168
1214,28396;2,42036
1212,2328;2,42111
1210,18165;2,41891
1208,13049;2,41445
1206,07934;2,41297
1204,02818;2,41582
1201,97703;2,41805
1199,92587;2,41884
1197,87472;2,42123
1195,82356;2,4238
1193,77241;2,42394
1191,72125;2,42492
1189,6701;2,42808
1187,61894;2,42974
1185,56779;2,4316
1183,51663;2,43733
1181,46547;2,44409
1179,41432;2,44877
1177,36316;2,45171
1175,31201;2,45287
1173,26085;2,45466
1171,2097;2,45898
1169,15854;2,46352
1167,10739;2,46743
1165,05623;2,4728
1163,00508;2,47819
1160,95392;2,47967
1158,90277;2,47901
1156,85161;2,47841
1154,80046;2,4774
1152,7493;2,4807
1150,69814;2,48902
1148,64699;2,49482
1146,59583;2,49747
1144,54468;2,4978
1142,49352;2,49469
1140,44237;2,49226
1138,39121;2,49069
1136,34006;2,48964
1134,2889;2,49206
1132,23775;2,49472
1130,18659;2,49459
1128,13544;2,49447
1126,08428;2,49452
1124,03313;2,49553
1121,98197;2,49973
1119,93081;2,50436
1117,87966;2,50721
1115,8285;2,50857
1113,77735;2,50825
1111,72619;2,50904
1109,67504;2,51144
1107,62388;2,5128
1105,57273;2,51659
1103,52157;2,52156
1101,47042;2,52015
1099,41926;2,51824
1097,36811;2,52375
1095,31695;2,52898
1093,2658;2,52812
1091,21464;2,52582
1089,16348;2,52527
1087,11233;2,52681
1085,06117;2,52419
1083,01002;2,51646
1080,95886;2,51256
1078,90771;2,50784
1076,85655;2,49822
1074,8054;2,49523
1072,75424;2,49956
1070,70309;2,50055
1068,65193;2,49733
1066,60078;2,49487
1064,54962;2,49264
1062,49847;2,48818
1060,44731;2,48474
1058,39615;2,48309
1056,345;2,48152
1054,29384;2,48389
1052,24269;2,48722
1050,19153;2,48312
1048,14038;2,47525
1046,08922;2,4722
1044,03807;2,47279
1041,98691;2,47234
1039,93576;2,46892
1037,8846;2,46161
1035,83345;2,45567
1033,78229;2,45625
1031,73114;2,46023
1029,67998;2,46214
1027,62882;2,45994
1025,57767;2,45459
1023,52651;2,44838
1021,47536;2,44467
1019,4242;2,44561
1017,37305;2,44727
1015,32189;2,44494
1013,27074;2,43892
1011,21958;2,43131
1009,16843;2,42685
1007,11727;2,42752
1005,06612;2,42714
1003,01496;2,42237
1000,96381;2,4199
998,91265;2,42284
996,86149;2,4245
994,81034;2,42281
992,75918;2,41968
990,70803;2,41545
988,65687;2,41587
986,60572;2,42225
984,55456;2,42669
982,50341;2,42882
980,45225;2,43048
978,4011;2,42826
976,34994;2,42418
974,29879;2,42339
972,24763;2,42538
970,19647;2,42489
968,14532;2,4218
966,09416;2,41847
964,04301;2,41471
961,99185;2,41076
959,9407;2,40701
957,88954;2,40412
955,83839;2,40362
953,78723;2,4053
951,73608;2,40609
949,68492;2,40416
947,63377;2,40253
945,58261;2,40384
943,53146;2,40691
941,4803;2,40955
939,42914;2,4085
937,37799;2,40317
935,32683;2,39822
933,27568;2,39794
931,22452;2,39883
929,17337;2,39832
927,12221;2,40131
925,07106;2,40636
923,0199;2,40857
920,96875;2,4069
918,91759;2,40511
916,86644;2,40739
914,81528;2,40819
912,76413;2,40436
910,71297;2,40355
908,66181;2,40932
906,61066;2,41283
904,5595;2,40865
902,50835;2,40574
900,45719;2,40677
898,40604;2,40505
896,35488;2,4017
894,30373;2,39741
892,25257;2,38801
890,20142;2,37076
888,15026;2,35174
886,09911;2,34701
884,04795;2,35869
881,9968;2,37095
879,94564;2,37623
877,89448;2,37856
875,84333;2,37901
873,79217;2,37633
871,74102;2,38178
869,68986;2,40784
867,63871;2,44174
865,58755;2,4608
863,5364;2,45984
861,48524;2,45251
859,43409;2,45444
857,38293;2,46386
855,33178;2,46868
853,28062;2,46644
851,22947;2,46634
849,17831;2,47229
847,12715;2,47901
845,076;2,47961
843,02484;2,47185
840,97369;2,4656
838,92253;2,46705
836,87138;2,47284
834,82022;2,48265
832,76907;2,4924
830,71791;2,49438
828,66676;2,48926
826,6156;2,48512
824,56445;2,49117
822,51329;2,50045
820,46214;2,49671
818,41098;2,48932
816,35982;2,49178
814,30867;2,49885
812,25751;2,5057
810,20636;2,50779
808,1552;2,50633
806,10405;2,51154
804,05289;2,52035
802,00174;2,52356
799,95058;2,52161
797,89943;2,51959
795,84827;2,52002
793,79712;2,5214
791,74596;2,52168
789,69481;2,52372
787,64365;2,53052
785,59249;2,52816
783,54134;2,51421
781,49018;2,51404
779,43903;2,52658
777,38787;2,52987
775,33672;2,52763
773,28556;2,52825
771,23441;2,52665
769,18325;2,52618
767,1321;2,53439
765,08094;2,54017
763,02979;2,53317
760,97863;2,52419
758,92748;2,52531
756,87632;2,5318
754,82516;2,53617
752,77401;2,54275
750,72285;2,55178
748,6717;2,55404
746,62054;2,55118
744,56939;2,55188
742,51823;2,56046
740,46708;2,57058
738,41592;2,57474
736,36477;2,57718
734,31361;2,58673
732,26246;2,59656
730,2113;2,59798
728,16015;2,60061
726,10899;2,60396
724,05783;2,60091
722,00668;2,60005
719,95552;2,6112
717,90437;2,63176
715,85321;2,64386
713,80206;2,63413
711,7509;2,61719
709,69975;2,60916
707,64859;2,60697
705,59744;2,60506
703,54628;2,60749
701,49513;2,61319
699,44397;2,61559
697,39281;2,61785
695,34166;2,62068
693,2905;2,62347
691,23935;2,63785
689,18819;2,65845
687,13704;2,65648
685,08588;2,63035
683,03473;2,60898
680,98357;2,60806
678,93242;2,6126
676,88126;2,61121
674,83011;2,62135
672,77895;2,65301
670,7278;2,68552
668,67664;2,69331
666,62548;2,6758
664,57433;2,66145
662,52317;2,66462
660,47202;2,68021
658,42086;2,69127
656,36971;2,6919
654,31855;2,69204
652,2674;2,69168
650,21624;2,69375
648,16509;2,71537
646,11393;2,74537
644,06278;2,75506
642,01162;2,74581
639,96047;2,73478
637,90931;2,73541
635,85815;2,74981
633,807;2,77069
631,75584;2,78394
629,70469;2,77932
627,65353;2,76773
625,60238;2,76294
623,55122;2,76059
621,50007;2,76441
619,44891;2,78684
617,39776;2,80344
615,3466;2,78137
613,29545;2,76456
611,24429;2,79552
609,19314;2,85407
607,14198;2,88596
605,09082;2,8779
603,03967;2,86007
600,98851;2,84571
598,93736;2,84363
596,8862;2,85656
594,83505;2,87568
592,78389;2,9001
590,73274;2,91592
588,68158;2,90116
586,63043;2,86336
584,57927;2,83472
582,52812;2,81435
580,47696;2,79565
578,42581;2,79344
576,37465;2,80533
574,32349;2,82156
572,27234;2,83778
570,22118;2,8527
568,17003;2,84559
566,11887;2,81176
564,06772;2,7793
562,01656;2,75762
559,96541;2,71054
557,91425;2,61333
555,8631;2,51732
553,81194;2,45976
551,76079;2,41867
549,70963;2,36454
547,65848;2,29867
545,60732;2,23619
543,55616;2,18051
541,50501;2,13131
539,45385;2,09204
537,4027;2,0622
535,35154;2,03745
533,30039;2,01858
531,24923;2,00889
529,19808;2,00578
527,14692;2,00756
525,09577;2,01817
523,04461;2,03269
520,99346;2,04151
518,9423;2,04506
516,89115;2,04908
514,83999;2,05623
512,78883;2,06289
510,73768;2,06816
508,68652;2,07646
506,63537;2,08471
504,58421;2,08258
502,53306;2,0698
500,4819;2,05922
498,43075;2,05866
496,37959;2,0622
494,32844;2,06082
492,27728;2,05764
490,22613;2,05884
488,17497;2,05683
486,12382;2,0455
484,07266;2,03261
482,0215;2,02599
479,97035;2,02469
477,91919;2,02185
475,86804;2,01001
473,81688;1,98649
471,76573;1,95238
469,71457;1,9169
467,66342;1,89106
465,61226;1,87473
463,56111;1,86073
461,50995;1,84482
459,4588;1,82995
457,40764;1,82364
455,35649;1,82321
453,30533;1,8171
451,25417;1,80665
449,20302;1,80079
447,15186;1,80154
445,10071;1,80665
443,04955;1,81212
440,9984;1,81149
438,94724;1,80386
436,89609;1,79693
434,84493;1,79708
432,79378;1,80169
430,74262;1,80548
428,69147;1,81264
426,64031;1,82756
424,58916;1,8382
422,538;1,83413
420,48684;1,83126
418,43569;1,85465
416,38453;1,89113
414,33338;1,90922
412,28222;1,91174
410,23107;1,91303
408,17991;1,91687
406,12876;1,92224
404,0776;1,92424
402,02645;1,91557
399,97529;1,89815
