3997,70175;1,8654
3995,6506;1,86605
3993,59944;1,86722
3991,54829;1,8687
3989,49713;1,8707
3987,44598;1,87274
3985,39482;1,87411
3983,34367;1,87494
3981,29251;1,87574
3979,24136;1,87672
3977,1902;1,87809
3975,13905;1,88087
3973,08789;1,88468
3971,03673;1,88736
3968,98558;1,88846
3966,93442;1,88994
3964,88327;1,89254
3962,83211;1,89482
3960,78096;1,89748
3958,7298;1,90233
3956,67865;1,90747
3954,62749;1,91079
3952,57634;1,91407
3950,52518;1,91741
3948,47403;1,9182
3946,42287;1,91829
3944,37172;1,9203
3942,32056;1,92232
3940,2694;1,92274
3938,21825;1,92124
3936,16709;1,9189
3934,11594;1,91722
3932,06478;1,91414
3930,01363;1,90799
3927,96247;1,90187
3925,91132;1,89701
3923,86016;1,89091
3921,80901;1,88332
3919,75785;1,87667
3917,7067;1,87142
3915,65554;1,86689
3913,60439;1,86384
3911,55323;1,8619
3909,50207;1,85986
3907,45092;1,85756
3905,39976;1,85461
3903,34861;1,85117
3901,29745;1,84857
3899,2463;1,84618
3897,19514;1,84387
3895,14399;1,84308
3893,09283;1,84221
3891,04168;1,84014
3888,99052;1,84091
3886,93937;1,84325
3884,88821;1,84301
3882,83706;1,84194
3880,7859;1,84032
3878,73474;1,83847
3876,68359;1,83827
3874,63243;1,83787
3872,58128;1,83642
3870,53012;1,83432
3868,47897;1,83364
3866,42781;1,83501
3864,37666;1,83475
3862,3255;1,83215
3860,27435;1,82987
3858,22319;1,83012
3856,17204;1,8329
3854,12088;1,833
3852,06973;1,82867
3850,01857;1,82632
3847,96741;1,82609
3845,91626;1,82545
3843,8651;1,82475
3841,81395;1,82499
3839,76279;1,82427
3837,71164;1,8211
3835,66048;1,81857
3833,60933;1,81782
3831,55817;1,8172
3829,50702;1,81725
3827,45586;1,81826
3825,40471;1,82044
3823,35355;1,82273
3821,3024;1,82241
3819,25124;1,82219
3817,20008;1,82241
3815,14893;1,82088
3813,09777;1,82102
3811,04662;1,82395
3808,99546;1,82605
3806,94431;1,82445
3804,89315;1,82268
3802,842;1,8221
3800,79084;1,82197
3798,73969;1,82514
3796,68853;1,82898
3794,63738;1,8307
3792,58622;1,83191
3790,53506;1,8337
3788,48391;1,83508
3786,43275;1,83439
3784,3816;1,83266
3782,33044;1,83327
3780,27929;1,8354
3778,22813;1,83654
3776,17698;1,83725
3774,12582;1,83854
3772,07467;1,84033
3770,02351;1,84173
3767,97236;1,84215
3765,9212;1,84123
3763,87005;1,84119
3761,81889;1,84386
3759,76773;1,84613
3757,71658;1,8464
3755,66542;1,84802
3753,61427;1,85127
3751,56311;1,85227
3749,51196;1,85221
3747,4608;1,85681
3745,40965;1,86162
3743,35849;1,86221
3741,30734;1,86512
3739,25618;1,87285
3737,20503;1,87992
3735,15387;1,88161
3733,10272;1,87997
3731,05156;1,8804
3729,0004;1,8851
3726,94925;1,89112
3724,89809;1,89547
3722,84694;1,89817
3720,79578;1,9005
3718,74463;1,90351
3716,69347;1,9076
3714,64232;1,91278
3712,59116;1,91837
3710,54001;1,92327
3708,48885;1,92872
3706,4377;1,93748
3704,38654;1,95138
3702,33539;1,97088
3700,28423;1,99476
3698,23307;2,01892
3696,18192;2,03859
3694,13076;2,05031
3692,07961;2,05307
3690,02845;2,0482
3687,9773;2,03987
3685,92614;2,03412
3683,87499;2,03211
3681,82383;2,03365
3679,77268;2,04004
3677,72152;2,04979
3675,67037;2,05797
3673,61921;2,06655
3671,56806;2,07778
3669,5169;2,08724
3667,46574;2,09553
3665,41459;2,10697
3663,36343;2,12118
3661,31228;2,13619
3659,26112;2,15205
3657,20997;2,16701
3655,15881;2,17938
3653,10766;2,19458
3651,0565;2,22255
3649,00535;2,26596
3646,95419;2,30912
3644,90304;2,33575
3642,85188;2,34385
3640,80073;2,33945
3638,74957;2,33221
3636,69841;2,32806
3634,64726;2,32594
3632,5961;2,32605
3630,54495;2,32872
3628,49379;2,33316
3626,44264;2,34061
3624,39148;2,34846
3622,34033;2,35578
3620,28917;2,36444
3618,23802;2,37252
3616,18686;2,37787
3614,13571;2,38273
3612,08455;2,39037
3610,0334;2,40177
3607,98224;2,41462
3605,93108;2,42452
3603,87993;2,42781
3601,82877;2,42733
3599,77762;2,42986
3597,72646;2,43895
3595,67531;2,45202
3593,62415;2,46303
3591,573;2,47112
3589,52184;2,47796
3587,47069;2,48359
3585,41953;2,49011
3583,36838;2,49604
3581,31722;2,4968
3579,26607;2,49428
3577,21491;2,49508
3575,16375;2,50268
3573,1126;2,51523
3571,06144;2,52581
3569,01029;2,52704
3566,95913;2,52102
3564,90798;2,52128
3562,85682;2,53045
3560,80567;2,53691
3558,75451;2,53759
3556,70336;2,53884
3554,6522;2,54422
3552,60105;2,55485
3550,54989;2,56814
3548,49874;2,57496
3546,44758;2,5726
3544,39642;2,57054
3542,34527;2,57529
3540,29411;2,584
3538,24296;2,59163
3536,1918;2,59632
3534,14065;2,59805
3532,08949;2,59932
3530,03834;2,60462
3527,98718;2,61188
3525,93603;2,61448
3523,88487;2,61265
3521,83372;2,61168
3519,78256;2,61126
3517,73141;2,61265
3515,68025;2,61877
3513,62909;2,62357
3511,57794;2,62458
3509,52678;2,62757
3507,47563;2,63305
3505,42447;2,63768
3503,37332;2,6393
3501,32216;2,63612
3499,27101;2,63304
3497,21985;2,63664
3495,1687;2,642
3493,11754;2,64254
3491,06639;2,64511
3489,01523;2,65229
3486,96407;2,65374
3484,91292;2,65027
3482,86176;2,65331
3480,81061;2,66553
3478,75945;2,67684
3476,7083;2,67724
3474,65714;2,67027
3472,60599;2,66696
3470,55483;2,67205
3468,50368;2,67723
3466,45252;2,67592
3464,40137;2,67341
3462,35021;2,67338
3460,29906;2,6739
3458,2479;2,67223
3456,19674;2,66881
3454,14559;2,6675
3452,09443;2,67029
3450,04328;2,6755
3447,99212;2,68166
3445,94097;2,68848
3443,88981;2,69503
3441,83866;2,69897
3439,7875;2,6935
3437,73635;2,67864
3435,68519;2,67001
3433,63404;2,6732
3431,58288;2,67785
3429,53173;2,67967
3427,48057;2,68217
3425,42941;2,68921
3423,37826;2,69899
3421,3271;2,70135
3419,27595;2,68962
3417,22479;2,67353
3415,17364;2,66932
3413,12248;2,68006
3411,07133;2,69063
3409,02017;2,68731
3406,96902;2,68094
3404,91786;2,68577
3402,86671;2,69211
3400,81555;2,68662
3398,7644;2,67715
3396,71324;2,67811
3394,66208;2,68728
3392,61093;2,69062
3390,55977;2,68927
3388,50862;2,69046
3386,45746;2,69154
3384,40631;2,69153
3382,35515;2,69199
3380,304;2,69172
3378,25284;2,69257
3376,20169;2,69622
3374,15053;2,69674
3372,09938;2,69021
3370,04822;2,6799
3367,99707;2,67339
3365,94591;2,67758
3363,89475;2,68541
3361,8436;2,68437
3359,79244;2,67741
3357,74129;2,67447
3355,69013;2,67437
3353,63898;2,674
3351,58782;2,67388
3349,53667;2,6705
3347,48551;2,66271
3345,43436;2,65549
3343,3832;2,65252
3341,33205;2,65491
3339,28089;2,661
3337,22974;2,66351
3335,17858;2,66398
3333,12742;2,67065
3331,07627;2,67728
3329,02511;2,67621
3326,97396;2,67119
3324,9228;2,66599
3322,87165;2,66067
3320,82049;2,65744
3318,76934;2,65644
3316,71818;2,65257
3314,66703;2,64738
3312,61587;2,6451
3310,56472;2,64209
3308,51356;2,63902
3306,46241;2,64236
3304,41125;2,64804
3302,36009;2,64861
3300,30894;2,64511
3298,25778;2,64141
3296,20663;2,64353
3294,15547;2,64908
3292,10432;2,64615
3290,05316;2,6362
3288,00201;2,62935
3285,95085;2,62558
3283,8997;2,62469
3281,84854;2,63021
3279,79739;2,63532
3277,74623;2,63299
3275,69508;2,63144
3273,64392;2,63816
3271,59276;2,64612
3269,54161;2,64428
3267,49045;2,6354
3265,4393;2,6326
3263,38814;2,63479
3261,33699;2,62949
3259,28583;2,6193
3257,23468;2,61332
3255,18352;2,61172
3253,13237;2,61318
3251,08121;2,61441
3249,03006;2,61448
3246,9789;2,61747
3244,92775;2,62172
3242,87659;2,62349
3240,82543;2,61854
3238,77428;2,60744
3236,72312;2,6034
3234,67197;2,60746
3232,62081;2,60706
3230,56966;2,60445
3228,5185;2,60711
3226,46735;2,61245
3224,41619;2,61549
3222,36504;2,61214
3220,31388;2,60409
3218,26273;2,6007
3216,21157;2,60357
3214,16041;2,60587
3212,10926;2,60556
3210,0581;2,60381
3208,00695;2,59918
3205,95579;2,59176
3203,90464;2,5853
3201,85348;2,58337
3199,80233;2,5888
3197,75117;2,59857
3195,70002;2,60285
3193,64886;2,60077
3191,59771;2,59671
3189,54655;2,58972
3187,4954;2,5862
3185,44424;2,58743
3183,39308;2,5833
3181,34193;2,57691
3179,29077;2,57649
3177,23962;2,5822
3175,18846;2,59006
3173,13731;2,58953
3171,08615;2,57981
3169,035;2,57208
3166,98384;2,56662
3164,93269;2,56078
3162,88153;2,55905
3160,83038;2,5616
3158,77922;2,56339
3156,72807;2,56236
3154,67691;2,55951
3152,62575;2,55416
3150,5746;2,54776
3148,52344;2,54427
3146,47229;2,54348
3144,42113;2,5421
3142,36998;2,53799
3140,31882;2,53353
3138,26767;2,5337
3136,21651;2,53848
3134,16536;2,54435
3132,1142;2,54807
3130,06305;2,54655
3128,01189;2,54346
3125,96074;2,54276
3123,90958;2,54178
3121,85842;2,53777
3119,80727;2,52991
3117,75611;2,52374
3115,70496;2,52463
3113,6538;2,52846
3111,60265;2,53032
3109,55149;2,53004
3107,50034;2,52907
3105,44918;2,52801
3103,39803;2,52687
3101,34687;2,5258
3099,29572;2,52409
3097,24456;2,5209
3095,19341;2,51913
3093,14225;2,52035
3091,09109;2,51975
3089,03994;2,518
3086,98878;2,52275
3084,93763;2,53053
3082,88647;2,53107
3080,83532;2,52665
3078,78416;2,5231
3076,73301;2,51912
3074,68185;2,51654
3072,6307;2,51727
3070,57954;2,51794
3068,52839;2,51562
3066,47723;2,50981
3064,42608;2,50366
3062,37492;2,50002
3060,32376;2,50009
3058,27261;2,50453
3056,22145;2,50913
3054,1703;2,51054
3052,11914;2,51028
3050,06799;2,50932
3048,01683;2,50856
3045,96568;2,50826
3043,91452;2,50855
3041,86337;2,50973
3039,81221;2,51019
3037,76106;2,50936
3035,7099;2,50922
3033,65875;2,51065
3031,60759;2,50941
3029,55643;2,50494
3027,50528;2,50501
3025,45412;2,51028
3023,40297;2,51353
3021,35181;2,51511
3019,30066;2,51734
3017,2495;2,51758
3015,19835;2,51903
3013,14719;2,52407
3011,09604;2,52883
3009,04488;2,53222
3006,99373;2,53471
3004,94257;2,53726
3002,89142;2,54008
3000,84026;2,54243
2998,7891;2,54802
2996,73795;2,5617
2994,68679;2,58237
2992,63564;2,60185
2990,58448;2,61331
2988,53333;2,61866
2986,48217;2,62328
2984,43102;2,6296
2982,37986;2,6365
2980,32871;2,63848
2978,27755;2,633
2976,2264;2,62551
2974,17524;2,61969
2972,12409;2,62022
2970,07293;2,62412
2968,02177;2,62135
2965,97062;2,61679
2963,91946;2,6151
2961,86831;2,60933
2959,81715;2,60245
2957,766;2,60348
2955,71484;2,6056
2953,66369;2,6025
2951,61253;2,60516
2949,56138;2,61235
2947,51022;2,61106
2945,45907;2,60418
2943,40791;2,59879
2941,35675;2,59604
2939,3056;2,59534
2937,25444;2,59657
2935,20329;2,59832
2933,15213;2,59792
2931,10098;2,59858
2929,04982;2,6006
2926,99867;2,59905
2924,94751;2,59368
2922,89636;2,58712
2920,8452;2,58438
2918,79405;2,58471
2916,74289;2,58352
2914,69174;2,58279
2912,64058;2,58216
2910,58942;2,58153
2908,53827;2,58517
2906,48711;2,59228
2904,43596;2,5958
2902,3848;2,59199
2900,33365;2,58741
2898,28249;2,59057
2896,23134;2,59919
2894,18018;2,60546
2892,12903;2,60719
2890,07787;2,60652
2888,02672;2,60756
2885,97556;2,61283
2883,92441;2,61877
2881,87325;2,6229
2879,82209;2,62903
2877,77094;2,6375
2875,71978;2,64304
2873,66863;2,64409
2871,61747;2,64609
2869,56632;2,65131
2867,51516;2,65309
2865,46401;2,64855
2863,41285;2,63954
2861,3617;2,62455
2859,31054;2,60844
2857,25939;2,603
2855,20823;2,60709
2853,15708;2,60562
2851,10592;2,59467
2849,05476;2,58325
2847,00361;2,57658
2844,95245;2,57152
2842,9013;2,56195
2840,85014;2,55079
2838,79899;2,53986
2836,74783;2,52415
2834,69668;2,50871
2832,64552;2,49911
2830,59437;2,49119
2828,54321;2,48158
2826,49206;2,47052
2824,4409;2,46073
2822,38975;2,45453
2820,33859;2,45005
2818,28743;2,44403
2816,23628;2,43539
2814,18512;2,42542
2812,13397;2,418
2810,08281;2,41544
2808,03166;2,41447
2805,9805;2,41266
2803,92935;2,41164
2801,87819;2,41061
2799,82704;2,40657
2797,77588;2,40108
2795,72473;2,3959
2793,67357;2,39
2791,62242;2,38409
2789,57126;2,37902
2787,5201;2,37531
2785,46895;2,37237
2783,41779;2,36855
2781,36664;2,36498
2779,31548;2,36286
2777,26433;2,35947
2775,21317;2,35305
2773,16202;2,34715
2771,11086;2,34572
2769,05971;2,34706
2767,00855;2,34726
2764,9574;2,34582
2762,90624;2,34315
2760,85509;2,33986
2758,80393;2,33794
2756,75277;2,33868
2754,70162;2,33999
2752,65046;2,33845
2750,59931;2,33509
2748,54815;2,33364
2746,497;2,3341
2744,44584;2,33356
2742,39469;2,33186
2740,34353;2,33017
2738,29238;2,32934
2736,24122;2,3303
2734,19007;2,33107
2732,13891;2,3281
2730,08776;2,32228
2728,0366;2,31936
2725,98544;2,32033
2723,93429;2,32129
2721,88313;2,32173
2719,83198;2,32123
2717,78082;2,3189
2715,72967;2,31698
2713,67851;2,31613
2711,62736;2,31518
2709,5762;2,31388
2707,52505;2,31365
2705,47389;2,31559
2703,42274;2,3172
2701,37158;2,31524
2699,32043;2,31193
2697,26927;2,31205
2695,21811;2,31465
2693,16696;2,31621
2691,1158;2,3163
2689,06465;2,31468
2687,01349;2,31193
2684,96234;2,31071
2682,91118;2,31175
2680,86003;2,31282
2678,80887;2,31279
2676,75772;2,31336
2674,70656;2,31552
2672,65541;2,3178
2670,60425;2,31947
2668,55309;2,32088
2666,50194;2,32123
2664,45078;2,32139
2662,39963;2,32406
2660,34847;2,32721
2658,29732;2,32916
2656,24616;2,33148
2654,19501;2,33141
2652,14385;2,33073
2650,0927;2,33545
2648,04154;2,3417
2645,99039;2,34513
2643,93923;2,34953
2641,88808;2,35737
2639,83692;2,36611
2637,78576;2,37303
2635,73461;2,38155
2633,68345;2,39534
2631,6323;2,4098
2629,58114;2,42073
2627,52999;2,42964
2625,47883;2,43954
2623,42768;2,45215
2621,37652;2,46382
2619,32537;2,47166
2617,27421;2,47931
2615,22306;2,49042
2613,1719;2,50248
2611,12075;2,51214
2609,06959;2,52113
2607,01843;2,52947
2604,96728;2,53536
2602,91612;2,53929
2600,86497;2,54205
2598,81381;2,54547
2596,76266;2,54949
2594,7115;2,55119
2592,66035;2,55139
2590,60919;2,55377
2588,55804;2,5601
2586,50688;2,56674
2584,45573;2,56702
2582,40457;2,56405
2580,35342;2,56392
2578,30226;2,56555
2576,2511;2,56729
2574,19995;2,56779
2572,14879;2,56633
2570,09764;2,5655
2568,04648;2,56816
2565,99533;2,57191
2563,94417;2,57227
2561,89302;2,57247
2559,84186;2,57606
2557,79071;2,57862
2555,73955;2,57916
2553,6884;2,58457
2551,63724;2,59501
2549,58609;2,60146
2547,53493;2,60021
2545,48377;2,5977
2543,43262;2,6025
2541,38146;2,61504
2539,33031;2,62762
2537,27915;2,63839
2535,228;2,6518
2533,17684;2,66415
2531,12569;2,6742
2529,07453;2,68913
2527,02338;2,70445
2524,97222;2,71282
2522,92107;2,71861
2520,86991;2,72774
2518,81876;2,74114
2516,7676;2,75333
2514,71644;2,75698
2512,66529;2,75194
2510,61413;2,74347
2508,56298;2,73762
2506,51182;2,73765
2504,46067;2,7372
2502,40951;2,72626
2500,35836;2,70386
2498,3072;2,67758
2496,25605;2,65337
2494,20489;2,63473
2492,15374;2,62045
2490,10258;2,60451
2488,05143;2,58911
2486,00027;2,57629
2483,94911;2,56091
2481,89796;2,54447
2479,8468;2,53019
2477,79565;2,51379
2475,74449;2,49462
2473,69334;2,47655
2471,64218;2,46066
2469,59103;2,44618
2467,53987;2,43152
2465,48872;2,41886
2463,43756;2,41069
2461,38641;2,40449
2459,33525;2,39807
2457,2841;2,39014
2455,23294;2,37996
2453,18178;2,36995
2451,13063;2,36182
2449,07947;2,35421
2447,02832;2,34678
2444,97716;2,34077
2442,92601;2,33582
2440,87485;2,33071
2438,8237;2,32556
2436,77254;2,32115
2434,72139;2,31821
2432,67023;2,3155
2430,61908;2,31122
2428,56792;2,30687
2426,51677;2,30283
2424,46561;2,29829
2422,41445;2,29412
2420,3633;2,29067
2418,31214;2,2885
2416,26099;2,28669
2414,20983;2,28305
2412,15868;2,27907
2410,10752;2,27736
2408,05637;2,27768
2406,00521;2,27745
2403,95406;2,27521
2401,9029;2,27253
2399,85175;2,2705
2397,80059;2,26856
2395,74944;2,26637
2393,69828;2,26467
2391,64712;2,26357
2389,59597;2,26221
2387,54481;2,26068
2385,49366;2,25995
2383,4425;2,26133
2381,39135;2,26406
2379,34019;2,26496
2377,28904;2,26355
2375,23788;2,26245
2373,18673;2,26384
2371,13557;2,26746
2369,08442;2,2715
2367,03326;2,27389
2364,9821;2,27247
2362,93095;2,26854
2360,87979;2,26555
2358,82864;2,26504
2356,77748;2,26565
2354,72633;2,2634
2352,67517;2,2601
2350,62402;2,26108
2348,57286;2,26437
2346,52171;2,26343
2344,47055;2,25733
2342,4194;2,25251
2340,36824;2,25254
2338,31709;2,255
2336,26593;2,25644
2334,21477;2,2566
2332,16362;2,2573
2330,11246;2,2577
2328,06131;2,25649
2326,01015;2,25587
2323,959;2,25812
2321,90784;2,26132
2319,85669;2,26227
2317,80553;2,26145
2315,75438;2,2614
2313,70322;2,26331
2311,65207;2,26608
2309,60091;2,26728
2307,54976;2,26676
2305,4986;2,26591
2303,44744;2,26397
2301,39629;2,25995
2299,34513;2,25591
2297,29398;2,255
2295,24282;2,25662
2293,19167;2,25719
2291,14051;2,25571
2289,08936;2,25392
2287,0382;2,25293
2284,98705;2,25308
2282,93589;2,25438
2280,88474;2,25568
2278,83358;2,25588
2276,78243;2,25581
2274,73127;2,25717
2272,68011;2,25911
2270,62896;2,25933
2268,5778;2,25876
2266,52665;2,2599
2264,47549;2,26314
2262,42434;2,26695
2260,37318;2,2694
2258,32203;2,27013
2256,27087;2,27036
2254,21972;2,27129
2252,16856;2,27386
2250,11741;2,27696
2248,06625;2,27909
2246,0151;2,27981
2243,96394;2,27943
2241,91278;2,27967
2239,86163;2,28293
2237,81047;2,28918
2235,75932;2,29442
2233,70816;2,29602
2231,65701;2,29686
2229,60585;2,30024
2227,5547;2,30512
2225,50354;2,30817
2223,45239;2,30876
2221,40123;2,30947
2219,35008;2,31185
2217,29892;2,31391
2215,24777;2,31479
2213,19661;2,31546
2211,14545;2,31537
2209,0943;2,31517
2207,04314;2,31647
2204,99199;2,31885
2202,94083;2,32112
2200,88968;2,32148
2198,83852;2,31999
2196,78737;2,32004
2194,73621;2,32223
2192,68506;2,32415
2190,6339;2,32608
2188,58275;2,32892
2186,53159;2,33195
2184,48044;2,33397
2182,42928;2,335
2180,37812;2,33734
2178,32697;2,33944
2176,27581;2,33841
2174,22466;2,33857
2172,1735;2,34282
2170,12235;2,34808
2168,07119;2,35345
2166,02004;2,35895
2163,96888;2,36354
2161,91773;2,36973
2159,86657;2,379
2157,81542;2,38713
2155,76426;2,39437
2153,71311;2,40466
2151,66195;2,41492
2149,61079;2,42019
2147,55964;2,42142
2145,50848;2,42366
2143,45733;2,42928
2141,40617;2,43512
2139,35502;2,43684
2137,30386;2,43432
2135,25271;2,43161
2133,20155;2,42921
2131,1504;2,42422
2129,09924;2,41711
2127,04809;2,40994
2124,99693;2,40269
2122,94578;2,39392
2120,89462;2,38419
2118,84346;2,37636
2116,79231;2,37043
2114,74115;2,36479
2112,69;2,35958
2110,63884;2,35587
2108,58769;2,35386
2106,53653;2,35233
2104,48538;2,34971
2102,43422;2,3461
2100,38307;2,34513
2098,33191;2,34639
2096,28076;2,3455
2094,2296;2,34396
2092,17844;2,34498
2090,12729;2,34634
2088,07613;2,34603
2086,02498;2,34622
2083,97382;2,34674
2081,92267;2,34588
2079,87151;2,34697
2077,82036;2,35016
2075,7692;2,35109
2073,71805;2,35121
2071,66689;2,35422
2069,61574;2,35857
2067,56458;2,3602
2065,51343;2,35958
2063,46227;2,36118
2061,41111;2,3649
2059,35996;2,36684
2057,3088;2,36667
2055,25765;2,36675
2053,20649;2,36836
2051,15534;2,3708
2049,10418;2,37157
2047,05303;2,37086
2045,00187;2,37197
2042,95072;2,37406
2040,89956;2,37507
2038,84841;2,37661
2036,79725;2,37918
2034,7461;2,38144
2032,69494;2,38337
2030,64378;2,3858
2028,59263;2,38775
2026,54147;2,38773
2024,49032;2,38766
2022,43916;2,38969
2020,38801;2,39152
2018,33685;2,39214
2016,2857;2,39501
2014,23454;2,39913
2012,18339;2,40085
2010,13223;2,40065
2008,08108;2,39975
2006,02992;2,40038
2003,97877;2,40259
2001,92761;2,40377
1999,87645;2,40513
1997,8253;2,4088
1995,77414;2,41316
1993,72299;2,41495
1991,67183;2,41397
1989,62068;2,41411
1987,56952;2,41653
1985,51837;2,41823
1983,46721;2,41887
1981,41606;2,4197
1979,3649;2,42134
1977,31375;2,42476
1975,26259;2,42877
1973,21144;2,43151
1971,16028;2,43341
1969,10912;2,43607
1967,05797;2,44098
1965,00681;2,451
1962,95566;2,46345
1960,9045;2,46733
1958,85335;2,46098
1956,80219;2,45436
1954,75104;2,45138
1952,69988;2,44942
1950,64873;2,44789
1948,59757;2,448
1946,54642;2,44931
1944,49526;2,45024
1942,44411;2,45121
1940,39295;2,45234
1938,34179;2,45191
1936,29064;2,45249
1934,23948;2,45577
1932,18833;2,45913
1930,13717;2,46171
1928,08602;2,4628
1926,03486;2,46308
1923,98371;2,46545
1921,93255;2,46868
1919,8814;2,4708
1917,83024;2,4746
1915,77909;2,47935
1913,72793;2,4811
1911,67678;2,48186
1909,62562;2,48331
1907,57446;2,48501
1905,52331;2,48844
1903,47215;2,49426
1901,421;2,49973
1899,36984;2,50166
1897,31869;2,50167
1895,26753;2,50359
1893,21638;2,50807
1891,16522;2,51315
1889,11407;2,51708
1887,06291;2,51926
1885,01176;2,5208
1882,9606;2,52333
1880,90945;2,52723
1878,85829;2,53168
1876,80713;2,53469
1874,75598;2,53705
1872,70482;2,54118
1870,65367;2,54527
1868,60251;2,54748
1866,55136;2,55136
1864,5002;2,55915
1862,44905;2,56957
1860,39789;2,581
1858,34674;2,58872
1856,29558;2,59007
1854,24443;2,59037
1852,19327;2,59399
1850,14212;2,59984
1848,09096;2,60791
1846,0398;2,61769
1843,98865;2,62558
1841,93749;2,63265
1839,88634;2,64071
1837,83518;2,64818
1835,78403;2,6543
1833,73287;2,65934
1831,68172;2,66452
1829,63056;2,67123
1827,57941;2,67918
1825,52825;2,68872
1823,4771;2,70089
1821,42594;2,71301
1819,37478;2,72276
1817,32363;2,73472
1815,27247;2,75547
1813,22132;2,78367
1811,17016;2,81256
1809,11901;2,8378
1807,06785;2,86335
1805,0167;2,89606
1802,96554;2,93634
1800,91439;2,97896
1798,86323;3,01488
1796,81208;3,03905
1794,76092;3,04789
1792,70977;3,03076
1790,65861;2,99504
1788,60745;2,96412
1786,5563;2,93876
1784,50514;2,91242
1782,45399;2,88798
1780,40283;2,86854
1778,35168;2,85522
1776,30052;2,84526
1774,24937;2,83519
1772,19821;2,82803
1770,14706;2,82713
1768,0959;2,82868
1766,04475;2,83209
1763,99359;2,8378
1761,94244;2,84343
1759,89128;2,84882
1757,84012;2,85079
1755,78897;2,84779
1753,73781;2,8486
1751,68666;2,8578
1749,6355;2,87103
1747,58435;2,88546
1745,53319;2,90019
1743,48204;2,90898
1741,43088;2,90705
1739,37973;2,89944
1737,32857;2,89314
1735,27742;2,88576
1733,22626;2,87926
1731,17511;2,88108
1729,12395;2,88635
1727,07279;2,8898
1725,02164;2,89192
1722,97048;2,89621
1720,91933;2,90425
1718,86817;2,9121
1716,81702;2,91705
1714,76586;2,92037
1712,71471;2,92434
1710,66355;2,92645
1708,6124;2,92116
1706,56124;2,91545
1704,51009;2,92423
1702,45893;2,94155
1700,40778;2,94748
1698,35662;2,94002
1696,30546;2,93415
1694,25431;2,94047
1692,20315;2,952
1690,152;2,95804
1688,10084;2,95895
1686,04969;2,9592
1683,99853;2,96481
1681,94738;2,97699
1679,89622;2,98594
1677,84507;2,9909
1675,79391;2,99608
1673,74276;3,00448
1671,6916;3,01062
1669,64045;3,00591
1667,58929;2,99825
1665,53813;2,99775
1663,48698;3,00128
1661,43582;3,00762
1659,38467;3,02049
1657,33351;3,03491
1655,28236;3,03584
1653,2312;3,02749
1651,18005;3,04314
1649,12889;3,06925
1647,07774;3,0694
1645,02658;3,04724
1642,97543;3,03291
1640,92427;3,0344
1638,87312;3,04066
1636,82196;3,04082
1634,7708;3,04456
1632,71965;3,05979
1630,66849;3,06708
1628,61734;3,0591
1626,56618;3,05477
1624,51503;3,0615
1622,46387;3,0699
1620,41272;3,08062
1618,36156;3,09034
1616,31041;3,08982
1614,25925;3,08557
1612,2081;3,08354
1610,15694;3,08144
1608,10579;3,07947
1606,05463;3,07948
1604,00347;3,082
1601,95232;3,08315
1599,90116;3,07976
1597,85001;3,07401
1595,79885;3,07288
1593,7477;3,08046
1591,69654;3,09126
1589,64539;3,09263
1587,59423;3,08153
1585,54308;3,0673
1583,49192;3,05472
1581,44077;3,04424
1579,38961;3,03339
1577,33846;3,01459
1575,2873;2,98842
1573,23614;2,96426
1571,18499;2,9408
1569,13383;2,92014
1567,08268;2,90615
1565,03152;2,88985
1562,98037;2,86938
1560,92921;2,84408
1558,87806;2,80423
1556,8269;2,76181
1554,77575;2,73197
1552,72459;2,70733
1550,67344;2,68171
1548,62228;2,65697
1546,57113;2,63251
1544,51997;2,60567
1542,46881;2,58268
1540,41766;2,56569
1538,3665;2,55313
1536,31535;2,54394
1534,26419;2,53059
1532,21304;2,51513
1530,16188;2,50463
1528,11073;2,4979
1526,05957;2,49413
1524,00842;2,49209
1521,95726;2,48709
1519,90611;2,48108
1517,85495;2,47594
1515,80379;2,47166
1513,75264;2,47169
1511,70148;2,47495
1509,65033;2,47538
1507,59917;2,46793
1505,54802;2,45964
1503,49686;2,45938
1501,44571;2,46205
1499,39455;2,46276
1497,3434;2,4607
1495,29224;2,45747
1493,24109;2,4533
1491,18993;2,44613
1489,13878;2,43945
1487,08762;2,43742
1485,03646;2,43673
1482,98531;2,43484
1480,93415;2,43352
1478,883;2,43453
1476,83184;2,43601
1474,78069;2,43415
1472,72953;2,42715
1470,67838;2,41972
1468,62722;2,41517
1466,57607;2,41088
1464,52491;2,40565
1462,47376;2,40144
1460,4226;2,39716
1458,37145;2,3903
1456,32029;2,38519
1454,26913;2,38593
1452,21798;2,38637
1450,16682;2,38264
1448,11567;2,37575
1446,06451;2,36781
1444,01336;2,36039
1441,9622;2,35487
1439,91105;2,35137
1437,85989;2,34701
1435,80874;2,34136
1433,75758;2,3359
1431,70643;2,3277
1429,65527;2,31665
1427,60412;2,30618
1425,55296;2,29502
1423,5018;2,28065
1421,45065;2,264
1419,39949;2,24566
1417,34834;2,22839
1415,29718;2,21243
1413,24603;2,19358
1411,19487;2,17347
1409,14372;2,15862
1407,09256;2,1533
1405,04141;2,15824
1402,99025;2,17055
1400,9391;2,18451
1398,88794;2,19785
1396,83679;2,21229
1394,78563;2,22923
1392,73447;2,24774
1390,68332;2,26615
1388,63216;2,28534
1386,58101;2,30631
1384,52985;2,3271
1382,4787;2,34507
1380,42754;2,36038
1378,37639;2,37576
1376,32523;2,39162
1374,27408;2,40483
1372,22292;2,41538
1370,17177;2,42562
1368,12061;2,43601
1366,06946;2,44633
1364,0183;2,45506
1361,96714;2,4604
1359,91599;2,46498
1357,86483;2,47297
1355,81368;2,48342
1353,76252;2,4916
1351,71137;2,49605
1349,66021;2,49944
1347,60906;2,50417
1345,5579;2,51095
1343,50675;2,51733
1341,45559;2,5198
1339,40444;2,51962
1337,35328;2,5221
1335,30213;2,5284
1333,25097;2,53514
1331,19981;2,54082
1329,14866;2,54527
1327,0975;2,5476
1325,04635;2,54888
1322,99519;2,55173
1320,94404;2,55607
1318,89288;2,56015
1316,84173;2,56347
1314,79057;2,56457
1312,73942;2,5628
1310,68826;2,56099
1308,63711;2,56032
1306,58595;2,56067
1304,5348;2,56347
1302,48364;2,56755
1300,43248;2,57116
1298,38133;2,57488
1296,33017;2,57738
1294,27902;2,57925
1292,22786;2,58225
1290,17671;2,58404
1288,12555;2,58504
1286,0744;2,58689
1284,02324;2,58852
1281,97209;2,59047
1279,92093;2,59189
1277,86978;2,59149
1275,81862;2,59089
1273,76747;2,59166
1271,71631;2,59539
1269,66515;2,60156
1267,614;2,60675
1265,56284;2,60911
1263,51169;2,61079
1261,46053;2,61251
1259,40938;2,61208
1257,35822;2,6137
1255,30707;2,62098
1253,25591;2,62947
1251,20476;2,63357
1249,1536;2,63136
1247,10245;2,62595
1245,05129;2,62292
1243,00013;2,62615
1240,94898;2,62926
1238,89782;2,62595
1236,84667;2,62642
1234,79551;2,63495
1232,74436;2,64095
1230,6932;2,64387
1228,64205;2,64768
1226,59089;2,64626
1224,53974;2,64076
1222,48858;2,64278
1220,43743;2,65055
1218,38627;2,65037
1216,33512;2,64614
1214,28396;2,64939
1212,2328;2,65454
1210,18165;2,65339
1208,13049;2,6501
1206,07934;2,65178
1204,02818;2,65801
1201,97703;2,66444
1199,92587;2,66743
1197,87472;2,66738
1195,82356;2,66875
1193,77241;2,67277
1191,72125;2,67694
1189,6701;2,68105
1187,61894;2,68693
1185,56779;2,69466
1183,51663;2,70221
1181,46547;2,706
1179,41432;2,70496
1177,36316;2,7031
1175,31201;2,70236
1173,26085;2,69949
1171,2097;2,69635
1169,15854;2,70003
1167,10739;2,70808
1165,05623;2,71056
1163,00508;2,70576
1160,95392;2,69972
1158,90277;2,69581
1156,85161;2,69745
1154,80046;2,70188
1152,7493;2,70153
1150,69814;2,69793
1148,64699;2,69403
1146,59583;2,68913
1144,54468;2,6863
1142,49352;2,69131
1140,44237;2,6966
1138,39121;2,69272
1136,34006;2,68732
1134,2889;2,68561
1132,23775;2,68735
1130,18659;2,69431
1128,13544;2,70107
1126,08428;2,7022
1124,03313;2,70101
1121,98197;2,69996
1119,93081;2,69987
1117,87966;2,70436
1115,8285;2,70898
1113,77735;2,70516
1111,72619;2,69772
1109,67504;2,69576
1107,62388;2,69693
1105,57273;2,69446
1103,52157;2,69001
1101,47042;2,68865
1099,41926;2,69209
1097,36811;2,69965
1095,31695;2,70844
1093,2658;2,71231
1091,21464;2,71164
1089,16348;2,71707
1087,11233;2,72794
1085,06117;2,73352
1083,01002;2,72708
1080,95886;2,71636
1078,90771;2,7147
1076,85655;2,71521
1074,8054;2,70977
1072,75424;2,70406
1070,70309;2,70158
1068,65193;2,70261
1066,60078;2,70235
1064,54962;2,69589
1062,49847;2,68666
1060,44731;2,67993
1058,39615;2,68133
1056,345;2,69005
1054,29384;2,69665
1052,24269;2,6971
1050,19153;2,69515
1048,14038;2,69402
1046,08922;2,69309
1044,03807;2,69223
1041,98691;2,69186
1039,93576;2,69133
1037,8846;2,69411
1035,83345;2,69888
1033,78229;2,70078
1031,73114;2,70161
1029,67998;2,7038
1027,62882;2,70806
1025,57767;2,71204
1023,52651;2,713
1021,47536;2,71392
1019,4242;2,71742
1017,37305;2,71985
1015,32189;2,71983
1013,27074;2,72492
1011,21958;2,73126
1009,16843;2,72977
1007,11727;2,72449
1005,06612;2,71936
1003,01496;2,716
1000,96381;2,71586
998,91265;2,71309
996,86149;2,70397
994,81034;2,69665
992,75918;2,69568
990,70803;2,69915
988,65687;2,70715
986,60572;2,71218
984,55456;2,71012
982,50341;2,70981
980,45225;2,70961
978,4011;2,70545
976,34994;2,70195
974,29879;2,69924
972,24763;2,69645
970,19647;2,69566
968,14532;2,69895
966,09416;2,70319
964,04301;2,70236
961,99185;2,69775
959,9407;2,69264
957,88954;2,691
955,83839;2,69455
953,78723;2,69571
951,73608;2,69224
949,68492;2,6909
947,63377;2,69511
945,58261;2,70562
943,53146;2,72223
941,4803;2,73365
939,42914;2,72683
937,37799;2,71607
935,32683;2,71603
933,27568;2,71834
931,22452;2,71414
929,17337;2,70675
927,12221;2,69945
925,07106;2,69221
923,0199;2,69225
920,96875;2,69631
918,91759;2,6894
916,86644;2,68226
914,81528;2,68854
912,76413;2,69647
910,71297;2,69684
908,66181;2,69266
906,61066;2,69486
904,5595;2,70852
902,50835;2,71902
900,45719;2,72091
898,40604;2,7283
896,35488;2,74149
894,30373;2,73677
892,25257;2,6983
890,20142;2,64803
888,15026;2,63072
886,09911;2,67474
884,04795;2,75511
881,9968;2,79399
879,94564;2,75009
877,89448;2,65531
875,84333;2,54501
873,79217;2,44808
871,74102;2,39786
869,68986;2,4168
867,63871;2,4855
865,58755;2,54907
863,5364;2,58189
861,48524;2,60139
859,43409;2,62216
857,38293;2,63913
855,33178;2,64466
853,28062;2,65104
851,22947;2,67422
849,17831;2,70124
847,12715;2,69881
845,076;2,6733
843,02484;2,66047
840,97369;2,66372
838,92253;2,66389
836,87138;2,65923
834,82022;2,65713
832,76907;2,66023
830,71791;2,66567
828,66676;2,6622
826,6156;2,65902
824,56445;2,67321
822,51329;2,69753
820,46214;2,7149
818,41098;2,71604
816,35982;2,70271
814,30867;2,68477
812,25751;2,68135
810,20636;2,69821
808,1552;2,71315
806,10405;2,71155
804,05289;2,70919
802,00174;2,71653
799,95058;2,71814
797,89943;2,7125
795,84827;2,70884
793,79712;2,70286
791,74596;2,70001
789,69481;2,71684
787,64365;2,74127
785,59249;2,74733
783,54134;2,75208
781,49018;2,7741
779,43903;2,789
777,38787;2,78633
775,33672;2,78473
773,28556;2,78805
771,23441;2,789
769,18325;2,78021
767,1321;2,76444
765,08094;2,74941
763,02979;2,7426
760,97863;2,74995
758,92748;2,75788
756,87632;2,74948
754,82516;2,74502
752,77401;2,75574
750,72285;2,76913
748,6717;2,78161
746,62054;2,78205
744,56939;2,76613
742,51823;2,75695
740,46708;2,76244
738,41592;2,77972
736,36477;2,8046
734,31361;2,81811
732,26246;2,83149
730,2113;2,85851
728,16015;2,87252
726,10899;2,87772
724,05783;2,90171
722,00668;2,93661
719,95552;2,96204
717,90437;2,97305
715,85321;2,9621
713,80206;2,91847
711,7509;2,86309
709,69975;2,82608
707,64859;2,81545
705,59744;2,828
703,54628;2,84785
701,49513;2,84229
699,44397;2,80906
697,39281;2,78663
695,34166;2,79005
693,2905;2,80337
691,23935;2,81388
689,18819;2,81299
687,13704;2,7982
685,08588;2,78362
683,03473;2,78043
680,98357;2,78735
678,93242;2,79857
676,88126;2,80502
674,83011;2,81107
672,77895;2,82843
670,7278;2,83824
668,67664;2,81372
666,62548;2,78656
664,57433;2,80172
662,52317;2,83674
660,47202;2,86477
658,42086;2,89301
656,36971;2,91647
654,31855;2,91287
652,2674;2,88825
650,21624;2,85922
648,16509;2,83519
646,11393;2,83368
644,06278;2,85394
642,01162;2,87838
639,96047;2,89172
637,90931;2,88471
635,85815;2,8721
633,807;2,87244
631,75584;2,87605
629,70469;2,86279
627,65353;2,84057
625,60238;2,84619
623,55122;2,86781
621,50007;2,888
619,44891;2,91632
617,39776;2,92162
615,3466;2,88205
613,29545;2,8542
611,24429;2,85542
609,19314;2,8654
607,14198;2,89014
605,09082;2,94023
603,03967;2,99565
600,98851;3,00758
598,93736;2,96557
596,8862;2,9263
594,83505;2,91933
592,78389;2,93309
590,73274;2,97314
588,68158;3,00539
586,63043;3,00062
584,57927;2,9686
582,52812;2,96699
580,47696;2,99793
578,42581;3,02492
576,37465;3,02487
574,32349;3,02745
572,27234;3,03998
570,22118;3,02286
568,17003;3,03323
566,11887;3,05499
564,06772;3,02121
562,01656;2,97512
559,96541;2,95578
557,91425;2,97642
555,8631;3,07114
553,81194;3,13705
551,76079;3,04299
549,70963;2,96101
547,65848;2,99894
545,60732;3,03904
543,55616;2,98644
541,50501;2,9357
539,45385;2,95445
537,4027;3,00393
535,35154;3,02808
533,30039;3,02378
531,24923;3,00991
529,19808;3,00065
527,14692;2,98319
525,09577;2,95947
523,04461;2,978
520,99346;3,02884
518,9423;3,05381
516,89115;3,04913
514,83999;3,01877
512,78883;3,00106
510,73768;3,02653
508,68652;3,03098
506,63537;2,99234
504,58421;2,97447
502,53306;2,99777
500,4819;3,05822
498,43075;3,13031
496,37959;3,15315
494,32844;3,1192
492,27728;3,06057
490,22613;3,01914
488,17497;3,01053
486,12382;3,00468
484,07266;2,98531
482,0215;2,96853
479,97035;2,94633
477,91919;2,93933
475,86804;3,0078
473,81688;3,14174
471,76573;3,20688
469,71457;3,14045
467,66342;3,08312
465,61226;3,05347
463,56111;3,05473
461,50995;3,07675
459,4588;2,98551
457,40764;2,90884
455,35649;2,88462
453,30533;2,85782
451,25417;2,84927
449,20302;2,86312
447,15186;2,87287
445,10071;2,91439
443,04955;2,99712
440,9984;3,0898
438,94724;3,18608
436,89609;3,14915
434,84493;3,00357
432,79378;2,94241
430,74262;2,95234
428,69147;2,90136
426,64031;2,86725
424,58916;2,92223
422,538;3,00859
420,48684;3,1748
418,43569;3,52124
416,38453;3,21429
414,33338;2,94611
412,28222;2,90605
410,23107;3,00684
408,17991;3,20293
406,12876;3,37808
404,0776;3,33039
402,02645;3,05264
399,97529;2,79449
