Data from terraverdeCiproWhite_Reflection__3__43.txt Node;
"Date: Wed Sep 10 12:40:36 CEST 2025 User: sycur Spectrometer: SR400348 Trigger mode: 0 Integration Time (sec): 1,000000E-2 Scans to average: 10 Electric dark correction enabled: true Nonlinearity correction enabled: false Boxcar width: 10 XAxis mode: Wavelengths Number of Pixels in Spectrum: 3648 >>>>>Begin Spectral Data<<<<<";
186,01;126,38
186,281;81,96
186,552;62,93
186,822;73,65
187,093;366,67
187,364;348,75
187,635;184,85
187,905;121,76
188,176;99,87
188,447;84,49
188,717;74,88
188,988;64,41
189,258;64,25
189,529;66,54
189,8;57,6
190,07;57,37
190,341;49,45
190,611;53,08
190,882;53,06
191,152;51,55
191,423;46,64
191,693;46,05
191,964;46,21
192,234;46,57
192,505;45,58
192,775;45,31
193,045;41,87
193,316;37,01
193,586;36,74
193,856;34,72
194,127;33,72
194,397;33,16
194,667;33,3
194,938;32,45
195,208;30,66
195,478;31,4
195,748;28,87
196,019;29,49
196,289;27,03
196,559;23,82
196,829;21,81
197,099;22,43
197,37;21,08
197,64;21,38
197,91;20
198,18;18,71
198,45;18,56
198,72;18,65
198,99;19,41
199,26;18,32
199,53;19,05
199,8;19,32
200,07;18,95
200,34;18,63
200,61;18,27
200,88;17,83
201,15;17,43
201,42;17,2
201,69;16,83
201,96;16,22
202,23;17,14
202,499;17,34
202,769;16,23
203,039;15,68
203,309;13,95
203,579;14,25
203,849;14,47
204,118;13,59
204,388;13,37
204,658;13,02
204,927;13,05
205,197;12,09
205,467;11,36
205,736;10,78
206,006;10,25
206,276;9,78
206,545;9,9
206,815;9,35
207,085;9,53
207,354;9,86
207,624;9,75
207,893;9,22
208,163;9,1
208,432;9,32
208,702;8,94
208,971;8,91
209,241;8,96
209,51;9,1
209,78;9,04
210,049;8,97
210,318;9,05
210,588;8,97
210,857;9,08
211,127;9,2
211,396;8,99
211,665;9,07
211,935;9,15
212,204;8,76
212,473;8,67
212,742;8,29
213,012;7,96
213,281;8,04
213,55;8,1
213,819;7,95
214,088;7,62
214,358;7,62
214,627;7,62
214,896;7,4
215,165;6,97
215,434;7,07
215,703;6,94
215,972;6,68
216,241;6,61
216,51;6,64
216,779;6,45
217,048;6,4
217,317;6,28
217,586;6,28
217,855;6,47
218,124;6,38
218,393;6,26
218,662;6,28
218,931;6,28
219,2;6,11
219,469;5,94
219,738;5,97
220,006;5,94
220,275;5,87
220,544;5,75
220,813;5,89
221,082;5,76
221,35;5,72
221,619;5,75
221,888;5,74
222,157;5,6
222,425;5,61
222,694;5,52
222,963;5,48
223,231;5,38
223,5;5,3
223,769;5,28
224,037;5,41
224,306;5,25
224,574;5,19
224,843;5,13
225,111;5,11
225,38;4,99
225,648;4,9
225,917;4,91
226,185;4,84
226,454;4,68
226,722;4,73
226,991;4,63
227,259;4,59
227,528;4,47
227,796;4,43
228,064;4,39
228,333;4,45
228,601;4,48
228,869;4,46
229,138;4,37
229,406;4,36
229,674;4,28
229,942;4,38
230,211;4,35
230,479;4,37
230,747;4,37
231,015;4,39
231,283;4,44
231,552;4,44
231,82;4,45
232,088;4,47
232,356;4,46
232,624;4,48
232,892;4,45
233,16;4,43
233,428;4,4
233,696;4,36
233,964;4,3
234,232;4,25
234,5;4,21
234,768;4,19
235,036;4,23
235,304;4,27
235,572;4,24
235,84;4,21
236,108;4,17
236,376;4,15
236,644;4,13
236,912;4,09
237,179;4,05
237,447;4,05
237,715;4
237,983;3,92
238,251;3,92
238,518;3,91
238,786;3,91
239,054;3,88
239,322;3,87
239,589;3,89
239,857;3,86
240,125;3,85
240,392;3,84
240,66;3,81
240,927;3,73
241,195;3,67
241,463;3,68
241,73;3,7
241,998;3,71
242,265;3,66
242,533;3,71
242,8;3,7
243,068;3,68
243,335;3,66
243,603;3,68
243,87;3,66
244,138;3,69
244,405;3,68
244,672;3,69
244,94;3,68
245,207;3,65
245,474;3,66
245,742;3,68
246,009;3,66
246,276;3,67
246,544;3,66
246,811;3,69
247,078;3,66
247,345;3,66
247,613;3,64
247,88;3,66
248,147;3,63
248,414;3,64
248,681;3,65
248,948;3,7
249,215;3,67
249,483;3,65
249,75;3,63
250,017;3,58
250,284;3,56
250,551;3,58
250,818;3,57
251,085;3,59
251,352;3,57
251,619;3,59
251,886;3,57
252,153;3,55
252,42;3,54
252,687;3,55
252,953;3,53
253,22;3,52
253,487;3,5
253,754;3,5
254,021;3,49
254,288;3,46
254,555;3,45
254,821;3,47
255,088;3,47
255,355;3,46
255,622;3,51
255,888;3,53
256,155;3,5
256,422;3,49
256,688;3,46
256,955;3,46
257,222;3,46
257,488;3,45
257,755;3,48
258,022;3,5
258,288;3,47
258,555;3,45
258,821;3,45
259,088;3,46
259,354;3,43
259,621;3,44
259,887;3,47
260,154;3,46
260,42;3,42
260,687;3,42
260,953;3,42
261,219;3,43
261,486;3,4
261,752;3,41
262,019;3,42
262,285;3,42
262,551;3,43
262,818;3,45
263,084;3,44
263,35;3,44
263,616;3,41
263,883;3,45
264,149;3,46
264,415;3,48
264,681;3,48
264,947;3,51
265,214;3,52
265,48;3,52
265,746;3,54
266,012;3,58
266,278;3,58
266,544;3,58
266,81;3,56
267,076;3,58
267,342;3,56
267,608;3,56
267,874;3,55
268,14;3,57
268,406;3,55
268,672;3,57
268,938;3,58
269,204;3,57
269,47;3,58
269,736;3,58
270,002;3,58
270,268;3,61
270,533;3,6
270,799;3,6
271,065;3,54
271,331;3,53
271,597;3,55
271,862;3,57
272,128;3,6
272,394;3,63
272,66;3,65
272,925;3,65
273,191;3,66
273,457;3,69
273,722;3,66
273,988;3,66
274,254;3,66
274,519;3,67
274,785;3,69
275,05;3,68
275,316;3,68
275,582;3,69
275,847;3,68
276,113;3,69
276,378;3,71
276,644;3,76
276,909;3,76
277,174;3,78
277,44;3,79
277,705;3,78
277,971;3,77
278,236;3,79
278,501;3,82
278,767;3,85
279,032;3,87
279,297;3,9
279,563;3,88
279,828;3,9
280,093;3,89
280,358;3,89
280,624;3,9
280,889;3,9
281,154;3,9
281,419;3,92
281,684;3,94
281,95;3,94
282,215;3,94
282,48;3,95
282,745;3,93
283,01;3,95
283,275;3,98
283,54;3,97
283,805;3,96
284,07;3,98
284,335;3,96
284,6;3,94
284,865;3,94
285,13;3,94
285,395;3,97
285,66;3,99
285,925;4,01
286,19;4,04
286,455;4,06
286,72;4,09
286,985;4,08
287,249;4,06
287,514;4,07
287,779;4,08
288,044;4,12
288,309;4,14
288,573;4,13
288,838;4,16
289,103;4,2
289,367;4,22
289,632;4,26
289,897;4,27
290,161;4,34
290,426;4,36
290,691;4,43
290,955;4,42
291,22;4,43
291,484;4,44
291,749;4,42
292,014;4,43
292,278;4,46
292,543;4,51
292,807;4,55
293,072;4,59
293,336;4,6
293,6;4,6
293,865;4,6
294,129;4,62
294,394;4,63
294,658;4,65
294,922;4,65
295,187;4,66
295,451;4,68
295,715;4,69
295,98;4,73
296,244;4,75
296,508;4,79
296,773;4,82
297,037;4,87
297,301;4,93
297,565;4,98
297,829;4,97
298,094;4,97
298,358;4,99
298,622;5,01
298,886;5,05
299,15;5,11
299,414;5,15
299,678;5,19
299,942;5,21
300,206;5,22
300,47;5,26
300,734;5,27
300,998;5,29
301,262;5,28
301,526;5,3
301,79;5,34
302,054;5,38
302,318;5,41
302,582;5,44
302,846;5,45
303,11;5,48
303,374;5,53
303,637;5,57
303,901;5,6
304,165;5,62
304,429;5,65
304,693;5,67
304,956;5,69
305,22;5,75
305,484;5,79
305,747;5,84
306,011;5,89
306,275;5,89
306,538;5,95
306,802;6,01
307,066;6,05
307,329;6,07
307,593;6,08
307,856;6,11
308,12;6,12
308,384;6,15
308,647;6,16
308,911;6,21
309,174;6,24
309,438;6,24
309,701;6,27
309,964;6,29
310,228;6,28
310,491;6,31
310,755;6,31
311,018;6,33
311,281;6,37
311,545;6,38
311,808;6,41
312,071;6,4
312,335;6,39
312,598;6,39
312,861;6,41
313,124;6,45
313,388;6,49
313,651;6,5
313,914;6,54
314,177;6,55
314,44;6,54
314,704;6,56
314,967;6,6
315,23;6,63
315,493;6,66
315,756;6,69
316,019;6,71
316,282;6,73
316,545;6,74
316,808;6,73
317,071;6,75
317,334;6,76
317,597;6,81
317,86;6,82
318,123;6,87
318,386;6,87
318,649;6,85
318,912;6,85
319,175;6,86
319,437;6,85
319,7;6,86
319,963;6,87
320,226;6,88
320,489;6,87
320,751;6,89
321,014;6,87
321,277;6,9
321,54;6,91
321,802;6,91
322,065;6,9
322,328;6,93
322,59;6,93
322,853;6,93
323,116;6,91
323,378;6,92
323,641;6,9
323,903;6,9
324,166;6,94
324,428;6,91
324,691;6,9
324,953;6,91
325,216;6,95
325,478;6,94
325,741;6,92
326,003;6,95
326,266;6,94
326,528;6,95
326,791;6,92
327,053;6,9
327,315;6,92
327,578;6,95
327,84;6,97
328,102;6,93
328,365;6,95
328,627;6,95
328,889;6,95
329,151;6,98
329,414;7,01
329,676;6,99
329,938;7
330,2;7
330,462;7,02
330,725;6,98
330,987;7,01
331,249;7,01
331,511;6,99
331,773;7
332,035;7,03
332,297;7,04
332,559;7,03
332,821;6,97
333,083;6,94
333,345;6,88
333,607;6,94
333,869;6,95
334,131;6,98
334,393;6,99
334,655;6,96
334,917;6,94
335,179;6,93
335,44;6,94
335,702;6,96
335,964;6,95
336,226;6,95
336,488;6,95
336,749;6,97
337,011;6,96
337,273;6,94
337,535;6,91
337,796;6,91
338,058;6,96
338,32;6,97
338,581;6,97
338,843;6,98
339,105;6,96
339,366;6,95
339,628;6,93
339,889;6,92
340,151;6,91
340,412;6,89
340,674;6,9
340,935;6,9
341,197;6,92
341,458;6,91
341,72;6,91
341,981;6,87
342,243;6,86
342,504;6,88
342,766;6,88
343,027;6,9
343,288;6,92
343,55;6,93
343,811;6,96
344,072;6,95
344,334;6,97
344,595;6,96
344,856;6,95
345,117;6,94
345,379;6,95
345,64;6,97
345,901;7,01
346,162;7,01
346,423;7,05
346,684;7,03
346,946;7,05
347,207;7,03
347,468;7,08
347,729;7,1
347,99;7,1
348,251;7,09
348,512;7,08
348,773;7,03
349,034;7
349,295;7,03
349,556;7,06
349,817;7,06
350,078;7,09
350,339;7,08
350,6;7,13
350,86;7,16
351,121;7,13
351,382;7,15
351,643;7,09
351,904;7,02
352,165;7
352,425;7,01
352,686;7,02
352,947;7,02
353,208;6,99
353,468;6,97
353,729;7,01
353,99;7,02
354,25;7,07
354,511;7,05
354,772;7,04
355,032;7,05
355,293;7,09
355,553;7,13
355,814;7,12
356,074;7,11
356,335;7,06
356,596;7,12
356,856;7,12
357,116;7,16
357,377;7,2
357,637;7,22
357,898;7,17
358,158;7,15
358,419;7,17
358,679;7,2
358,939;7,2
359,2;7,17
359,46;7,15
359,72;7,12
359,981;7,15
360,241;7,11
360,501;7,08
360,761;7,06
361,022;7
361,282;7,01
361,542;7
361,802;6,97
362,062;6,91
362,323;6,9
362,583;6,91
362,843;6,9
363,103;6,91
363,363;6,94
363,623;6,95
363,883;6,94
364,143;6,93
364,403;6,92
364,663;6,97
364,923;7,01
365,183;7,02
365,443;7,02
365,703;7,05
365,963;7,06
366,223;7,08
366,483;7,07
366,743;7,06
367,002;7,07
367,262;7,08
367,522;7,15
367,782;7,13
368,042;7,14
368,301;7,16
368,561;7,18
368,821;7,15
369,081;7,16
369,34;7,15
369,6;7,11
369,86;7,15
370,119;7,13
370,379;7,13
370,638;7,16
370,898;7,15
371,158;7,15
371,417;7,17
371,677;7,1
371,936;7,16
372,196;7,19
372,455;7,22
372,715;7,24
372,974;7,24
373,234;7,24
373,493;7,3
373,753;7,31
374,012;7,31
374,271;7,39
374,531;7,34
374,79;7,37
375,049;7,46
375,309;7,44
375,568;7,45
375,827;7,45
376,086;7,46
376,346;7,48
376,605;7,51
376,864;7,53
377,123;7,6
377,383;7,55
377,642;7,61
377,901;7,65
378,16;7,65
378,419;7,65
378,678;7,68
378,937;7,67
379,196;7,68
379,455;7,7
379,714;7,72
379,973;7,82
380,232;7,84
380,491;7,81
380,75;7,86
381,009;7,92
381,268;7,97
381,527;7,98
381,786;8,02
382,045;8,03
382,304;8,06
382,563;8,09
382,821;8,19
383,08;8,15
383,339;8,19
383,598;8,3
383,857;8,32
384,115;8,35
384,374;8,39
384,633;8,45
384,891;8,45
385,15;8,45
385,409;8,5
385,667;8,52
385,926;8,58
386,185;8,58
386,443;8,57
386,702;8,56
386,96;8,58
387,219;8,59
387,477;8,66
387,736;8,64
387,994;8,64
388,253;8,65
388,511;8,7
388,77;8,73
389,028;8,71
389,287;8,74
389,545;8,76
389,803;8,73
390,062;8,69
390,32;8,77
390,578;8,81
390,837;8,81
391,095;8,83
391,353;8,88
391,612;8,94
391,87;8,97
392,128;8,98
392,386;9,04
392,644;9,07
392,903;9,05
393,161;9,08
393,419;9,13
393,677;9,16
393,935;9,2
394,193;9,18
394,451;9,21
394,709;9,18
394,967;9,23
395,225;9,26
395,483;9,33
395,741;9,34
395,999;9,35
396,257;9,4
396,515;9,41
396,773;9,43
397,031;9,43
397,289;9,47
397,547;9,47
397,805;9,46
398,062;9,51
398,32;9,49
398,578;9,51
398,836;9,5
399,094;9,51
399,351;9,48
399,609;9,52
399,867;9,51
400,124;9,59
400,382;9,62
400,64;9,68
400,897;9,65
401,155;9,67
401,413;9,68
401,67;9,67
401,928;9,71
402,185;9,68
402,443;9,71
402,701;9,74
402,958;9,77
403,216;9,78
403,473;9,82
403,73;9,9
403,988;9,96
404,245;9,99
404,503;9,98
404,76;10,02
405,018;10
405,275;10,05
405,532;10,09
405,79;10,07
406,047;10,09
406,304;10,17
406,561;10,18
406,819;10,28
407,076;10,28
407,333;10,31
407,59;10,41
407,848;10,43
408,105;10,42
408,362;10,49
408,619;10,58
408,876;10,55
409,133;10,55
409,39;10,59
409,647;10,68
409,904;10,69
410,161;10,73
410,418;10,82
410,675;10,85
410,932;10,84
411,189;10,89
411,446;10,91
411,703;10,92
411,96;10,9
412,217;10,88
412,474;10,87
412,731;10,87
412,988;10,86
413,245;10,93
413,501;10,99
413,758;11,02
414,015;11
414,272;11,04
414,529;11,13
414,785;11,14
415,042;11,2
415,299;11,27
415,555;11,27
415,812;11,22
416,069;11,27
416,325;11,3
416,582;11,33
416,838;11,38
417,095;11,43
417,352;11,49
417,608;11,55
417,865;11,63
418,121;11,7
418,378;11,75
418,634;11,73
418,891;11,81
419,147;11,84
419,403;11,92
419,66;11,96
419,916;11,98
420,173;12
420,429;11,95
420,685;11,99
420,942;12,06
421,198;12,13
421,454;12,16
421,711;12,17
421,967;12,2
422,223;12,22
422,479;12,25
422,735;12,36
422,992;12,37
423,248;12,38
423,504;12,43
423,76;12,46
424,016;12,52
424,272;12,52
424,528;12,56
424,784;12,54
425,041;12,58
425,297;12,6
425,553;12,64
425,809;12,68
426,065;12,69
426,32;12,75
426,576;12,8
426,832;12,82
427,088;12,87
427,344;12,88
427,6;12,97
427,856;12,96
428,112;12,92
428,368;12,98
428,623;13,03
428,879;13,03
429,135;13,1
429,391;13,09
429,646;13,18
429,902;13,24
430,158;13,29
430,414;13,31
430,669;13,37
430,925;13,44
431,181;13,54
431,436;13,58
431,692;13,62
431,947;13,67
432,203;13,7
432,458;13,71
432,714;13,79
432,97;13,83
433,225;13,92
433,481;13,99
433,736;14,02
433,991;14,05
434,247;14,11
434,502;14,17
434,758;14,26
435,013;14,24
435,268;14,23
435,524;14,25
435,779;14,28
436,034;14,31
436,29;14,34
436,545;14,29
436,8;14,33
437,056;14,35
437,311;14,37
437,566;14,41
437,821;14,49
438,076;14,52
438,331;14,54
438,587;14,56
438,842;14,62
439,097;14,69
439,352;14,75
439,607;14,76
439,862;14,73
440,117;14,77
440,372;14,79
440,627;14,82
440,882;14,85
441,137;14,92
441,392;14,98
441,647;15
441,902;15,1
442,157;15,18
442,412;15,23
442,667;15,24
442,921;15,3
443,176;15,38
443,431;15,44
443,686;15,5
443,941;15,56
444,195;15,55
444,45;15,54
444,705;15,59
444,96;15,66
445,214;15,68
445,469;15,72
445,724;15,76
445,978;15,86
446,233;15,91
446,487;15,94
446,742;15,9
446,997;15,94
447,251;15,92
447,506;15,92
447,76;15,94
448,015;15,97
448,269;16,03
448,524;16,06
448,778;16,08
449,033;16,07
449,287;16,1
449,541;16,15
449,796;16,17
450,05;16,24
450,305;16,3
450,559;16,33
450,813;16,42
451,067;16,46
451,322;16,41
451,576;16,47
451,83;16,5
452,084;16,62
452,339;16,71
452,593;16,81
452,847;16,88
453,101;16,95
453,355;17,03
453,609;17,05
453,864;17,04
454,118;17,02
454,372;17,04
454,626;17,09
454,88;17,16
455,134;17,22
455,388;17,23
455,642;17,24
455,896;17,27
456,15;17,27
456,404;17,32
456,658;17,36
456,912;17,35
457,165;17,37
457,419;17,34
457,673;17,32
457,927;17,28
458,181;17,31
458,435;17,32
458,688;17,34
458,942;17,39
459,196;17,43
459,45;17,49
459,703;17,54
459,957;17,56
460,211;17,58
460,464;17,6
460,718;17,64
460,972;17,69
461,225;17,73
461,479;17,75
461,732;17,81
461,986;17,85
462,239;17,93
462,493;17,98
462,746;18,12
463;18,15
463,253;18,22
463,507;18,25
463,76;18,33
464,014;18,36
464,267;18,41
464,52;18,48
464,774;18,54
465,027;18,6
465,28;18,67
465,534;18,68
465,787;18,76
466,04;18,74
466,294;18,77
466,547;18,83
466,8;18,92
467,053;18,94
467,306;19,03
467,56;19,07
467,813;19,14
468,066;19,13
468,319;19,22
468,572;19,25
468,825;19,31
469,078;19,33
469,331;19,42
469,584;19,44
469,837;19,48
470,09;19,56
470,343;19,61
470,596;19,66
470,849;19,73
471,102;19,76
471,355;19,91
471,608;19,96
471,861;20,05
472,114;20,09
472,367;20,16
472,619;20,21
472,872;20,31
473,125;20,34
473,378;20,43
473,631;20,47
473,883;20,49
474,136;20,53
474,389;20,61
474,641;20,64
474,894;20,7
475,147;20,74
475,399;20,79
475,652;20,85
475,905;20,89
476,157;20,96
476,41;21,05
476,662;21,04
476,915;21,11
477,167;21,14
477,42;21,2
477,672;21,24
477,925;21,33
478,177;21,37
478,43;21,43
478,682;21,44
478,934;21,51
479,187;21,61
479,439;21,64
479,691;21,71
479,944;21,78
480,196;21,83
480,448;21,89
480,701;21,94
480,953;21,97
481,205;22,04
481,457;22,08
481,709;22,12
481,962;22,21
482,214;22,31
482,466;22,42
482,718;22,56
482,97;22,71
483,222;22,79
483,474;22,91
483,726;23,05
483,978;23,14
484,23;23,21
484,482;23,29
484,734;23,33
484,986;23,36
485,238;23,41
485,49;23,45
485,742;23,5
485,994;23,52
486,246;23,55
486,498;23,54
486,75;23,59
487,001;23,62
487,253;23,63
487,505;23,62
487,757;23,64
488,009;23,59
488,26;23,57
488,512;23,57
488,764;23,55
489,015;23,51
489,267;23,5
489,519;23,5
489,77;23,46
490,022;23,5
490,274;23,53
490,525;23,54
490,777;23,56
491,028;23,57
491,28;23,61
491,531;23,64
491,783;23,68
492,034;23,73
492,286;23,76
492,537;23,82
492,789;23,85
493,04;23,87
493,291;23,92
493,543;23,95
493,794;23,96
494,045;24
494,297;24,03
494,548;24,07
494,799;24,09
495,051;24,14
495,302;24,18
495,553;24,2
495,804;24,24
496,056;24,27
496,307;24,29
496,558;24,33
496,809;24,39
497,06;24,42
497,311;24,42
497,562;24,48
497,813;24,5
498,064;24,55
498,316;24,59
498,567;24,62
498,818;24,62
499,069;24,66
499,319;24,67
499,57;24,71
499,821;24,74
500,072;24,77
500,323;24,8
500,574;24,82
500,825;24,85
501,076;24,9
501,327;24,92
501,577;24,98
501,828;24,98
502,079;25,02
502,33;25,06
502,58;25,11
502,831;25,12
503,082;25,14
503,333;25,16
503,583;25,18
503,834;25,23
504,084;25,28
504,335;25,33
504,586;25,37
504,836;25,42
505,087;25,44
505,337;25,51
505,588;25,54
505,838;25,6
506,089;25,65
506,339;25,68
506,59;25,75
506,84;25,76
507,091;25,85
507,341;25,86
507,591;25,91
507,842;25,93
508,092;25,96
508,343;26,01
508,593;26,03
508,843;26,05
509,093;26,08
509,344;26,1
509,594;26,14
509,844;26,15
510,094;26,16
510,345;26,2
510,595;26,22
510,845;26,25
511,095;26,29
511,345;26,31
511,595;26,34
511,845;26,33
512,095;26,4
512,345;26,42
512,595;26,48
512,845;26,5
513,095;26,56
513,345;26,6
513,595;26,65
513,845;26,69
514,095;26,75
514,345;26,79
514,595;26,83
514,845;26,85
515,095;26,88
515,345;26,92
515,594;26,97
515,844;27,02
516,094;27,1
516,344;27,1
516,593;27,12
516,843;27,14
517,093;27,21
517,343;27,21
517,592;27,25
517,842;27,3
518,092;27,35
518,341;27,37
518,591;27,42
518,84;27,44
519,09;27,5
519,34;27,53
519,589;27,56
519,839;27,59
520,088;27,64
520,338;27,7
520,587;27,74
520,836;27,76
521,086;27,79
521,335;27,82
521,585;27,87
521,834;27,93
522,083;27,99
522,333;28,03
522,582;28,12
522,831;28,18
523,081;28,18
523,33;28,21
523,579;28,26
523,828;28,32
524,078;28,36
524,327;28,41
524,576;28,48
524,825;28,52
525,074;28,59
525,323;28,64
525,573;28,7
525,822;28,76
526,071;28,82
526,32;28,85
526,569;28,88
526,818;28,94
527,067;28,97
527,316;28,99
527,565;29,06
527,814;29,08
528,063;29,11
528,312;29,16
528,56;29,23
528,809;29,28
529,058;29,32
529,307;29,37
529,556;29,4
529,805;29,43
530,053;29,48
530,302;29,52
530,551;29,57
530,8;29,61
531,048;29,67
531,297;29,71
531,546;29,78
531,794;29,85
532,043;29,87
532,292;29,94
532,54;29,97
532,789;30,01
533,037;30,07
533,286;30,1
533,535;30,17
533,783;30,19
534,032;30,23
534,28;30,27
534,528;30,3
534,777;30,35
535,025;30,38
535,274;30,41
535,522;30,48
535,771;30,47
536,019;30,52
536,267;30,55
536,516;30,58
536,764;30,63
537,012;30,65
537,26;30,72
537,509;30,76
537,757;30,82
538,005;30,84
538,253;30,86
538,501;30,91
538,75;30,91
538,998;30,96
539,246;31
539,494;31,02
539,742;31,06
539,99;31,09
540,238;31,13
540,486;31,21
540,734;31,16
540,982;31,21
541,23;31,23
541,478;31,26
541,726;31,3
541,974;31,31
542,222;31,34
542,47;31,35
542,718;31,37
542,966;31,39
543,213;31,4
543,461;31,42
543,709;31,46
543,957;31,49
544,205;31,51
544,452;31,55
544,7;31,57
544,948;31,61
545,196;31,63
545,443;31,66
545,691;31,68
545,939;31,75
546,186;31,79
546,434;31,81
546,681;31,82
546,929;31,82
547,176;31,82
547,424;31,83
547,671;31,85
547,919;31,9
548,166;31,94
548,414;31,99
548,661;32,03
548,909;32,05
549,156;32,08
549,404;32,12
549,651;32,14
549,898;32,18
550,146;32,2
550,393;32,25
550,64;32,27
550,888;32,28
551,135;32,3
551,382;32,33
551,629;32,36
551,876;32,39
552,124;32,44
552,371;32,5
552,618;32,54
552,865;32,58
553,112;32,59
553,359;32,61
553,606;32,64
553,854;32,66
554,101;32,67
554,348;32,7
554,595;32,72
554,842;32,74
555,089;32,74
555,336;32,76
555,582;32,78
555,829;32,81
556,076;32,83
556,323;32,85
556,57;32,85
556,817;32,88
557,064;32,89
557,311;32,9
557,557;32,89
557,804;32,91
558,051;32,91
558,298;32,92
558,544;32,94
558,791;32,94
559,038;32,93
559,284;32,94
559,531;32,95
559,778;32,95
560,024;32,96
560,271;32,99
560,517;33,02
560,764;33,05
561,011;33,02
561,257;33,04
561,504;33,05
561,75;33,06
561,997;33,05
562,243;33,05
562,489;33,04
562,736;33,05
562,982;33,06
563,229;33,09
563,475;33,07
563,721;33,07
563,968;33,09
564,214;33,11
564,46;33,14
564,707;33,2
564,953;33,2
565,199;33,2
565,445;33,22
565,691;33,22
565,938;33,21
566,184;33,24
566,43;33,25
566,676;33,27
566,922;33,3
567,168;33,31
567,414;33,36
567,66;33,37
567,906;33,39
568,152;33,4
568,398;33,39
568,644;33,42
568,89;33,43
569,136;33,43
569,382;33,42
569,628;33,39
569,874;33,36
570,12;33,37
570,366;33,35
570,612;33,36
570,857;33,34
571,103;33,33
571,349;33,32
571,595;33,3
571,84;33,29
572,086;33,29
572,332;33,3
572,578;33,28
572,823;33,27
573,069;33,22
573,315;33,21
573,56;33,19
573,806;33,17
574,051;33,14
574,297;33,14
574,542;33,14
574,788;33,12
575,034;33,1
575,279;33,09
575,524;33,09
575,77;33,06
576,015;33,05
576,261;33,02
576,506;33,02
576,752;33,01
576,997;33
577,242;32,98
577,488;32,96
577,733;32,94
577,978;32,95
578,223;32,96
578,469;32,96
578,714;32,96
578,959;32,94
579,204;32,95
579,45;32,92
579,695;32,9
579,94;32,91
580,185;32,89
580,43;32,88
580,675;32,87
580,92;32,86
581,165;32,85
581,41;32,85
581,655;32,83
581,9;32,81
582,145;32,81
582,39;32,81
582,635;32,8
582,88;32,78
583,125;32,77
583,37;32,78
583,615;32,75
583,86;32,73
584,105;32,71
584,349;32,72
584,594;32,7
584,839;32,71
585,084;32,69
585,328;32,69
585,573;32,68
585,818;32,67
586,063;32,64
586,307;32,63
586,552;32,59
586,797;32,61
587,041;32,59
587,286;32,56
587,53;32,53
587,775;32,53
588,019;32,52
588,264;32,5
588,508;32,49
588,753;32,5
588,997;32,5
589,242;32,49
589,486;32,45
589,731;32,46
589,975;32,44
590,22;32,43
590,464;32,42
590,708;32,42
590,953;32,41
591,197;32,41
591,441;32,4
591,685;32,4
591,93;32,36
592,174;32,35
592,418;32,33
592,662;32,32
592,907;32,29
593,151;32,28
593,395;32,23
593,639;32,2
593,883;32,17
594,127;32,15
594,371;32,13
594,615;32,11
594,859;32,1
595,103;32,09
595,347;32,05
595,591;32,04
595,835;32
596,079;31,98
596,323;31,97
596,567;31,96
596,811;31,95
597,055;31,92
597,299;31,91
597,542;31,89
597,786;31,87
598,03;31,86
598,274;31,83
598,518;31,85
598,761;31,84
599,005;31,81
599,249;31,81
599,492;31,79
599,736;31,77
599,98;31,75
600,223;31,73
600,467;31,74
600,711;31,7
600,954;31,69
601,198;31,69
601,441;31,66
601,685;31,61
601,928;31,59
602,172;31,59
602,415;31,59
602,659;31,58
602,902;31,56
603,145;31,52
603,389;31,51
603,632;31,5
603,876;31,49
604,119;31,49
604,362;31,46
604,606;31,44
604,849;31,46
605,092;31,42
605,335;31,41
605,579;31,34
605,822;31,33
606,065;31,29
606,308;31,29
606,551;31,3
606,794;31,3
607,037;31,28
607,281;31,24
607,524;31,23
607,767;31,2
608,01;31,21
608,253;31,21
608,496;31,18
608,739;31,15
608,982;31,12
609,225;31,08
609,468;31,06
609,711;31,05
609,953;31
610,196;31,01
610,439;30,97
610,682;30,99
610,925;30,98
611,168;31,01
611,41;30,99
611,653;30,94
611,896;30,89
612,139;30,87
612,381;30,85
612,624;30,86
612,867;30,86
613,109;30,8
613,352;30,79
613,595;30,79
613,837;30,78
614,08;30,77
614,322;30,77
614,565;30,78
614,807;30,77
615,05;30,73
615,292;30,72
615,535;30,7
615,777;30,69
616,02;30,68
616,262;30,64
616,505;30,61
616,747;30,62
616,989;30,64
617,232;30,64
617,474;30,64
617,716;30,6
617,959;30,57
618,201;30,58
618,443;30,57
618,685;30,54
618,927;30,53
619,17;30,53
619,412;30,52
619,654;30,48
619,896;30,49
620,138;30,51
620,38;30,48
620,622;30,49
620,864;30,47
621,107;30,47
621,349;30,46
621,591;30,45
621,833;30,44
622,075;30,43
622,316;30,46
622,558;30,46
622,8;30,47
623,042;30,46
623,284;30,46
623,526;30,42
623,768;30,41
624,01;30,4
624,251;30,39
624,493;30,35
624,735;30,35
624,977;30,33
625,218;30,31
625,46;30,3
625,702;30,29
625,943;30,27
626,185;30,25
626,427;30,23
626,668;30,23
626,91;30,23
627,152;30,21
627,393;30,16
627,635;30,13
627,876;30,11
628,118;30,1
628,359;30,1
628,601;30,11
628,842;30,12
629,084;30,1
629,325;30,05
629,566;30,06
629,808;30,06
630,049;30,02
630,29;30,02
630,532;30,02
630,773;30
631,014;29,98
631,256;29,96
631,497;29,98
631,738;29,93
631,979;29,9
632,22;29,88
632,462;29,86
632,703;29,84
632,944;29,83
633,185;29,8
633,426;29,8
633,667;29,79
633,908;29,76
634,149;29,74
634,39;29,76
634,631;29,75
634,872;29,72
635,113;29,72
635,354;29,71
635,595;29,68
635,836;29,66
636,077;29,65
636,318;29,62
636,559;29,59
636,8;29,6
637,04;29,59
637,281;29,57
637,522;29,55
637,763;29,56
638,003;29,54
638,244;29,52
638,485;29,49
638,726;29,46
638,966;29,44
639,207;29,45
639,448;29,42
639,688;29,38
639,929;29,37
640,169;29,38
640,41;29,34
640,65;29,37
640,891;29,35
641,131;29,36
641,372;29,36
641,612;29,35
641,853;29,33
642,093;29,3
642,334;29,34
642,574;29,32
642,814;29,31
643,055;29,3
643,295;29,29
643,535;29,3
643,776;29,3
644,016;29,3
644,256;29,3
644,496;29,31
644,737;29,32
644,977;29,32
645,217;29,29
645,457;29,3
645,697;29,26
645,938;29,26
646,178;29,25
646,418;29,26
646,658;29,26
646,898;29,27
647,138;29,27
647,378;29,24
647,618;29,25
647,858;29,25
648,098;29,25
648,338;29,25
648,578;29,22
648,818;29,21
649,057;29,19
649,297;29,19
649,537;29,18
649,777;29,18
650,017;29,17
650,257;29,17
650,496;29,17
650,736;29,18
650,976;29,18
661,028;28,8
661,267;28,81
661,506;28,8
661,744;28,84
661,983;28,87
662,222;28,86
662,461;28,86
662,7;28,84
662,939;28,84
663,177;28,81
663,416;28,81
663,655;28,79
663,894;28,76
664,132;28,77
664,371;28,73
664,61;28,72
664,848;28,72
665,087;28,69
665,326;28,7
665,564;28,7
665,803;28,66
666,041;28,64
666,28;28,65
666,518;28,66
666,757;28,61
666,995;28,6
667,234;28,6
667,472;28,59
667,711;28,58
667,949;28,6
668,187;28,61
668,426;28,62
668,664;28,61
668,902;28,59
669,141;28,58
669,379;28,6
669,617;28,58
669,856;28,57
670,094;28,57
670,332;28,54
670,57;28,52
670,808;28,51
671,046;28,54
671,285;28,52
671,523;28,51
671,761;28,53
671,999;28,5
672,237;28,51
672,475;28,51
672,713;28,48
672,951;28,46
673,189;28,44
673,427;28,4
673,665;28,4
673,903;28,39
674,141;28,4
674,379;28,39
674,617;28,42
674,854;28,41
675,092;28,42
675,33;28,42
675,568;28,45
675,806;28,49
676,043;28,46
676,281;28,44
676,519;28,44
676,756;28,43
676,994;28,41
677,232;28,4
677,469;28,4
677,707;28,42
677,945;28,4
678,182;28,42
678,42;28,45
678,657;28,45
678,895;28,46
679,132;28,43
679,37;28,42
679,607;28,39
679,845;28,38
680,082;28,37
680,32;28,36
680,557;28,35
680,794;28,33
681,032;28,34
681,269;28,33
681,507;28,34
681,744;28,3
681,981;28,36
682,218;28,33
682,456;28,32
682,693;28,29
682,93;28,3
683,167;28,25
683,404;28,23
683,642;28,22
683,879;28,18
684,116;28,18
684,353;28,17
684,59;28,15
684,827;28,14
685,064;28,11
685,301;28,08
685,538;28,07
685,775;28,05
686,012;28,01
686,249;27,99
686,486;27,98
686,723;28
686,96;27,98
687,197;27,98
687,433;27,96
687,67;28
687,907;27,96
688,144;27,98
688,381;28
688,617;28
688,854;28,01
689,091;27,99
689,327;28,02
689,564;28,01
689,801;27,98
690,037;27,98
690,274;27,97
690,511;27,96
690,747;27,96
690,984;27,98
691,22;27,98
691,457;27,97
691,693;27,96
691,93;27,92
692,166;27,89
692,403;27,9
692,639;27,86
692,876;27,86
693,112;27,85
693,348;27,8
693,585;27,77
693,821;27,77
694,057;27,76
694,294;27,74
694,53;27,76
694,766;27,76
695,002;27,78
695,239;27,81
695,475;27,8
695,711;27,78
695,947;27,77
696,183;27,77
696,419;27,76
696,656;27,75
696,892;27,75
697,128;27,74
697,364;27,74
697,6;27,71
697,836;27,7
698,072;27,71
698,308;27,72
698,544;27,71
698,78;27,7
699,016;27,66
699,251;27,63
699,487;27,63
699,723;27,63
699,959;27,62
700,195;27,59
700,431;27,59
700,666;27,56
700,902;27,58
701,138;27,56
701,374;27,55
701,609;27,55
701,845;27,56
702,081;27,57
702,316;27,56
702,552;27,58
702,788;27,56
703,023;27,51
703,259;27,48
703,494;27,47
703,73;27,49
703,965;27,51
704,201;27,51
704,436;27,49
704,672;27,47
704,907;27,47
705,143;27,5
705,378;27,47
705,613;27,47
705,849;27,44
706,084;27,42
706,319;27,4
706,555;27,4
706,79;27,41
707,025;27,39
707,26;27,39
707,496;27,37
707,731;27,39
707,966;27,43
708,201;27,44
708,436;27,46
708,671;27,43
708,907;27,4
709,142;27,39
709,377;27,38
709,612;27,39
709,847;27,35
710,082;27,34
710,317;27,31
710,552;27,34
710,787;27,34
711,022;27,37
711,257;27,38
711,492;27,39
711,726;27,37
711,961;27,37
712,196;27,36
712,431;27,34
712,666;27,34
712,901;27,31
713,135;27,29
713,37;27,27
713,605;27,26
713,839;27,28
714,074;27,26
714,309;27,22
714,543;27,22
714,778;27,23
715,013;27,22
715,247;27,24
715,482;27,19
715,716;27,16
715,951;27,16
716,185;27,13
716,42;27,1
716,654;27,09
716,889;27,09
717,123;27,05
717,358;27,05
717,592;27,04
717,827;27,04
718,061;27,06
718,295;27,05
718,53;27,04
718,764;27
718,998;27,03
719,232;27,04
719,467;27,01
719,701;26,95
719,935;26,96
720,169;26,95
720,403;26,95
720,638;26,96
720,872;26,9
721,106;26,89
721,34;26,89
721,574;26,89
721,808;26,87
722,042;26,86
722,276;26,86
722,51;26,84
722,744;26,81
722,978;26,78
723,212;26,77
723,446;26,79
723,68;26,81
723,914;26,79
724,147;26,8
724,381;26,81
724,615;26,87
724,849;26,83
725,083;26,83
725,316;26,81
725,55;26,81
725,784;26,85
726,018;26,86
726,251;26,87
726,485;26,87
726,719;26,9
726,952;26,91
727,186;26,93
727,419;26,96
727,653;26,99
727,887;27,03
728,12;27,03
728,354;27,01
728,587;27,02
728,821;27
729,054;26,99
729,287;27,01
729,521;27
729,754;27,01
729,988;27
730,221;27,08
730,454;27,07
730,688;27,06
730,921;27,05
731,154;27,02
731,387;27,03
731,621;27,03
731,854;27,02
732,087;27
732,32;27
732,553;26,98
732,787;26,95
733,02;26,97
733,253;26,98
733,486;26,97
733,719;27
733,952;26,98
734,185;26,96
734,418;26,93
734,651;26,93
734,884;26,95
735,117;26,89
735,35;26,85
735,583;26,87
735,816;26,87
736,049;26,89
736,281;26,89
736,514;26,91
736,747;26,92
736,98;26,92
737,213;26,89
737,445;26,88
737,678;26,86
737,911;26,86
738,144;26,83
738,376;26,82
738,609;26,82
738,842;26,81
739,074;26,83
739,307;26,87
739,539;26,86
739,772;26,83
740,004;26,84
740,237;26,88
740,469;26,85
740,702;26,84
740,934;26,82
741,167;26,78
741,399;26,75
741,632;26,75
741,864;26,73
742,096;26,75
742,329;26,77
742,561;26,76
742,793;26,75
743,026;26,75
743,258;26,76
743,49;26,74
743,723;26,74
743,955;26,67
744,187;26,65
744,419;26,65
744,651;26,64
744,883;26,68
745,115;26,68
745,348;26,7
745,58;26,68
745,812;26,66
746,044;26,67
746,276;26,65
746,508;26,64
746,74;26,67
746,972;26,65
747,204;26,62
747,436;26,63
747,667;26,63
747,899;26,66
748,131;26,65
748,363;26,65
748,595;26,69
748,827;26,71
749,058;26,7
749,29;26,69
749,522;26,66
749,754;26,59
749,985;26,56
750,217;26,55
750,449;26,56
750,68;26,57
750,912;26,58
751,144;26,61
751,375;26,64
751,607;26,62
751,838;26,66
752,07;26,69
752,301;26,68
752,533;26,66
752,764;26,64
752,996;26,61
753,227;26,65
753,459;26,63
753,69;26,64
753,921;26,62
754,153;26,65
754,384;26,72
754,615;26,74
754,847;26,77
755,078;26,81
755,309;26,87
755,54;26,85
755,772;26,83
756,003;26,78
756,234;26,76
756,465;26,78
756,696;26,74
756,927;26,75
757,159;26,76
757,39;26,78
757,621;26,8
757,852;26,87
758,083;26,84
758,314;26,85
758,545;26,87
758,776;26,93
759,007;26,93
759,238;26,93
759,469;26,96
759,699;26,95
759,93;26,93
760,161;26,86
760,392;26,91
760,623;26,89
760,854;26,92
761,084;26,93
761,315;26,94
761,546;26,92
761,776;26,89
762,007;26,91
762,238;26,89
762,468;26,89
762,699;26,88
762,93;26,9
763,16;26,87
763,391;26,87
763,621;26,84
763,852;26,85
764,083;26,81
764,313;26,78
764,543;26,79
764,774;26,77
765,004;26,81
765,235;26,8
765,465;26,84
765,696;26,84
765,926;26,83
766,156;26,81
766,387;26,83
766,617;26,88
766,847;26,89
767,077;26,87
767,308;26,86
767,538;26,86
767,768;26,81
767,998;26,83
768,228;26,81
768,459;26,78
768,689;26,8
768,919;26,85
769,149;26,85
769,379;26,85
769,609;26,88
769,839;26,88
770,069;26,9
770,299;26,89
770,529;26,91
770,759;26,94
770,989;26,94
771,219;26,95
771,449;26,91
771,678;26,91
771,908;26,96
772,138;26,97
772,368;26,95
772,598;27
772,827;27
773,057;27
773,287;27,07
773,517;27,05
773,746;27,03
773,976;27,06
774,206;27,05
774,435;27,05
774,665;27,05
774,894;27
775,124;27
775,354;26,96
775,583;26,94
775,813;26,92
776,042;26,96
776,272;26,95
776,501;26,93
776,73;26,93
776,96;26,99
777,189;26,99
777,419;27,01
777,648;27,02
777,877;27,03
778,107;26,98
778,336;26,98
778,565;26,98
778,794;26,99
779,024;27,01
779,253;27,01
779,482;27,02
779,711;27,08
779,94;27,12
780,17;27,15
780,399;27,16
780,628;27,22
780,857;27,2
781,086;27,25
781,315;27,29
781,544;27,32
781,773;27,3
782,002;27,34
782,231;27,33
782,46;27,34
782,689;27,37
782,918;27,41
783,147;27,43
783,375;27,43
783,604;27,41
783,833;27,41
784,062;27,39
784,291;27,42
784,519;27,38
784,748;27,33
784,977;27,31
785,206;27,37
785,434;27,32
785,663;27,36
785,892;27,36
786,12;27,33
786,349;27,33
786,577;27,32
786,806;27,3
787,034;27,29
787,263;27,29
787,492;27,3
787,72;27,33
787,948;27,33
788,177;27,35
788,405;27,37
788,634;27,39
788,862;27,43
789,09;27,38
789,319;27,37
789,547;27,39
789,775;27,41
790,004;27,38
790,232;27,4
790,46;27,37
790,688;27,33
790,917;27,31
791,145;27,28
791,373;27,3
791,601;27,35
791,829;27,36
792,057;27,36
792,286;27,35
792,514;27,34
792,742;27,36
792,97;27,39
793,198;27,34
793,426;27,36
793,654;27,37
793,882;27,39
794,109;27,4
794,337;27,44
794,565;27,45
794,793;27,44
795,021;27,45
795,249;27,47
795,477;27,47
795,704;27,55
795,932;27,56
796,16;27,55
796,388;27,5
796,615;27,53
796,843;27,53
797,071;27,55
797,298;27,55
797,526;27,54
797,754;27,53
797,981;27,54
798,209;27,52
798,436;27,52
798,664;27,53
798,891;27,57
799,119;27,54
799,346;27,56
799,574;27,6
799,801;27,64
800,029;27,62
800,256;27,68
800,483;27,65
800,711;27,69
800,938;27,65
801,165;27,7
801,393;27,7
801,62;27,71
801,847;27,75
802,074;27,72
802,302;27,74
802,529;27,75
802,756;27,82
802,983;27,85
803,21;27,87
803,437;27,87
803,665;27,91
803,892;27,93
804,119;27,91
804,346;27,9
804,573;27,88
804,8;27,89
805,027;27,87
805,254;27,86
805,481;27,89
805,708;27,93
805,934;27,93
806,161;27,94
806,388;27,94
806,615;27,91
806,842;27,92
807,069;27,91
807,295;27,92
807,522;27,92
807,749;27,91
807,976;27,88
808,202;27,89
808,429;27,86
808,656;27,85
808,882;27,88
809,109;27,84
809,335;27,87
809,562;27,91
809,789;27,86
810,015;27,9
810,242;27,9
810,468;27,89
810,695;27,85
810,921;27,86
811,147;27,85
811,374;27,88
811,6;27,91
811,827;27,94
812,053;27,95
812,279;27,95
812,506;27,96
812,732;28
812,958;28,01
813,185;27,99
813,411;27,97
813,637;27,97
813,863;28,01
814,089;28,02
814,315;27,99
814,542;28,02
814,768;28,01
814,994;27,97
815,22;27,95
815,446;28,02
815,672;28,01
815,898;28,03
816,124;27,99
816,35;27,98
816,576;27,95
816,802;27,93
817,028;27,9
817,254;27,93
817,48;27,89
817,705;27,92
817,931;27,97
818,157;28,06
818,383;28,05
818,609;28,06
818,834;28,03
819,06;28,06
819,286;28,12
819,512;28,19
819,737;28,19
819,963;28,22
820,189;28,18
820,414;28,2
820,64;28,18
820,865;28,24
821,091;28,25
821,316;28,25
821,542;28,26
821,767;28,27
821,993;28,26
822,218;28,3
822,444;28,25
822,669;28,2
822,895;28,18
823,12;28,24
823,345;28,23
823,571;28,15
823,796;28,17
824,021;28,1
824,247;28,15
824,472;28,12
824,697;28,11
824,922;28,11
825,147;28,1
825,373;28,1
825,598;28,06
825,823;28,06
826,048;28,07
826,273;28,05
826,498;28,09
826,723;28,09
826,948;28,1
827,173;28,11
827,398;28,14
827,623;28,1
827,848;28,08
828,073;28,09
828,298;28,13
828,523;28,11
828,748;28,14
828,973;28,04
829,197;28,06
829,422;28,05
829,647;28,07
829,872;28,07
830,097;28,09
830,321;28,14
830,546;28,1
830,771;28,07
830,995;28,07
831,22;28,1
831,445;28,06
831,669;28,01
831,894;27,99
832,118;28
832,343;28,01
832,567;28
832,792;28,02
833,016;28,03
833,241;28,04
833,465;28,01
833,69;27,99
833,914;28,03
834,139;28,03
834,363;28
834,587;28,03
834,812;28,01
835,036;27,98
835,26;28,01
835,485;28,07
835,709;28,11
835,933;28,08
836,157;28,09
836,381;28,17
836,606;28,19
836,83;28,2
837,054;28,18
837,278;28,17
837,502;28,11
837,726;28,1
837,95;28,04
838,174;28,05
838,398;28,04
838,622;28,01
838,846;27,99
839,07;28
839,294;27,96
839,518;27,98
839,742;27,95
839,966;27,96
840,189;27,9
840,413;27,87
840,637;27,86
840,861;27,86
841,085;27,76
841,308;27,72
841,532;27,67
841,756;27,7
841,979;27,67
842,203;27,71
842,427;27,71
842,65;27,79
842,874;27,78
843,098;27,76
843,321;27,78
843,545;27,8
843,768;27,73
843,992;27,71
844,215;27,72
844,439;27,73
844,662;27,67
844,886;27,66
845,109;27,68
845,332;27,63
845,556;27,62
845,779;27,65
846,002;27,68
846,226;27,69
846,449;27,61
846,672;27,59
846,895;27,57
847,119;27,54
847,342;27,5
847,565;27,55
847,788;27,57
848,011;27,56
848,234;27,57
848,457;27,66
848,681;27,64
848,904;27,57
849,127;27,56
849,35;27,66
849,573;27,74
849,796;27,75
850,019;27,73
850,241;27,73
850,464;27,73
850,687;27,82
850,91;27,87
851,133;27,97
851,356;27,98
851,579;28,02
851,801;28,03
852,024;28,04
852,247;27,99
852,47;28,01
852,692;27,96
852,915;27,99
853,138;27,96
853,36;28,01
853,583;28,02
853,806;28,01
854,028;27,85
854,251;27,74
854,473;27,69
854,696;27,75
854,918;27,76
855,141;27,76
855,363;27,66
855,586;27,6
855,808;27,6
856,031;27,58
856,253;27,54
856,475;27,54
856,698;27,44
856,92;27,47
857,142;27,44
857,365;27,5
857,587;27,43
857,809;27,45
858,031;27,51
858,253;27,45
858,476;27,52
858,698;27,59
858,92;27,62
859,142;27,72
859,364;27,67
859,586;27,69
859,808;27,71
860,03;27,73
860,252;27,69
860,474;27,65
860,696;27,73
860,918;27,74
861,14;27,8
861,362;27,89
861,584;27,84
861,806;27,88
862,028;27,88
862,25;27,87
862,471;27,84
862,693;27,74
862,915;27,84
863,137;27,74
863,358;27,79
863,58;27,85
863,802;27,82
864,024;27,83
864,245;27,81
864,467;27,81
864,688;27,8
864,91;27,85
865,132;27,82
865,353;27,75
865,575;27,73
865,796;27,67
866,018;27,67
866,239;27,74
866,461;27,68
866,682;27,67
866,903;27,69
867,125;27,69
867,346;27,66
867,567;27,61
867,789;27,66
868,01;27,69
868,231;27,62
868,453;27,53
868,674;27,52
868,895;27,55
869,116;27,5
869,337;27,56
869,559;27,55
869,78;27,57
870,001;27,59
870,222;27,62
870,443;27,58
870,664;27,5
870,885;27,47
871,106;27,41
871,327;27,42
871,548;27,37
871,769;27,39
871,99;27,5
872,211;27,48
872,432;27,43
872,653;27,41
872,874;27,46
873,094;27,53
873,315;27,61
873,536;27,57
873,757;27,57
873,978;27,55
874,198;27,5
874,419;27,48
874,64;27,45
874,86;27,41
875,081;27,45
875,302;27,57
875,522;27,68
875,743;27,77
875,963;27,78
876,184;27,84
876,404;27,82
876,625;27,74
876,845;27,83
877,066;27,88
877,286;27,91
877,507;27,93
877,727;27,85
877,947;27,78
878,168;27,8
878,388;27,82
878,609;27,82
878,829;27,9
879,049;27,99
879,269;27,98
879,49;27,95
879,71;27,95
879,93;27,86
880,15;27,83
880,37;27,82
880,59;27,77
880,811;27,78
881,031;27,78
881,251;27,81
881,471;27,76
881,691;27,74
881,911;27,79
882,131;27,74
882,351;27,74
882,571;27,72
882,791;27,73
883,011;27,72
883,23;27,72
883,45;27,74
883,67;27,71
883,89;27,67
884,11;27,79
884,33;27,77
884,549;27,77
884,769;27,65
884,989;27,68
885,209;27,72
885,428;27,7
885,648;27,61
885,868;27,56
886,087;27,57
886,307;27,54
886,526;27,4
886,746;27,4
886,965;27,45
887,185;27,51
887,404;27,49
887,624;27,56
887,843;27,51
888,063;27,53
888,282;27,54
888,502;27,58
888,721;27,62
888,94;27,62
889,16;27,62
889,379;27,67
889,598;27,69
889,818;27,68
890,037;27,64
890,256;27,71
890,475;27,77
890,694;27,75
890,914;27,77
891,133;27,77
891,352;27,72
891,571;27,69
891,79;27,57
892,009;27,55
892,228;27,55
892,447;27,59
892,666;27,57
892,885;27,58
893,104;27,59
893,323;27,64
893,542;27,66
893,761;27,69
893,98;27,73
894,199;27,64
894,417;27,61
894,636;27,67
894,855;27,71
895,074;27,68
895,293;27,72
895,511;27,69
895,73;27,72
895,949;27,75
896,167;27,78
896,386;27,88
896,605;27,9
896,823;27,82
897,042;27,84
897,26;27,85
897,479;27,87
897,697;27,87
897,916;27,79
898,134;27,78
898,353;27,78
898,571;27,71
898,79;27,82
899,008;27,92
899,227;27,88
899,445;27,94
899,663;27,92
899,882;27,96
900,1;28,1
900,318;28,14
900,536;28,34
900,755;28,42
900,973;28,39
901,191;28,4
901,409;28,44
901,627;28,36
901,846;28,38
902,064;28,35
902,282;28,34
902,5;28,28
902,718;28,23
902,936;28,25
903,154;28,26
903,372;28,24
903,59;28,2
903,808;28,29
904,026;28,31
904,244;28,35
904,462;28,28
904,679;28,2
904,897;28,26
905,115;28,07
905,333;27,98
905,551;27,97
905,768;28,04
905,986;27,94
906,204;28,02
906,422;27,98
906,639;27,96
906,857;28
907,074;27,97
907,292;27,96
907,51;27,93
907,727;27,95
907,945;28
908,162;27,97
908,38;27,92
908,597;27,78
908,815;27,88
909,032;27,96
909,25;27,92
909,467;27,92
909,684;27,89
909,902;27,91
910,119;27,98
910,337;28,05
910,554;28,19
910,771;28,17
910,988;28,19
911,206;28,16
911,423;28,31
911,64;28,39
911,857;28,52
912,074;28,52
912,291;28,42
912,509;28,34
912,726;28,45
912,943;28,47
913,16;28,56
913,377;28,5
913,594;28,32
913,811;28,39
914,028;28,26
914,245;28,31
914,462;28,3
914,679;28,23
914,896;28,17
915,112;28,19
915,329;28,25
915,546;28,21
915,763;28,31
915,98;28,05
916,196;28
916,413;28,05
916,63;28,12
916,847;28,26
917,063;28,23
917,28;28,16
917,497;28,12
917,713;28,01
917,93;28,01
918,146;28,05
918,363;28,11
918,579;28,22
918,796;28,23
919,012;28,35
919,229;28,35
919,445;28,33
919,662;28,35
919,878;28,28
920,095;28,48
920,311;28,53
920,527;28,7
920,744;28,8
920,96;28,72
921,176;28,59
921,392;28,47
921,609;28,68
921,825;28,55
922,041;28,6
922,257;28,68
922,473;28,69
922,69;28,8
922,906;28,68
923,122;28,71
923,338;28,73
923,554;28,61
923,77;28,59
923,986;28,66
924,202;28,73
924,418;28,72
924,634;28,54
924,85;28,5
925,066;28,47
925,282;28,43
925,497;28,39
925,713;28,53
925,929;28,79
926,145;28,6
926,361;28,78
926,576;28,73
926,792;28,67
927,008;28,68
927,224;28,66
927,439;28,75
927,655;28,7
927,871;28,64
928,086;28,78
928,302;28,84
928,517;28,78
928,733;28,64
928,948;28,65
929,164;28,51
929,379;28,44
929,595;28,42
929,81;28,57
930,026;28,63
930,241;28,57
930,456;28,35
930,672;28,42
930,887;28,37
931,102;28,33
931,318;28,48
931,533;28,5
931,748;28,52
931,964;28,38
932,179;28,31
932,394;28,45
932,609;28,43
932,824;28,42
933,039;28,36
933,255;28,38
933,47;28,42
933,685;28,58
933,9;28,65
934,115;28,77
934,33;28,61
934,545;28,72
934,76;28,89
934,975;29,14
935,19;29,27
935,404;29,3
935,619;29,5
935,834;29,63
936,049;29,71
936,264;29,81
936,479;29,95
936,693;30,13
936,908;30,3
937,123;30,32
937,338;30,56
937,552;30,7
937,767;30,86
937,982;31,15
938,196;31,21
938,411;31,44
938,625;31,49
938,84;31,91
939,055;32,11
939,269;32,07
939,484;32,29
939,698;32,52
939,912;32,77
940,127;32,95
940,341;32,76
940,556;32,81
940,77;32,98
940,984;33,31
941,199;33,78
941,413;33,65
941,627;33,8
941,842;33,76
942,056;34,26
942,27;34,86
942,484;34,74
942,699;35,08
942,913;35,47
943,127;35,56
943,341;35,15
943,555;35,11
943,769;35,05
943,983;34,78
944,197;34,57
944,411;34,19
944,625;34,18
944,839;34,76
945,053;35,03
945,267;34,88
945,481;34,91
945,695;34,6
945,909;34,47
946,123;34,87
946,336;35,05
946,55;35,01
946,764;35,02
946,978;35,33
947,192;35,32
947,405;34,95
947,619;35,01
947,833;35,21
948,046;35,25
948,26;35,43
948,474;35,42
948,687;35,3
948,901;36,01
949,114;36,33
949,328;36,34
949,541;35,96
949,755;36,33
949,968;36,11
950,182;36,09
950,395;36,2
950,609;35,66
950,822;35,88
951,035;36,08
951,249;35,48
951,462;35,61
951,675;35,49
951,889;35,25
952,102;35,18
952,315;35,13
952,528;34,93
952,741;34,6
952,955;34,52
953,168;34,73
953,381;34,36
953,594;34,13
953,807;33,93
954,02;33,95
954,233;33,51
954,446;33,45
954,659;34,07
954,872;34,02
955,085;34,15
955,298;33,94
955,511;33,48
955,724;33,26
955,937;32,92
956,15;32,75
956,362;32,61
956,575;32,63
956,788;32,6
957,001;32,65
957,214;32,69
957,426;32,7
957,639;32,82
957,852;32,8
958,064;32,54
958,277;32,1
958,49;32,23
958,702;32,73
958,915;32,59
959,127;31,82
959,34;32
959,552;31,72
959,765;31,64
959,977;31,62
960,19;31,84
960,402;31,78
960,615;31,96
960,827;32,11
961,039;31,95
961,252;31,73
961,464;31,74
961,676;32,24
961,889;32,38
962,101;32,25
962,313;32,33
962,525;32,29
962,738;32,87
962,95;32,93
963,162;32,76
963,374;33,13
963,586;33,27
963,798;33
964,01;33,14
964,222;33,31
964,434;33,14
964,646;33,36
964,858;33,06
965,07;33,25
965,282;33,28
965,494;33,41
965,706;33,5
965,918;33,85
966,13;33,78
966,342;33,78
966,553;33,73
966,765;33,7
966,977;34,24
967,189;34,14
967,401;33,83
967,612;33,45
967,824;33,58
968,036;33,65
968,247;33,58
968,459;33,84
968,67;33,88
968,882;34,01
969,094;33,92
969,305;34,29
969,517;33,94
969,728;33,85
969,94;34,17
970,151;34,21
970,362;33,88
970,574;33,5
970,785;33,61
970,997;33,58
971,208;33,68
971,419;33,23
971,631;33,06
971,842;33,77
972,053;34,06
972,264;33,81
972,476;33,71
972,687;33,62
972,898;33,6
973,109;33,43
973,32;33,41
973,531;33,23
973,742;33,3
973,954;33,32
974,165;33,67
974,376;33,49
974,587;33,72
974,798;33,75
975,009;34
975,22;33,74
975,43;33,89
975,641;33,95
975,852;34,06
976,063;34,1
976,274;33,61
976,485;33,6
976,695;33,59
976,906;33,8
977,117;34,16
977,328;33,97
977,538;33,67
977,749;33,99
977,96;34,32
978,17;34,07
978,381;34,37
978,592;34,29
978,802;34,56
979,013;34,72
979,223;34,73
979,434;34,75
979,644;35,03
979,855;34,92
980,065;35,24
980,276;35,38
980,486;35,51
980,696;35,31
980,907;35,29
981,117;35,59
981,327;35,54
981,538;35,23
981,748;35,06
981,958;35,61
982,169;35,67
982,379;35,51
982,589;35,97
982,799;35,99
983,009;36,38
983,219;36,24
983,43;35,73
983,64;35,6
983,85;35,85
984,06;36,09
984,27;35,75
984,48;35,73
984,69;35,6
984,9;35,78
985,11;36,45
985,32;36,51
985,529;36,41
985,739;36,73
985,949;37,46
986,159;37,78
986,369;37,76
986,579;37,87
986,788;38,12
986,998;38,28
987,208;38,11
987,417;37,46
987,627;37,09
987,837;36,78
988,046;37,18
988,256;36,76
988,466;36,16
988,675;36,73
988,885;36,29
989,094;36,8
989,304;36,62
989,513;36,71
989,723;36,86
989,932;37,17
990,142;36,65
990,351;36,32
990,56;36,35
990,77;36,15
990,979;35,71
991,188;35,7
991,398;35,64
991,607;35,93
991,816;36,35
992,025;36,63
992,235;37,6
992,444;38,07
992,653;38,98
992,862;39,28
993,071;38,92
993,28;39,47
993,489;39,22
993,698;39,45
993,908;39,22
994,117;38,95
994,326;38,53
994,534;39,08
994,743;38,98
994,952;39,26
995,161;39,64
995,37;40,42
995,579;40,69
995,788;40,73
995,997;40,43
996,205;40,57
996,414;40,46
996,623;40,38
996,832;39,8
997,04;40,01
997,249;40,01
997,458;40,18
997,666;40,23
997,875;40,84
998,084;40,33
998,292;40,25
998,501;40,78
998,709;41,01
998,918;40,77
999,126;40,92
999,335;41,24
999,543;41,18
999,752;40,97
999,96;41,03
1000,169;40,82
1000,377;41,35
1000,585;40,91
1000,794;40,93
1001,002;41,17
1001,21;41,36
1001,418;40,52
1001,627;40,3
1001,835;40,97
1002,043;40,63
1002,251;40,25
1002,459;40,4
1002,668;40,47
1002,876;40,54
1003,084;41,03
1003,292;41,52
1003,5;41,37
1003,708;41,26
1003,916;41,25
1004,124;41,24
1004,332;41,28
1004,54;41,78
1004,748;41,75
1004,956;42,29
1005,163;42,21
1005,371;41,8
1005,579;42,18
1005,787;42,51
1005,995;42,86
1006,202;42,33
1006,41;42,63
1006,618;42,61
1006,826;42,49
1007,033;41,92
1007,241;41,76
1007,449;40,86
1007,656;40,66
1007,864;41,57
1008,071;41,77
1008,279;42,29
1008,486;43,36
1008,694;43,38
1008,901;43,6
1009,109;44,11
1009,316;44,11
1009,524;44,19
1009,731;44,71
1009,938;44,65
1010,146;44,77
1010,353;45,04
1010,56;44,57
1010,768;44,4
1010,975;44,34
1011,182;45,28
1011,389;45,56
1011,597;45,5
1011,804;45,96
1012,011;46,73
1012,218;45,64
1012,425;45,54
1012,632;44,88
1012,839;44,33
1013,046;43,48
1013,253;43,4
1013,46;42,49
1013,667;43,11
1013,874;44,05
1014,081;44,17
1014,288;43,39
1014,495;42,75
1014,702;42,12
1014,909;42,49
1015,116;42,39
1015,323;42,81
1015,529;42,85
1015,736;43,54
1015,943;43,72
1016,15;43,88
1016,356;43,1
1016,563;44,31
1016,77;44,55
1016,976;45,04
1017,183;44,85
1017,389;46,33
1017,596;45,72
1017,803;45,78
1018,009;45,85
1018,216;46,18
1018,422;45,32
1018,629;45,9
1018,835;46,72
1019,041;48,31
1019,248;47,62
1019,454;47,77
1019,661;47,87
1019,867;48,94
1020,073;49,03
1020,279;49,73
1020,486;49,54
1020,692;50,16
1020,898;48,33
1021,104;47,32
1021,311;46,36
1021,517;45,41
1021,723;45,91
1021,929;46,57
1022,135;48,7
1022,341;47,81
1022,547;46,97
1022,753;47,81
1022,959;47,49
1023,165;47,4
1023,371;47,34
1023,577;47,9
1023,783;47,88
1023,989;47,25
1024,195;47,34
1024,401;47,85
1024,607;46,37
1024,812;47,61
1025,018;47,63
1025,224;48,95
1025,43;49,03
1025,635;48,49
1025,841;49,65
1026,047;46,93
1026,252;46,64
1026,458;46,01
1026,664;46,27
1026,869;46,57
1027,075;47,2
1027,28;47,34
1027,486;47,41
1027,691;46,01
1027,897;47,94
1028,102;47,52
1028,308;47,61
1028,513;46,87
1028,719;45,42
1028,924;47,27
1029,129;45,94
1029,335;45,15
1029,54;46,38
1029,745;46,01
1029,95;46,8
1030,156;47,37
1030,361;48,94
1030,566;50,66
1030,771;49,75
1030,976;50,68
1031,182;51,7
1031,387;49,49
1031,592;50,45
1031,797;50,74
1032,002;51,19
1032,207;51,63
1032,412;52,38
1032,617;52,94
1032,822;50,59
1033,027;53,57
1033,232;52,82
1033,437;55,22
1033,642;56,99
1033,846;55,74
1034,051;57,36
1034,256;59,2
1034,461;56,66
1034,666;56,6
1034,87;56,24
1035,075;55,94
1035,28;54,91
1035,484;53,03
1035,689;53,71
1035,894;52,46
1036,098;51,26
1036,303;51,89
1036,507;51,39
1036,712;52,66
1036,917;52,67
1037,121;56,52
1037,325;54,78
1037,53;56,48
1037,734;54,59
1037,939;54,62
1038,143;54,98
1038,348;55,82
1038,552;54,57
1038,756;55,38
1038,961;54,88
1039,165;52,82
1039,369;53,63
1039,573;54,39
1039,778;52,98
1039,982;54,81
1040,186;55,31
1040,39;56,35
1040,594;58,78
1040,798;56,98
1041,002;55,34
1041,206;55,33
1041,41;53,91
1041,614;53,6
1041,818;52,94
1042,022;53,22
1042,226;51,05
1042,43;51,91
1042,634;50,39
1042,838;51,26
1043,042;51,85
1043,246;53,59
1043,45;53,31
1043,653;50,7
1043,857;51,91
1044,061;55,28
1044,265;52,43
1044,468;55,27
1044,672;56,98
1044,876;55,01
1045,079;55,25
1045,283;57,46
1045,487;56,97
1045,69;55,35
1045,894;55,06
1046,097;56,02
1046,301;55,73
1046,504;57,97
1046,708;57,46
1046,911;60,2
1047,115;60,67
1047,318;63,35
1047,522;65,83
1047,725;66,16
1047,928;68,64
1048,132;66,82
1048,335;66,06
1048,538;68,53
1048,741;65,47
1048,945;66,49
1049,148;69,36
1049,351;68,01
1049,554;68,75
1049,757;73,79
1049,96;74,92
1050,163;76,22
1050,367;73,55
1050,57;73,34
1050,773;72,05
1050,976;74,22
1051,179;70,23
1051,382;72,15
1051,585;72,59
1051,787;71,67
1051,99;73,26
1052,193;72,04
1052,396;77,49
1052,599;75,23
1052,802;80,22
1053,005;81,31
1053,207;78,7
1053,41;74,76
1053,613;75,33
1053,815;73,94
1054,018;68,84
1054,221;70,84
1054,423;72,18
1054,626;73,08
1054,829;75,25
1055,031;77,55
1055,234;75,54
1055,436;80,2
1055,639;78,74
1055,841;72,61
1056,044;70,49
1056,246;69,23
