Data from terraverdeCiproWhite_Reflection__1__41.txt Node;
"Date: Wed Sep 10 12:38:50 CEST 2025 User: sycur Spectrometer: SR400348 Trigger mode: 0 Integration Time (sec): 1,000000E-2 Scans to average: 10 Electric dark correction enabled: true Nonlinearity correction enabled: false Boxcar width: 10 XAxis mode: Wavelengths Number of Pixels in Spectrum: 3648 >>>>>Begin Spectral Data<<<<<";
186,01;85,83
186,281;76,42
186,552;79,19
186,822;121,6
187,093;533,33
187,364;360,02
187,635;122,23
187,905;39,89
188,176;51,52
188,447;44,69
188,717;24,91
188,988;17,88
189,258;23,89
189,529;26,32
189,8;24,39
190,07;27,52
190,341;23,25
190,611;18,99
190,882;15,88
191,152;16,89
191,423;14,15
191,693;12,63
191,964;11,39
192,234;12,14
192,505;10,99
192,775;16,21
193,045;15,5
193,316;14,22
193,586;16,41
193,856;15,15
194,127;14,64
194,397;15,91
194,667;17,72
194,938;16,83
195,208;16,85
195,478;16,99
195,748;16,57
196,019;16,38
196,289;15,57
196,559;14,85
196,829;13,66
197,099;13,52
197,37;14,11
197,64;14,93
197,91;13,88
198,18;13,56
198,45;12,41
198,72;11,58
198,99;11,62
199,26;10,62
199,53;10,13
199,8;9,82
200,07;9,58
200,34;8,84
200,61;8,54
200,88;8,01
201,15;7,86
201,42;7,05
201,69;6,67
201,96;7,17
202,23;8,57
202,499;9,04
202,769;8,78
203,039;7,73
203,309;6,23
203,579;6,89
203,849;7,37
204,118;6,91
204,388;6,87
204,658;6,47
204,927;6,09
205,197;5,49
205,467;5,49
205,736;5,34
206,006;5,15
206,276;5,01
206,545;5,39
206,815;5,24
207,085;5,75
207,354;6,05
207,624;5,52
207,893;4,98
208,163;4,69
208,432;4,93
208,702;5,08
208,971;5,14
209,241;4,86
209,51;4,66
209,78;4,65
210,049;4,69
210,318;4,83
210,588;4,8
210,857;5,22
211,127;5,14
211,396;4,92
211,665;4,98
211,935;5,07
212,204;4,78
212,473;4,56
212,742;4,41
213,012;4,41
213,281;4,62
213,55;4,72
213,819;4,76
214,088;4,75
214,358;4,92
214,627;5,19
214,896;5,2
215,165;5
215,434;4,68
215,703;4,56
215,972;4,46
216,241;4,49
216,51;4,27
216,779;4,18
217,048;4,36
217,317;4,2
217,586;4,25
217,855;4,23
218,124;4,43
218,393;4,26
218,662;4,19
218,931;4,22
219,2;3,94
219,469;3,93
219,738;3,84
220,006;3,72
220,275;3,56
220,544;3,51
220,813;3,53
221,082;3,59
221,35;3,62
221,619;3,6
221,888;3,66
222,157;3,83
222,425;3,92
222,694;3,77
222,963;3,77
223,231;3,76
223,5;3,74
223,769;3,47
224,037;3,53
224,306;3,44
224,574;3,34
224,843;3,43
225,111;3,32
225,38;3,26
225,648;3,16
225,917;3,17
226,185;3,13
226,454;3,15
226,722;3,25
226,991;3,22
227,259;3,21
227,528;3,13
227,796;3,01
228,064;2,99
228,333;3,07
228,601;3,08
228,869;2,99
229,138;2,92
229,406;3,04
229,674;3
229,942;3,05
230,211;3,16
230,479;3,16
230,747;3,17
231,015;3,15
231,283;3,19
231,552;3,2
231,82;3,19
232,088;3,2
232,356;3,17
232,624;3,17
232,892;3,17
233,16;3,2
233,428;3,18
233,696;3,1
233,964;3,07
234,232;3,06
234,5;3,06
234,768;3,1
235,036;3,08
235,304;3,15
235,572;3,11
235,84;2,98
236,108;2,94
236,376;2,9
236,644;2,86
236,912;2,85
237,179;2,82
237,447;2,8
237,715;2,77
237,983;2,78
238,251;2,75
238,518;2,71
238,786;2,67
239,054;2,64
239,322;2,67
239,589;2,65
239,857;2,64
240,125;2,62
240,392;2,6
240,66;2,61
240,927;2,58
241,195;2,55
241,463;2,61
241,73;2,62
241,998;2,63
242,265;2,63
242,533;2,61
242,8;2,61
243,068;2,6
243,335;2,57
243,603;2,55
243,87;2,56
244,138;2,56
244,405;2,59
244,672;2,6
244,94;2,55
245,207;2,55
245,474;2,56
245,742;2,55
246,009;2,52
246,276;2,51
246,544;2,47
246,811;2,5
247,078;2,47
247,345;2,46
247,613;2,46
247,88;2,46
248,147;2,46
248,414;2,45
248,681;2,47
248,948;2,48
249,215;2,48
249,483;2,46
249,75;2,45
250,017;2,43
250,284;2,41
250,551;2,42
250,818;2,41
251,085;2,4
251,352;2,39
251,619;2,4
251,886;2,39
252,153;2,38
252,42;2,36
252,687;2,36
252,953;2,33
253,22;2,33
253,487;2,32
253,754;2,32
254,021;2,32
254,288;2,29
254,555;2,29
254,821;2,28
255,088;2,27
255,355;2,27
255,622;2,28
255,888;2,29
256,155;2,29
256,422;2,28
256,688;2,27
256,955;2,25
257,222;2,26
257,488;2,25
257,755;2,27
258,022;2,27
258,288;2,24
258,555;2,26
258,821;2,23
259,088;2,25
259,354;2,22
259,621;2,24
259,887;2,26
260,154;2,27
260,42;2,26
260,687;2,29
260,953;2,3
261,219;2,29
261,486;2,28
261,752;2,28
262,019;2,29
262,285;2,27
262,551;2,28
262,818;2,3
263,084;2,27
263,35;2,25
263,616;2,23
263,883;2,27
264,149;2,25
264,415;2,29
264,681;2,26
264,947;2,3
265,214;2,28
265,48;2,3
265,746;2,29
266,012;2,3
266,278;2,27
266,544;2,27
266,81;2,27
267,076;2,3
267,342;2,28
267,608;2,31
267,874;2,32
268,14;2,33
268,406;2,31
268,672;2,34
268,938;2,35
269,204;2,37
269,47;2,36
269,736;2,36
270,002;2,32
270,268;2,33
270,533;2,32
270,799;2,31
271,065;2,27
271,331;2,27
271,597;2,27
271,862;2,28
272,128;2,26
272,394;2,28
272,66;2,29
272,925;2,29
273,191;2,27
273,457;2,26
273,722;2,23
273,988;2,24
274,254;2,2
274,519;2,23
274,785;2,22
275,05;2,2
275,316;2,21
275,582;2,22
275,847;2,23
276,113;2,2
276,378;2,18
276,644;2,22
276,909;2,19
277,174;2,21
277,44;2,21
277,705;2,2
277,971;2,17
278,236;2,15
278,501;2,15
278,767;2,14
279,032;2,16
279,297;2,17
279,563;2,16
279,828;2,19
280,093;2,15
280,358;2,14
280,624;2,14
280,889;2,13
281,154;2,14
281,419;2,14
281,684;2,16
281,95;2,17
282,215;2,17
282,48;2,16
282,745;2,14
283,01;2,15
283,275;2,17
283,54;2,17
283,805;2,17
284,07;2,18
284,335;2,17
284,6;2,13
284,865;2,13
285,13;2,13
285,395;2,13
285,66;2,16
285,925;2,19
286,19;2,21
286,455;2,21
286,72;2,22
286,985;2,21
287,249;2,21
287,514;2,24
287,779;2,21
288,044;2,23
288,309;2,23
288,573;2,21
288,838;2,24
289,103;2,26
289,367;2,26
289,632;2,28
289,897;2,3
290,161;2,33
290,426;2,34
290,691;2,37
290,955;2,34
291,22;2,33
291,484;2,3
291,749;2,27
292,014;2,27
292,278;2,26
292,543;2,27
292,807;2,27
293,072;2,26
293,336;2,26
293,6;2,26
293,865;2,25
294,129;2,26
294,394;2,25
294,658;2,24
294,922;2,26
295,187;2,23
295,451;2,22
295,715;2,22
295,98;2,23
296,244;2,22
296,508;2,22
296,773;2,24
297,037;2,27
297,301;2,28
297,565;2,3
297,829;2,3
298,094;2,32
298,358;2,31
298,622;2,33
298,886;2,35
299,15;2,39
299,414;2,4
299,678;2,4
299,942;2,4
300,206;2,41
300,47;2,4
300,734;2,42
300,998;2,44
301,262;2,42
301,526;2,4
301,79;2,41
302,054;2,43
302,318;2,44
302,582;2,46
302,846;2,44
303,11;2,45
303,374;2,47
303,637;2,46
303,901;2,48
304,165;2,46
304,429;2,48
304,693;2,45
304,956;2,45
305,22;2,46
305,484;2,48
305,747;2,49
306,011;2,52
306,275;2,51
306,538;2,53
306,802;2,57
307,066;2,61
307,329;2,62
307,593;2,62
307,856;2,61
308,12;2,59
308,384;2,64
308,647;2,64
308,911;2,66
309,174;2,64
309,438;2,64
309,701;2,65
309,964;2,64
310,228;2,66
310,491;2,67
310,755;2,69
311,018;2,69
311,281;2,71
311,545;2,69
311,808;2,7
312,071;2,66
312,335;2,62
312,598;2,61
312,861;2,64
313,124;2,66
313,388;2,69
313,651;2,69
313,914;2,67
314,177;2,64
314,44;2,63
314,704;2,64
314,967;2,65
315,23;2,69
315,493;2,7
315,756;2,7
316,019;2,7
316,282;2,69
316,545;2,67
316,808;2,68
317,071;2,7
317,334;2,71
317,597;2,77
317,86;2,82
318,123;2,85
318,386;2,82
318,649;2,81
318,912;2,82
319,175;2,81
319,437;2,83
319,7;2,85
319,963;2,87
320,226;2,88
320,489;2,86
320,751;2,84
321,014;2,83
321,277;2,83
321,54;2,84
321,802;2,83
322,065;2,82
322,328;2,8
322,59;2,8
322,853;2,79
323,116;2,78
323,378;2,77
323,641;2,75
323,903;2,75
324,166;2,76
324,428;2,71
324,691;2,73
324,953;2,74
325,216;2,76
325,478;2,75
325,741;2,71
326,003;2,74
326,266;2,75
326,528;2,72
326,791;2,74
327,053;2,73
327,315;2,72
327,578;2,76
327,84;2,74
328,102;2,76
328,365;2,76
328,627;2,73
328,889;2,72
329,151;2,75
329,414;2,75
329,676;2,76
329,938;2,78
330,2;2,77
330,462;2,75
330,725;2,77
330,987;2,79
331,249;2,83
331,511;2,81
331,773;2,8
332,035;2,81
332,297;2,81
332,559;2,79
332,821;2,8
333,083;2,78
333,345;2,77
333,607;2,77
333,869;2,77
334,131;2,8
334,393;2,82
334,655;2,79
334,917;2,81
335,179;2,79
335,44;2,82
335,702;2,81
335,964;2,81
336,226;2,79
336,488;2,78
336,749;2,74
337,011;2,76
337,273;2,77
337,535;2,78
337,796;2,75
338,058;2,81
338,32;2,79
338,581;2,78
338,843;2,78
339,105;2,79
339,366;2,81
339,628;2,83
339,889;2,82
340,151;2,79
340,412;2,79
340,674;2,79
340,935;2,79
341,197;2,83
341,458;2,82
341,72;2,81
341,981;2,8
342,243;2,84
342,504;2,85
342,766;2,83
343,027;2,81
343,288;2,86
343,55;2,84
343,811;2,86
344,072;2,84
344,334;2,87
344,595;2,83
344,856;2,83
345,117;2,81
345,379;2,83
345,64;2,88
345,901;2,92
346,162;2,95
346,423;2,94
346,684;2,89
346,946;2,93
347,207;2,94
347,468;2,99
347,729;2,95
347,99;2,96
348,251;2,97
348,512;2,99
348,773;2,96
349,034;2,96
349,295;2,99
349,556;3,01
349,817;3,02
350,078;3,06
350,339;3,06
350,6;3,07
350,86;3,08
351,121;3,03
351,382;3,02
351,643;2,97
351,904;2,93
352,165;2,96
352,425;2,94
352,686;2,96
352,947;2,95
353,208;2,96
353,468;2,94
353,729;2,96
353,99;2,95
354,25;2,96
354,511;2,97
354,772;2,98
355,032;3,02
355,293;2,96
355,553;2,94
355,814;2,94
356,074;2,92
356,335;2,92
356,596;2,97
356,856;2,94
357,116;2,97
357,377;3,02
357,637;2,98
357,898;2,96
358,158;2,94
358,419;2,93
358,679;2,98
358,939;2,97
359,2;2,95
359,46;2,97
359,72;2,96
359,981;2,96
360,241;2,92
360,501;2,89
360,761;2,93
361,022;2,92
361,282;2,92
361,542;2,94
361,802;2,89
362,062;2,88
362,323;2,86
362,583;2,87
362,843;2,84
363,103;2,88
363,363;2,91
363,623;2,9
363,883;2,89
364,143;2,88
364,403;2,87
364,663;2,93
364,923;2,97
365,183;3,01
365,443;3,03
365,703;3,01
365,963;3,04
366,223;3,08
366,483;3,07
366,743;3,06
367,002;3,07
367,262;3,06
367,522;3,05
367,782;3,07
368,042;3,08
368,301;3,13
368,561;3,11
368,821;3,11
369,081;3,11
369,34;3,11
369,6;3,07
369,86;3,1
370,119;3,06
370,379;3,04
370,638;3,07
370,898;3,04
371,158;3,06
371,417;3,03
371,677;3,01
371,936;3,02
372,196;3,06
372,455;3,05
372,715;3,06
372,974;3,1
373,234;3,06
373,493;3,05
373,753;3,03
374,012;3,03
374,271;3,01
374,531;3,02
374,79;3,04
375,049;3,1
375,309;3,1
375,568;3,09
375,827;3,05
376,086;3,03
376,346;3,06
376,605;3,09
376,864;3,06
377,123;3,07
377,383;3,05
377,642;3,05
377,901;3,05
378,16;3,07
378,419;3,01
378,678;3,05
378,937;3,06
379,196;3,08
379,455;3,13
379,714;3,17
379,973;3,19
380,232;3,18
380,491;3,18
380,75;3,18
381,009;3,18
381,268;3,2
381,527;3,21
381,786;3,2
382,045;3,21
382,304;3,24
382,563;3,27
382,821;3,34
383,08;3,33
383,339;3,34
383,598;3,39
383,857;3,43
384,115;3,42
384,374;3,42
384,633;3,43
384,891;3,39
385,15;3,39
385,409;3,44
385,667;3,46
385,926;3,46
386,185;3,49
386,443;3,5
386,702;3,52
386,96;3,49
387,219;3,51
387,477;3,51
387,736;3,53
387,994;3,51
388,253;3,52
388,511;3,53
388,77;3,54
389,028;3,53
389,287;3,54
389,545;3,58
389,803;3,58
390,062;3,58
390,32;3,57
390,578;3,63
390,837;3,61
391,095;3,61
391,353;3,64
391,612;3,68
391,87;3,68
392,128;3,69
392,386;3,7
392,644;3,72
392,903;3,72
393,161;3,72
393,419;3,71
393,677;3,69
393,935;3,71
394,193;3,7
394,451;3,71
394,709;3,68
394,967;3,71
395,225;3,72
395,483;3,78
395,741;3,83
395,999;3,82
396,257;3,84
396,515;3,85
396,773;3,86
397,031;3,83
397,289;3,86
397,547;3,87
397,805;3,91
398,062;3,93
398,32;3,92
398,578;3,94
398,836;3,92
399,094;3,91
399,351;3,9
399,609;3,93
399,867;3,92
400,124;3,93
400,382;3,97
400,64;4,01
400,897;3,97
401,155;3,92
401,413;3,9
401,67;3,85
401,928;3,86
402,185;3,8
402,443;3,81
402,701;3,83
402,958;3,8
403,216;3,78
403,473;3,78
403,73;3,78
403,988;3,81
404,245;3,89
404,503;3,87
404,76;3,9
405,018;3,9
405,275;3,95
405,532;3,99
405,79;3,97
406,047;3,95
406,304;3,98
406,561;4,06
406,819;4,11
407,076;4,15
407,333;4,17
407,59;4,26
407,848;4,26
408,105;4,23
408,362;4,3
408,619;4,35
408,876;4,35
409,133;4,34
409,39;4,33
409,647;4,35
409,904;4,36
410,161;4,4
410,418;4,4
410,675;4,37
410,932;4,38
411,189;4,44
411,446;4,43
411,703;4,42
411,96;4,41
412,217;4,39
412,474;4,37
412,731;4,34
412,988;4,34
413,245;4,35
413,501;4,4
413,758;4,42
414,015;4,39
414,272;4,4
414,529;4,47
414,785;4,49
415,042;4,55
415,299;4,61
415,555;4,58
415,812;4,58
416,069;4,59
416,325;4,57
416,582;4,59
416,838;4,65
417,095;4,6
417,352;4,59
417,608;4,64
417,865;4,71
418,121;4,73
418,378;4,74
418,634;4,79
418,891;4,85
419,147;4,86
419,403;4,87
419,66;4,88
419,916;4,87
420,173;4,86
420,429;4,79
420,685;4,8
420,942;4,85
421,198;4,87
421,454;4,91
421,711;4,94
421,967;4,93
422,223;4,89
422,479;4,98
422,735;5,04
422,992;5,05
423,248;5,02
423,504;5,06
423,76;5,1
424,016;5,07
424,272;5,03
424,528;5,01
424,784;5,01
425,041;5,02
425,297;5,04
425,553;5,09
425,809;5,15
426,065;5,16
426,32;5,14
426,576;5,16
426,832;5,14
427,088;5,19
427,344;5,18
427,6;5,25
427,856;5,23
428,112;5,22
428,368;5,2
428,623;5,24
428,879;5,24
429,135;5,2
429,391;5,22
429,646;5,29
429,902;5,31
430,158;5,39
430,414;5,38
430,669;5,44
430,925;5,45
431,181;5,47
431,436;5,5
431,692;5,53
431,947;5,57
432,203;5,58
432,458;5,56
432,714;5,57
432,97;5,57
433,225;5,62
433,481;5,66
433,736;5,68
433,991;5,7
434,247;5,71
434,502;5,77
434,758;5,83
435,013;5,81
435,268;5,8
435,524;5,78
435,779;5,81
436,034;5,8
436,29;5,81
436,545;5,82
436,8;5,79
437,056;5,8
437,311;5,79
437,566;5,8
437,821;5,81
438,076;5,81
438,331;5,82
438,587;5,82
438,842;5,83
439,097;5,87
439,352;5,88
439,607;5,9
439,862;5,91
440,117;5,91
440,372;5,89
440,627;5,94
440,882;5,96
441,137;5,96
441,392;5,99
441,647;6
441,902;6,05
442,157;6,05
442,412;6,07
442,667;6,06
442,921;6,09
443,176;6,13
443,431;6,14
443,686;6,19
443,941;6,21
444,195;6,24
444,45;6,23
444,705;6,25
444,96;6,28
445,214;6,29
445,469;6,29
445,724;6,33
445,978;6,36
446,233;6,4
446,487;6,46
446,742;6,44
446,997;6,45
447,251;6,44
447,506;6,52
447,76;6,52
448,015;6,56
448,269;6,61
448,524;6,63
448,778;6,68
449,033;6,63
449,287;6,63
449,541;6,65
449,796;6,7
450,05;6,75
450,305;6,79
450,559;6,8
450,813;6,83
451,067;6,83
451,322;6,83
451,576;6,81
451,83;6,84
452,084;6,88
452,339;6,93
452,593;7
452,847;7
453,101;7,05
453,355;7,07
453,609;7,06
453,864;7,07
454,118;7,02
454,372;7,06
454,626;7,1
454,88;7,15
455,134;7,16
455,388;7,15
455,642;7,12
455,896;7,15
456,15;7,12
456,404;7,17
456,658;7,16
456,912;7,2
457,165;7,19
457,419;7,21
457,673;7,17
457,927;7,1
458,181;7,13
458,435;7,1
458,688;7,12
458,942;7,13
459,196;7,11
459,45;7,15
459,703;7,18
459,957;7,15
460,211;7,14
460,464;7,18
460,718;7,2
460,972;7,24
461,225;7,24
461,479;7,3
461,732;7,29
461,986;7,31
462,239;7,33
462,493;7,36
462,746;7,37
463;7,41
463,253;7,47
463,507;7,49
463,76;7,54
464,014;7,52
464,267;7,57
464,52;7,62
464,774;7,66
465,027;7,72
465,28;7,76
465,534;7,75
465,787;7,76
466,04;7,76
466,294;7,75
466,547;7,78
466,8;7,8
467,053;7,84
467,306;7,86
467,56;7,89
467,813;7,89
468,066;7,89
468,319;7,92
468,572;7,91
468,825;7,93
469,078;7,96
469,331;7,99
469,584;8,03
469,837;8,02
470,09;8,07
470,343;8,05
470,596;8,09
470,849;8,16
471,102;8,14
471,355;8,21
471,608;8,26
471,861;8,32
472,114;8,33
472,367;8,34
472,619;8,4
472,872;8,41
473,125;8,45
473,378;8,51
473,631;8,55
473,883;8,57
474,136;8,62
474,389;8,67
474,641;8,69
474,894;8,68
475,147;8,75
475,399;8,75
475,652;8,8
475,905;8,79
476,157;8,79
476,41;8,84
476,662;8,83
476,915;8,84
477,167;8,85
477,42;8,89
477,672;8,91
477,925;8,92
478,177;8,94
478,43;8,96
478,682;8,95
478,934;8,95
479,187;8,98
479,439;8,99
479,691;8,98
479,944;9,04
480,196;9,09
480,448;9,14
480,701;9,15
480,953;9,18
481,205;9,21
481,457;9,24
481,709;9,27
481,962;9,31
482,214;9,35
482,466;9,38
482,718;9,44
482,97;9,53
483,222;9,61
483,474;9,68
483,726;9,74
483,978;9,79
484,23;9,86
484,482;9,89
484,734;9,93
484,986;9,94
485,238;9,93
485,49;9,94
485,742;9,94
485,994;9,97
486,246;9,97
486,498;9,97
486,75;10,01
487,001;10,03
487,253;10,04
487,505;10,05
487,757;10,07
488,009;10,06
488,26;10,05
488,512;10,05
488,764;10,04
489,015;10,02
489,267;10,03
489,519;10,01
489,77;10,01
490,022;10,02
490,274;10,02
490,525;10,05
490,777;10,08
491,028;10,09
491,28;10,08
491,531;10,09
491,783;10,1
492,034;10,15
492,286;10,17
492,537;10,21
492,789;10,23
493,04;10,22
493,291;10,22
493,543;10,25
493,794;10,24
494,045;10,25
494,297;10,26
494,548;10,27
494,799;10,3
495,051;10,32
495,302;10,33
495,553;10,37
495,804;10,4
496,056;10,43
496,307;10,43
496,558;10,49
496,809;10,52
497,06;10,53
497,311;10,49
497,562;10,52
497,813;10,52
498,064;10,54
498,316;10,58
498,567;10,62
498,818;10,6
499,069;10,62
499,319;10,67
499,57;10,7
499,821;10,72
500,072;10,74
500,323;10,76
500,574;10,77
500,825;10,81
501,076;10,82
501,327;10,82
501,577;10,86
501,828;10,85
502,079;10,89
502,33;10,94
502,58;10,99
502,831;11
503,082;11,02
503,333;11,06
503,583;11,08
503,834;11,13
504,084;11,17
504,335;11,2
504,586;11,21
504,836;11,22
505,087;11,24
505,337;11,28
505,588;11,28
505,838;11,32
506,089;11,38
506,339;11,39
506,59;11,44
506,84;11,47
507,091;11,52
507,341;11,51
507,591;11,53
507,842;11,57
508,092;11,61
508,343;11,64
508,593;11,64
508,843;11,66
509,093;11,63
509,344;11,66
509,594;11,67
509,844;11,71
510,094;11,73
510,345;11,75
510,595;11,76
510,845;11,78
511,095;11,78
511,345;11,75
511,595;11,81
511,845;11,79
512,095;11,84
512,345;11,83
512,595;11,9
512,845;11,93
513,095;11,94
513,345;11,96
513,595;11,97
513,845;11,98
514,095;12
514,345;12,06
514,595;12,08
514,845;12,11
515,095;12,12
515,345;12,15
515,594;12,19
515,844;12,2
516,094;12,23
516,344;12,25
516,593;12,29
516,843;12,29
517,093;12,33
517,343;12,34
517,592;12,37
517,842;12,39
518,092;12,44
518,341;12,44
518,591;12,47
518,84;12,48
519,09;12,54
519,34;12,56
519,589;12,58
519,839;12,63
520,088;12,66
520,338;12,68
520,587;12,7
520,836;12,71
521,086;12,75
521,335;12,77
521,585;12,8
521,834;12,84
522,083;12,89
522,333;12,92
522,582;12,95
522,831;13
523,081;13,02
523,33;13,01
523,579;13,07
523,828;13,12
524,078;13,14
524,327;13,18
524,576;13,22
524,825;13,25
525,074;13,28
525,323;13,31
525,573;13,33
525,822;13,38
526,071;13,41
526,32;13,46
526,569;13,5
526,818;13,55
527,067;13,58
527,316;13,61
527,565;13,66
527,814;13,7
528,063;13,71
528,312;13,77
528,56;13,79
528,809;13,8
529,058;13,84
529,307;13,89
529,556;13,92
529,805;13,96
530,053;13,98
530,302;13,99
530,551;14,03
530,8;14,07
531,048;14,09
531,297;14,14
531,546;14,17
531,794;14,18
532,043;14,2
532,292;14,23
532,54;14,26
532,789;14,28
533,037;14,28
533,286;14,29
533,535;14,32
533,783;14,36
534,032;14,37
534,28;14,37
534,528;14,4
534,777;14,42
535,025;14,43
535,274;14,46
535,522;14,53
535,771;14,57
536,019;14,6
536,267;14,64
536,516;14,65
536,764;14,67
537,012;14,74
537,26;14,75
537,509;14,79
537,757;14,82
538,005;14,83
538,253;14,89
538,501;14,94
538,75;14,94
538,998;14,99
539,246;15,01
539,494;15,05
539,742;15,07
539,99;15,11
540,238;15,15
540,486;15,17
540,734;15,14
540,982;15,15
541,23;15,17
541,478;15,2
541,726;15,22
541,974;15,25
542,222;15,26
542,47;15,31
542,718;15,33
542,966;15,35
543,213;15,37
543,461;15,37
543,709;15,38
543,957;15,42
544,205;15,43
544,452;15,46
544,7;15,47
544,948;15,52
545,196;15,55
545,443;15,58
545,691;15,61
545,939;15,66
546,186;15,69
546,434;15,72
546,681;15,72
546,929;15,75
547,176;15,74
547,424;15,76
547,671;15,76
547,919;15,81
548,166;15,82
548,414;15,86
548,661;15,91
548,909;15,94
549,156;15,95
549,404;15,98
549,651;16
549,898;16,03
550,146;16,04
550,393;16,07
550,64;16,09
550,888;16,11
551,135;16,14
551,382;16,16
551,629;16,19
551,876;16,24
552,124;16,27
552,371;16,33
552,618;16,33
552,865;16,37
553,112;16,38
553,359;16,39
553,606;16,41
553,854;16,43
554,101;16,43
554,348;16,45
554,595;16,48
554,842;16,52
555,089;16,54
555,336;16,55
555,582;16,55
555,829;16,57
556,076;16,58
556,323;16,58
556,57;16,59
556,817;16,59
557,064;16,58
557,311;16,61
557,557;16,6
557,804;16,62
558,051;16,61
558,298;16,63
558,544;16,65
558,791;16,66
559,038;16,63
559,284;16,65
559,531;16,68
559,778;16,66
560,024;16,65
560,271;16,66
560,517;16,67
560,764;16,67
561,011;16,66
561,257;16,69
561,504;16,71
561,75;16,74
561,997;16,74
562,243;16,76
562,489;16,75
562,736;16,74
562,982;16,78
563,229;16,81
563,475;16,8
563,721;16,81
563,968;16,82
564,214;16,85
564,46;16,87
564,707;16,87
564,953;16,87
565,199;16,91
565,445;16,92
565,691;16,94
565,938;16,96
566,184;16,98
566,43;17,01
566,676;17,04
566,922;17,04
567,168;17,08
567,414;17,11
567,66;17,13
567,906;17,19
568,152;17,19
568,398;17,22
568,644;17,26
568,89;17,29
569,136;17,32
569,382;17,34
569,628;17,35
569,874;17,35
570,12;17,37
570,366;17,39
570,612;17,4
570,857;17,41
571,103;17,44
571,349;17,45
571,595;17,44
571,84;17,43
572,086;17,44
572,332;17,45
572,578;17,45
572,823;17,45
573,069;17,44
573,315;17,44
573,56;17,44
573,806;17,43
574,051;17,43
574,297;17,42
574,542;17,42
574,788;17,43
575,034;17,45
575,279;17,44
575,524;17,44
575,77;17,45
576,015;17,45
576,261;17,46
576,506;17,47
576,752;17,47
576,997;17,49
577,242;17,49
577,488;17,49
577,733;17,47
577,978;17,48
578,223;17,48
578,469;17,5
578,714;17,5
578,959;17,51
579,204;17,51
579,45;17,51
579,695;17,51
579,94;17,51
580,185;17,49
580,43;17,5
580,675;17,49
580,92;17,48
581,165;17,47
581,41;17,47
581,655;17,45
581,9;17,44
582,145;17,43
582,39;17,42
582,635;17,4
582,88;17,41
583,125;17,41
583,37;17,42
583,615;17,38
583,86;17,36
584,105;17,33
584,349;17,32
584,594;17,3
584,839;17,3
585,084;17,28
585,328;17,29
585,573;17,27
585,818;17,27
586,063;17,25
586,307;17,25
586,552;17,2
586,797;17,19
587,041;17,17
587,286;17,14
587,53;17,12
587,775;17,11
588,019;17,09
588,264;17,07
588,508;17,02
588,753;17,04
588,997;17,02
589,242;16,99
589,486;16,98
589,731;16,96
589,975;16,94
590,22;16,94
590,464;16,91
590,708;16,9
590,953;16,87
591,197;16,86
591,441;16,84
591,685;16,86
591,93;16,83
592,174;16,84
592,418;16,84
592,662;16,84
592,907;16,83
593,151;16,82
593,395;16,8
593,639;16,79
593,883;16,75
594,127;16,74
594,371;16,73
594,615;16,7
594,859;16,69
595,103;16,67
595,347;16,63
595,591;16,61
595,835;16,59
596,079;16,59
596,323;16,58
596,567;16,58
596,811;16,56
597,055;16,55
597,299;16,52
597,542;16,52
597,786;16,5
598,03;16,51
598,274;16,49
598,518;16,48
598,761;16,47
599,005;16,45
599,249;16,45
599,492;16,46
599,736;16,46
599,98;16,44
600,223;16,42
600,467;16,43
600,711;16,43
600,954;16,43
601,198;16,42
601,441;16,4
601,685;16,35
601,928;16,35
602,172;16,35
602,415;16,34
602,659;16,32
602,902;16,31
603,145;16,28
603,389;16,26
603,632;16,24
603,876;16,23
604,119;16,22
604,362;16,2
604,606;16,17
604,849;16,17
605,092;16,16
605,335;16,16
605,579;16,14
605,822;16,13
606,065;16,1
606,308;16,08
606,551;16,06
606,794;16,07
607,037;16,05
607,281;16,03
607,524;16,02
607,767;16,02
608,01;15,98
608,253;15,97
608,496;15,97
608,739;15,98
608,982;15,98
609,225;15,97
609,468;15,95
609,711;15,95
609,953;15,94
610,196;15,94
610,439;15,91
610,682;15,89
610,925;15,86
611,168;15,84
611,41;15,81
611,653;15,8
611,896;15,79
612,139;15,77
612,381;15,77
612,624;15,74
612,867;15,72
613,109;15,7
613,352;15,68
613,595;15,68
613,837;15,64
614,08;15,62
614,322;15,61
614,565;15,6
614,807;15,57
615,05;15,52
615,292;15,5
615,535;15,51
615,777;15,47
616,02;15,46
616,262;15,47
616,505;15,48
616,747;15,47
616,989;15,46
617,232;15,44
617,474;15,42
617,716;15,4
617,959;15,38
618,201;15,36
618,443;15,36
618,685;15,33
618,927;15,32
619,17;15,31
619,412;15,31
619,654;15,31
619,896;15,3
620,138;15,32
620,38;15,31
620,622;15,29
620,864;15,31
621,107;15,31
621,349;15,3
621,591;15,29
621,833;15,28
622,075;15,29
622,316;15,31
622,558;15,3
622,8;15,31
623,042;15,32
623,284;15,35
623,526;15,36
623,768;15,36
624,01;15,37
624,251;15,37
624,493;15,34
624,735;15,34
624,977;15,33
625,218;15,31
625,46;15,3
625,702;15,31
625,943;15,29
626,185;15,28
626,427;15,28
626,668;15,26
626,91;15,26
627,152;15,25
627,393;15,21
627,635;15,18
627,876;15,15
628,118;15,13
628,359;15,1
628,601;15,07
628,842;15,05
629,084;15,03
629,325;14,98
629,566;14,97
629,808;14,96
630,049;14,95
630,29;14,94
630,532;14,92
630,773;14,89
631,014;14,88
631,256;14,86
631,497;14,85
631,738;14,83
631,979;14,79
632,22;14,77
632,462;14,76
632,703;14,75
632,944;14,75
633,185;14,72
633,426;14,73
633,667;14,71
633,908;14,69
634,149;14,68
634,39;14,71
634,631;14,69
634,872;14,66
635,113;14,64
635,354;14,63
635,595;14,61
635,836;14,61
636,077;14,59
636,318;14,6
636,559;14,56
636,8;14,58
637,04;14,57
637,281;14,54
637,522;14,53
637,763;14,53
638,003;14,52
638,244;14,51
638,485;14,48
638,726;14,44
638,966;14,43
639,207;14,43
639,448;14,38
639,688;14,37
639,929;14,38
640,169;14,37
640,41;14,34
640,65;14,35
640,891;14,33
641,131;14,32
641,372;14,29
641,612;14,27
641,853;14,24
642,093;14,22
642,334;14,22
642,574;14,21
642,814;14,18
643,055;14,18
643,295;14,19
643,535;14,2
643,776;14,2
644,016;14,2
644,256;14,19
644,496;14,18
644,737;14,17
644,977;14,14
645,217;14,15
645,457;14,15
645,697;14,15
645,938;14,14
646,178;14,15
646,418;14,16
646,658;14,17
646,898;14,16
647,138;14,18
647,378;14,18
647,618;14,17
647,858;14,18
648,098;14,15
648,338;14,13
648,578;14,12
648,818;14,12
649,057;14,1
649,297;14,11
649,537;14,1
649,777;14,12
650,017;14,13
650,257;14,12
650,496;14,13
650,736;14,12
650,976;14,11
661,028;13,91
661,267;13,89
661,506;13,87
661,744;13,9
661,983;13,89
662,222;13,88
662,461;13,86
662,7;13,86
662,939;13,83
663,177;13,81
663,416;13,8
663,655;13,79
663,894;13,77
664,132;13,77
664,371;13,74
664,61;13,73
664,848;13,74
665,087;13,74
665,326;13,74
665,564;13,75
665,803;13,73
666,041;13,71
666,28;13,69
666,518;13,67
666,757;13,65
666,995;13,63
667,234;13,6
667,472;13,61
667,711;13,59
667,949;13,61
668,187;13,6
668,426;13,59
668,664;13,58
668,902;13,58
669,141;13,56
669,379;13,56
669,617;13,57
669,856;13,57
670,094;13,56
670,332;13,55
670,57;13,54
670,808;13,54
671,046;13,56
671,285;13,55
671,523;13,55
671,761;13,54
671,999;13,54
672,237;13,56
672,475;13,56
672,713;13,55
672,951;13,54
673,189;13,53
673,427;13,53
673,665;13,53
673,903;13,52
674,141;13,54
674,379;13,55
674,617;13,54
674,854;13,53
675,092;13,51
675,33;13,51
675,568;13,5
675,806;13,51
676,043;13,48
676,281;13,49
676,519;13,51
676,756;13,52
676,994;13,52
677,232;13,53
677,469;13,49
677,707;13,49
677,945;13,49
678,182;13,51
678,42;13,52
678,657;13,52
678,895;13,5
679,132;13,49
679,37;13,48
679,607;13,46
679,845;13,45
680,082;13,46
680,32;13,44
680,557;13,46
680,794;13,46
681,032;13,44
681,269;13,43
681,507;13,4
681,744;13,37
681,981;13,41
682,218;13,36
682,456;13,38
682,693;13,38
682,93;13,37
683,167;13,36
683,404;13,33
683,642;13,33
683,879;13,32
684,116;13,33
684,353;13,33
684,59;13,33
684,827;13,33
685,064;13,3
685,301;13,28
685,538;13,26
685,775;13,25
686,012;13,28
686,249;13,27
686,486;13,26
686,723;13,28
686,96;13,22
687,197;13,23
687,433;13,22
687,67;13,23
687,907;13,2
688,144;13,2
688,381;13,2
688,617;13,2
688,854;13,22
689,091;13,17
689,327;13,17
689,564;13,16
689,801;13,14
690,037;13,15
690,274;13,16
690,511;13,15
690,747;13,15
690,984;13,13
691,22;13,14
691,457;13,12
691,693;13,1
691,93;13,13
692,166;13,12
692,403;13,11
692,639;13,09
692,876;13,11
693,112;13,08
693,348;13,07
693,585;13,05
693,821;13,03
694,057;13,04
694,294;13,02
694,53;13,03
694,766;13,04
695,002;13,03
695,239;13,02
695,475;13,03
695,711;13,01
695,947;13,02
696,183;12,98
696,419;12,97
696,656;12,98
696,892;12,95
697,128;12,94
697,364;12,94
697,6;12,92
697,836;12,9
698,072;12,92
698,308;12,93
698,544;12,92
698,78;12,92
699,016;12,91
699,251;12,89
699,487;12,88
699,723;12,88
699,959;12,87
700,195;12,88
700,431;12,88
700,666;12,85
700,902;12,84
701,138;12,85
701,374;12,86
701,609;12,86
701,845;12,85
702,081;12,86
702,316;12,85
702,552;12,84
702,788;12,84
703,023;12,83
703,259;12,8
703,494;12,79
703,73;12,81
703,965;12,81
704,201;12,81
704,436;12,79
704,672;12,77
704,907;12,8
705,143;12,78
705,378;12,79
705,613;12,8
705,849;12,78
706,084;12,78
706,319;12,76
706,555;12,75
706,79;12,75
707,025;12,73
707,26;12,74
707,496;12,77
707,731;12,76
707,966;12,76
708,201;12,77
708,436;12,78
708,671;12,74
708,907;12,72
709,142;12,72
709,377;12,72
709,612;12,74
709,847;12,72
710,082;12,7
710,317;12,65
710,552;12,67
710,787;12,67
711,022;12,65
711,257;12,67
711,492;12,66
711,726;12,63
711,961;12,65
712,196;12,64
712,431;12,61
712,666;12,61
712,901;12,58
713,135;12,56
713,37;12,57
713,605;12,59
713,839;12,63
714,074;12,61
714,309;12,6
714,543;12,58
714,778;12,57
715,013;12,59
715,247;12,62
715,482;12,58
715,716;12,58
715,951;12,6
716,185;12,59
716,42;12,6
716,654;12,62
716,889;12,62
717,123;12,6
717,358;12,6
717,592;12,59
717,827;12,59
718,061;12,59
718,295;12,56
718,53;12,54
718,764;12,49
718,998;12,5
719,232;12,49
719,467;12,49
719,701;12,48
719,935;12,48
720,169;12,46
720,403;12,45
720,638;12,45
720,872;12,43
721,106;12,41
721,34;12,39
721,574;12,39
721,808;12,37
722,042;12,35
722,276;12,32
722,51;12,32
722,744;12,35
722,978;12,34
723,212;12,34
723,446;12,38
723,68;12,4
723,914;12,38
724,147;12,39
724,381;12,38
724,615;12,37
724,849;12,32
725,083;12,31
725,316;12,33
725,55;12,33
725,784;12,34
726,018;12,32
726,251;12,34
726,485;12,32
726,719;12,32
726,952;12,34
727,186;12,37
727,419;12,4
727,653;12,38
727,887;12,38
728,12;12,38
728,354;12,36
728,587;12,37
728,821;12,37
729,054;12,37
729,287;12,4
729,521;12,4
729,754;12,42
729,988;12,41
730,221;12,43
730,454;12,42
730,688;12,42
730,921;12,44
731,154;12,41
731,387;12,42
731,621;12,44
731,854;12,42
732,087;12,43
732,32;12,43
732,553;12,41
732,787;12,43
733,02;12,42
733,253;12,43
733,486;12,41
733,719;12,43
733,952;12,43
734,185;12,4
734,418;12,4
734,651;12,38
734,884;12,42
735,117;12,39
735,35;12,37
735,583;12,36
735,816;12,36
736,049;12,35
736,281;12,38
736,514;12,36
736,747;12,37
736,98;12,39
737,213;12,36
737,445;12,37
737,678;12,36
737,911;12,37
738,144;12,36
738,376;12,36
738,609;12,34
738,842;12,35
739,074;12,37
739,307;12,37
739,539;12,37
739,772;12,35
740,004;12,37
740,237;12,38
740,469;12,36
740,702;12,36
740,934;12,39
741,167;12,35
741,399;12,35
741,632;12,36
741,864;12,32
742,096;12,33
742,329;12,32
742,561;12,32
742,793;12,33
743,026;12,32
743,258;12,33
743,49;12,31
743,723;12,26
743,955;12,24
744,187;12,21
744,419;12,24
744,651;12,22
744,883;12,2
745,115;12,2
745,348;12,22
745,58;12,2
745,812;12,18
746,044;12,21
746,276;12,22
746,508;12,18
746,74;12,19
746,972;12,22
747,204;12,21
747,436;12,22
747,667;12,21
747,899;12,22
748,131;12,18
748,363;12,18
748,595;12,2
748,827;12,21
749,058;12,23
749,29;12,21
749,522;12,22
749,754;12,2
749,985;12,2
750,217;12,15
750,449;12,16
750,68;12,18
750,912;12,19
751,144;12,2
751,375;12,19
751,607;12,18
751,838;12,17
752,07;12,18
752,301;12,17
752,533;12,12
752,764;12,11
752,996;12,13
753,227;12,14
753,459;12,15
753,69;12,14
753,921;12,14
754,153;12,13
754,384;12,15
754,615;12,18
754,847;12,2
755,078;12,27
755,309;12,3
755,54;12,29
755,772;12,26
756,003;12,26
756,234;12,27
756,465;12,3
756,696;12,3
756,927;12,32
757,159;12,32
757,39;12,36
757,621;12,39
757,852;12,39
758,083;12,38
758,314;12,4
758,545;12,41
758,776;12,42
759,007;12,43
759,238;12,42
759,469;12,44
759,699;12,42
759,93;12,4
760,161;12,36
760,392;12,34
760,623;12,32
760,854;12,32
761,084;12,31
761,315;12,29
761,546;12,28
761,776;12,26
762,007;12,26
762,238;12,28
762,468;12,28
762,699;12,32
762,93;12,33
763,16;12,31
763,391;12,3
763,621;12,27
763,852;12,29
764,083;12,27
764,313;12,23
764,543;12,26
764,774;12,23
765,004;12,25
765,235;12,26
765,465;12,3
765,696;12,3
765,926;12,34
766,156;12,35
766,387;12,37
766,617;12,39
766,847;12,41
767,077;12,38
767,308;12,38
767,538;12,37
767,768;12,38
767,998;12,39
768,228;12,37
768,459;12,38
768,689;12,41
768,919;12,44
769,149;12,47
769,379;12,46
769,609;12,5
769,839;12,53
770,069;12,56
770,299;12,55
770,529;12,54
770,759;12,51
770,989;12,5
771,219;12,51
771,449;12,5
771,678;12,51
771,908;12,53
772,138;12,53
772,368;12,53
772,598;12,49
772,827;12,5
773,057;12,51
773,287;12,56
773,517;12,51
773,746;12,52
773,976;12,53
774,206;12,52
774,435;12,51
774,665;12,5
774,894;12,49
775,124;12,49
775,354;12,49
775,583;12,51
775,813;12,5
776,042;12,48
776,272;12,46
776,501;12,47
776,73;12,48
776,96;12,48
777,189;12,48
777,419;12,52
777,648;12,54
777,877;12,55
778,107;12,51
778,336;12,55
778,565;12,51
778,794;12,5
779,024;12,51
779,253;12,53
779,482;12,53
779,711;12,54
779,94;12,56
780,17;12,61
780,399;12,61
780,628;12,67
780,857;12,68
781,086;12,7
781,315;12,7
781,544;12,73
781,773;12,76
782,002;12,77
782,231;12,78
782,46;12,77
782,689;12,75
782,918;12,77
783,147;12,77
783,375;12,82
783,604;12,87
783,833;12,88
784,062;12,85
784,291;12,89
784,519;12,9
784,748;12,9
784,977;12,88
785,206;12,87
785,434;12,84
785,663;12,84
785,892;12,84
786,12;12,86
786,349;12,83
786,577;12,79
786,806;12,79
787,034;12,79
787,263;12,81
787,492;12,85
787,72;12,89
787,948;12,92
788,177;12,9
788,405;12,87
788,634;12,87
788,862;12,92
789,09;12,87
789,319;12,89
789,547;12,89
789,775;12,88
790,004;12,91
790,232;12,91
790,46;12,93
790,688;12,93
790,917;12,9
791,145;12,9
791,373;12,92
791,601;12,95
791,829;12,95
792,057;12,97
792,286;13
792,514;12,98
792,742;12,99
792,97;13,04
793,198;13,05
793,426;13,08
793,654;13,07
793,882;13,11
794,109;13,08
794,337;13,1
794,565;13,09
794,793;13,12
795,021;13,12
795,249;13,13
795,477;13,14
795,704;13,14
795,932;13,13
796,16;13,12
796,388;13,11
796,615;13,12
796,843;13,11
797,071;13,1
797,298;13,11
797,526;13,09
797,754;13,04
797,981;13,02
798,209;13
798,436;12,99
798,664;13
798,891;13,01
799,119;12,98
799,346;13,01
799,574;13,03
799,801;13,07
800,029;13,03
800,256;13,09
800,483;13,12
800,711;13,15
800,938;13,12
801,165;13,1
801,393;13,1
801,62;13,12
801,847;13,11
802,074;13,1
802,302;13,09
802,529;13,14
802,756;13,18
802,983;13,19
803,21;13,23
803,437;13,21
803,665;13,21
803,892;13,24
804,119;13,24
804,346;13,2
804,573;13,21
804,8;13,22
805,027;13,21
805,254;13,18
805,481;13,2
805,708;13,26
805,934;13,28
806,161;13,3
806,388;13,27
806,615;13,33
806,842;13,33
807,069;13,37
807,295;13,36
807,522;13,38
807,749;13,41
807,976;13,4
808,202;13,45
808,429;13,51
808,656;13,47
808,882;13,49
809,109;13,47
809,335;13,52
809,562;13,51
809,789;13,48
810,015;13,5
810,242;13,49
810,468;13,49
810,695;13,51
810,921;13,52
811,147;13,52
811,374;13,52
811,6;13,56
811,827;13,6
812,053;13,53
812,279;13,51
812,506;13,47
812,732;13,46
812,958;13,44
813,185;13,43
813,411;13,44
813,637;13,44
813,863;13,43
814,089;13,37
814,315;13,41
814,542;13,44
814,768;13,43
814,994;13,45
815,22;13,46
815,446;13,47
815,672;13,47
815,898;13,53
816,124;13,49
816,35;13,43
816,576;13,42
816,802;13,52
817,028;13,48
817,254;13,54
817,48;13,52
817,705;13,53
817,931;13,49
818,157;13,52
818,383;13,53
818,609;13,54
818,834;13,56
819,06;13,52
819,286;13,54
819,512;13,59
819,737;13,57
819,963;13,56
820,189;13,52
820,414;13,53
820,64;13,46
820,865;13,49
821,091;13,53
821,316;13,49
821,542;13,46
821,767;13,51
821,993;13,5
822,218;13,54
822,444;13,52
822,669;13,53
822,895;13,59
823,12;13,59
823,345;13,65
823,571;13,62
823,796;13,72
824,021;13,68
824,247;13,69
824,472;13,69
824,697;13,66
824,922;13,69
825,147;13,68
825,373;13,78
825,598;13,76
825,823;13,76
826,048;13,73
826,273;13,66
826,498;13,68
826,723;13,64
826,948;13,66
827,173;13,67
827,398;13,66
827,623;13,62
827,848;13,6
828,073;13,61
828,298;13,6
828,523;13,52
828,748;13,53
828,973;13,5
829,197;13,49
829,422;13,51
829,647;13,52
829,872;13,52
830,097;13,54
830,321;13,59
830,546;13,6
830,771;13,63
830,995;13,71
831,22;13,73
831,445;13,76
831,669;13,75
831,894;13,73
832,118;13,78
832,343;13,83
832,567;13,85
832,792;13,78
833,016;13,81
833,241;13,8
833,465;13,84
833,69;13,83
833,914;13,82
834,139;13,83
834,363;13,81
834,587;13,82
834,812;13,78
835,036;13,69
835,26;13,7
835,485;13,73
835,709;13,74
835,933;13,69
836,157;13,72
836,381;13,73
836,606;13,74
836,83;13,69
837,054;13,65
837,278;13,63
837,502;13,67
837,726;13,67
837,95;13,68
838,174;13,66
838,398;13,63
838,622;13,66
838,846;13,62
839,07;13,64
839,294;13,59
839,518;13,56
839,742;13,62
839,966;13,63
840,189;13,57
840,413;13,56
840,637;13,62
840,861;13,57
841,085;13,53
841,308;13,53
841,532;13,58
841,756;13,62
841,979;13,59
842,203;13,64
842,427;13,7
842,65;13,73
842,874;13,72
843,098;13,73
843,321;13,75
843,545;13,79
843,768;13,79
843,992;13,84
844,215;13,91
844,439;13,89
844,662;13,89
844,886;13,95
845,109;13,96
845,332;13,92
845,556;13,96
845,779;13,95
846,002;13,95
846,226;13,92
846,449;13,85
846,672;13,86
846,895;13,84
847,119;13,78
847,342;13,8
847,565;13,84
847,788;13,87
848,011;13,87
848,234;13,84
848,457;13,8
848,681;13,75
848,904;13,73
849,127;13,74
849,35;13,7
849,573;13,72
849,796;13,76
850,019;13,75
850,241;13,74
850,464;13,8
850,687;13,85
850,91;13,84
851,133;13,87
851,356;13,92
851,579;13,91
851,801;13,9
852,024;13,9
852,247;13,88
852,47;13,89
852,692;13,88
852,915;13,9
853,138;13,92
853,36;13,97
853,583;13,9
853,806;13,88
854,028;13,81
854,251;13,72
854,473;13,7
854,696;13,7
854,918;13,71
855,141;13,68
855,363;13,62
855,586;13,67
855,808;13,64
856,031;13,68
856,253;13,7
856,475;13,71
856,698;13,64
856,92;13,62
857,142;13,61
857,365;13,57
857,587;13,53
857,809;13,54
858,031;13,55
858,253;13,62
858,476;13,65
858,698;13,68
858,92;13,69
859,142;13,72
859,364;13,69
859,586;13,71
859,808;13,76
860,03;13,74
860,252;13,68
860,474;13,78
860,696;13,79
860,918;13,8
861,14;13,81
861,362;13,84
861,584;13,83
861,806;13,82
862,028;13,81
862,25;13,79
862,471;13,76
862,693;13,68
862,915;13,62
863,137;13,57
863,358;13,68
863,58;13,77
863,802;13,73
864,024;13,8
864,245;13,76
864,467;13,72
864,688;13,78
864,91;13,83
865,132;13,76
865,353;13,66
865,575;13,54
865,796;13,52
866,018;13,53
866,239;13,53
866,461;13,5
866,682;13,6
866,903;13,7
867,125;13,74
867,346;13,82
867,567;13,87
867,789;13,88
868,01;13,82
868,231;13,69
868,453;13,65
868,674;13,62
868,895;13,7
869,116;13,65
869,337;13,66
869,559;13,65
869,78;13,67
870,001;13,67
870,222;13,76
870,443;13,73
870,664;13,77
870,885;13,76
871,106;13,8
871,327;13,74
871,548;13,72
871,769;13,69
871,99;13,74
872,211;13,72
872,432;13,73
872,653;13,75
872,874;13,88
873,094;13,9
873,315;13,86
873,536;13,73
873,757;13,69
873,978;13,75
874,198;13,76
874,419;13,72
874,64;13,74
874,86;13,72
875,081;13,84
875,302;13,83
875,522;13,9
875,743;13,91
875,963;13,97
876,184;14
876,404;13,97
876,625;13,94
876,845;14,01
877,066;14,06
877,286;14,02
877,507;14,09
877,727;14,13
877,947;14,13
878,168;14,14
878,388;14,17
878,609;14,11
878,829;14,13
879,049;14,19
879,269;14,19
879,49;14,24
879,71;14,13
879,93;14,14
880,15;14,18
880,37;14,19
880,59;14,09
880,811;14,06
881,031;14,09
881,251;13,99
881,471;13,83
881,691;13,8
881,911;13,83
882,131;13,68
882,351;13,7
882,571;13,71
882,791;13,79
883,011;13,81
883,23;13,77
883,45;13,77
883,67;13,75
883,89;13,77
884,11;13,75
884,33;13,76
884,549;13,65
884,769;13,49
884,989;13,46
885,209;13,56
885,428;13,6
885,648;13,52
885,868;13,63
886,087;13,68
886,307;13,66
886,526;13,6
886,746;13,63
886,965;13,61
887,185;13,66
887,404;13,62
887,624;13,76
887,843;13,81
888,063;13,78
888,282;13,8
888,502;13,81
888,721;13,83
888,94;13,93
889,16;13,99
889,379;14,1
889,598;14,13
889,818;14,11
890,037;14,07
890,256;14,11
890,475;14,12
890,694;14,24
890,914;14,27
891,133;14,28
891,352;14,41
891,571;14,36
891,79;14,31
892,009;14,28
892,228;14,23
892,447;14,27
892,666;14,24
892,885;14,24
893,104;14,26
893,323;14,32
893,542;14,29
893,761;14,33
893,98;14,32
894,199;14,35
894,417;14,27
894,636;14,28
894,855;14,32
895,074;14,24
895,293;14,15
895,511;14,14
895,73;14,19
895,949;13,98
896,167;14
896,386;14,18
896,605;14,26
896,823;14,17
897,042;14,15
897,26;14,02
897,479;14,09
897,697;14,22
897,916;14,19
898,134;14,2
898,353;14,21
898,571;14,15
898,79;14,14
899,008;14,22
899,227;14,24
899,445;14,28
899,663;14,33
899,882;14,37
900,1;14,42
900,318;14,43
900,536;14,57
900,755;14,63
900,973;14,45
901,191;14,35
901,409;14,4
901,627;14,4
901,846;14,6
902,064;14,52
902,282;14,41
902,5;14,32
902,718;14,25
902,936;14,11
903,154;14,2
903,372;14,15
903,59;14,11
903,808;14,11
904,026;14,13
904,244;14,15
904,462;13,99
904,679;13,95
904,897;14,02
905,115;14,01
905,333;14,03
905,551;14,04
905,768;14,06
905,986;14,07
906,204;14,02
906,422;13,91
906,639;13,83
906,857;13,79
907,074;13,78
907,292;13,75
907,51;13,93
907,727;13,92
907,945;14
908,162;14,04
908,38;14,04
908,597;14,03
908,815;14,12
909,032;14,14
909,25;14,04
909,467;13,96
909,684;13,94
909,902;13,93
910,119;13,97
910,337;14
910,554;13,94
910,771;13,99
910,988;14,01
911,206;14,05
911,423;14,04
911,64;14,06
911,857;14,08
912,074;14,06
912,291;13,94
912,509;13,89
912,726;13,9
912,943;13,94
913,16;13,94
913,377;13,9
913,594;13,99
913,811;14,1
914,028;14,13
914,245;14,18
914,462;14,09
914,679;14,01
914,896;14,07
915,112;14,08
915,329;14,12
915,546;14,15
915,763;14,22
915,98;14,12
916,196;14,08
916,413;14,23
916,63;14,33
916,847;14,27
917,063;14,27
917,28;14,27
917,497;14,28
917,713;14,27
917,93;14,27
918,146;14,33
918,363;14,4
918,579;14,41
918,796;14,45
919,012;14,61
919,229;14,68
919,445;14,82
919,662;14,9
919,878;14,87
920,095;15
920,311;15,07
920,527;15,31
920,744;15,43
920,96;15,36
921,176;15,12
921,392;15,22
921,609;15,33
921,825;15,35
922,041;15,44
922,257;15,34
922,473;15,31
922,69;15,25
922,906;15,15
923,122;15,24
923,338;15,15
923,554;15,01
923,77;14,97
923,986;14,78
924,202;14,91
924,418;15,02
924,634;14,91
924,85;14,78
925,066;14,72
925,282;14,7
925,497;14,62
925,713;14,76
925,929;14,96
926,145;14,9
926,361;14,87
926,576;14,72
926,792;14,7
927,008;14,56
927,224;14,67
927,439;14,67
927,655;14,34
927,871;14,3
928,086;14,3
928,302;14,27
928,517;14,3
928,733;14,16
928,948;14,04
929,164;14,05
929,379;14,02
929,595;13,96
929,81;13,97
930,026;13,95
930,241;13,93
930,456;13,69
930,672;13,7
930,887;13,76
931,102;13,82
931,318;13,92
931,533;14
931,748;13,91
931,964;13,92
932,179;14,06
932,394;14,11
932,609;14,26
932,824;14,44
933,039;14,39
933,255;14,38
933,47;14,4
933,685;14,38
933,9;14,53
934,115;14,57
934,33;14,64
934,545;14,92
934,76;15,09
934,975;15,32
935,19;15,49
935,404;15,54
935,619;15,66
935,834;15,71
936,049;15,98
936,264;16,14
936,479;16,11
936,693;16,11
936,908;16,41
937,123;16,34
937,338;16,28
937,552;16,42
937,767;16,48
937,982;16,63
938,196;16,78
938,411;16,71
938,625;16,78
938,84;16,82
939,055;16,8
939,269;16,72
939,484;17,02
939,698;17,05
939,912;16,99
940,127;16,95
940,341;16,71
940,556;16,05
940,77;16,12
940,984;16,45
941,199;17,06
941,413;16,71
941,627;16,88
941,842;17,02
942,056;17,18
942,27;17,59
942,484;18,14
942,699;18,35
942,913;18,68
943,127;18,82
943,341;18,96
943,555;18,69
943,769;19,02
943,983;18,74
944,197;18,28
944,411;18,18
944,625;18,09
944,839;18,99
945,053;19,68
945,267;19,98
945,481;19,84
945,695;19,85
945,909;20,17
946,123;20,13
946,336;20,45
946,55;20,94
946,764;20,65
946,978;19,97
947,192;19,9
947,405;19,77
947,619;20,42
947,833;20,11
948,046;20,35
948,26;20,14
948,474;20,41
948,687;20,65
948,901;20,68
949,114;21,01
949,328;20,76
949,541;20,28
949,755;20,43
949,968;20,69
950,182;20,47
950,395;20,51
950,609;20,59
950,822;20,11
951,035;19,76
951,249;19,47
951,462;19,55
951,675;19,2
951,889;18,84
952,102;18,36
952,315;18,81
952,528;18,56
952,741;18,45
952,955;18
953,168;18,01
953,381;17,79
953,594;17,31
953,807;17,24
954,02;17,87
954,233;17,26
954,446;17,27
954,659;17,67
954,872;17,3
955,085;17,51
955,298;17,6
955,511;17,27
955,724;17,35
955,937;17,69
956,15;17,57
956,362;17,69
956,575;17,68
956,788;17,26
957,001;17,39
957,214;17,02
957,426;17,35
957,639;17,39
957,852;17,45
958,064;17,65
958,277;17,36
958,49;16,94
958,702;17,24
958,915;16,77
959,127;16,2
959,34;16,27
959,552;15,95
959,765;15,74
959,977;15,9
960,19;16,43
960,402;15,95
960,615;16,18
960,827;16,14
961,039;15,95
961,252;15,8
961,464;15,88
961,676;16,36
961,889;16,23
962,101;16,01
962,313;16
962,525;15,95
962,738;15,97
962,95;15,97
963,162;15,83
963,374;16,19
963,586;16,37
963,798;16,24
964,01;16,32
964,222;16,66
964,434;16,82
964,646;16,27
964,858;16,33
965,07;16,57
965,282;16,77
965,494;16,95
965,706;16,9
965,918;16,84
966,13;16,77
966,342;16,9
966,553;17
966,765;17,11
966,977;17,31
967,189;17,61
967,401;17,81
967,612;17,59
967,824;17,67
968,036;17,9
968,247;17,83
968,459;17,58
968,67;17,38
968,882;17,32
969,094;17,62
969,305;17,86
969,517;17,97
969,728;17,79
969,94;18,05
970,151;18,49
970,362;18,61
970,574;18,4
970,785;18,39
970,997;18,61
971,208;18,35
971,419;17,84
971,631;17,94
971,842;18,09
972,053;18,56
972,264;18,71
972,476;18,53
972,687;18,7
972,898;18,8
973,109;19,24
973,32;19,3
973,531;19,22
973,742;19,3
973,954;19,16
974,165;19,6
974,376;19,3
974,587;19,19
974,798;19,25
975,009;19,5
975,22;19,31
975,43;19,06
975,641;19,69
975,852;20,06
976,063;19,85
976,274;19,9
976,485;20,16
976,695;19,65
976,906;19,53
977,117;19,79
977,328;19,87
977,538;19,6
977,749;19,49
977,96;19,48
978,17;19,36
978,381;19,24
978,592;19,28
978,802;19,45
979,013;19,43
979,223;19,51
979,434;19,29
979,644;19,67
979,855;19,86
980,065;19,8
980,276;19,79
980,486;19,9
980,696;19,38
980,907;18,66
981,117;19,02
981,327;19,12
981,538;18,41
981,748;17,87
981,958;18,38
982,169;18,67
982,379;18,66
982,589;18,55
982,799;18,74
983,009;18,52
983,219;18,36
983,43;18,19
983,64;18,01
983,85;18,75
984,06;18,67
984,27;18,41
984,48;18,56
984,69;18,46
984,9;18,28
985,11;18,73
985,32;19,28
985,529;19,11
985,739;18,83
985,949;19,61
986,159;19,96
986,369;19,17
986,579;18,95
986,788;19,54
986,998;19,74
987,208;19,72
987,417;19,71
987,627;19,18
987,837;19,23
988,046;18,65
988,256;17,94
988,466;17,65
988,675;17,52
988,885;17,52
989,094;17,77
989,304;17,93
989,513;18,34
989,723;18,2
989,932;18,14
990,142;18,53
990,351;18,43
990,56;18,61
990,77;18,89
990,979;18,55
991,188;18,75
991,398;18,68
991,607;18,74
991,816;18,91
992,025;19,74
992,235;19,84
992,444;20,89
992,653;21,54
992,862;21,95
993,071;22,06
993,28;21,89
993,489;21,77
993,698;21,75
993,908;20,93
994,117;20,73
994,326;21,16
994,534;20,43
994,743;20,37
994,952;20,4
995,161;20,2
995,37;20,67
995,579;20,08
995,788;20,28
995,997;19,78
996,205;19,74
996,414;19,3
996,623;19,6
996,832;19,16
997,04;19,39
997,249;19,2
997,458;19,56
997,666;19,9
997,875;20
998,084;19,46
998,292;19,55
998,501;19,28
998,709;19,28
998,918;19,96
999,126;20,23
999,335;20,8
999,543;21,49
999,752;21,24
999,96;21,32
1000,169;20,88
1000,377;21,1
1000,585;21,57
1000,794;21,55
1001,002;21,92
1001,21;21,37
1001,418;20,41
1001,627;20,46
1001,835;19,99
1002,043;20,22
1002,251;20,31
1002,459;21,14
1002,668;21,12
1002,876;21,15
1003,084;20,98
1003,292;20,78
1003,5;20,74
1003,708;20,34
1003,916;19,69
1004,124;20,32
1004,332;20,66
1004,54;21,24
1004,748;21,39
1004,956;20,5
1005,163;20,84
1005,371;19,5
1005,579;19,67
1005,787;20,12
1005,995;20,54
1006,202;21,78
1006,41;21,32
1006,618;21,52
1006,826;21,39
1007,033;21
1007,241;20,96
1007,449;20,83
1007,656;21,34
1007,864;21,18
1008,071;21,67
1008,279;22,1
1008,486;21,59
1008,694;21,12
1008,901;21,2
1009,109;21,31
1009,316;21,72
1009,524;21,79
1009,731;23,24
1009,938;23,85
1010,146;23,57
1010,353;22,95
1010,56;22,06
1010,768;22,31
1010,975;23,12
1011,182;22,57
1011,389;22,54
1011,597;24,08
1011,804;23,86
1012,011;24,18
1012,218;24,33
1012,425;23,83
1012,632;24,33
1012,839;25,62
1013,046;25,24
1013,253;24,79
1013,46;25,12
1013,667;25,54
1013,874;25,03
1014,081;24,71
1014,288;23,53
1014,495;23,47
1014,702;22,1
1014,909;21,27
1015,116;20,98
1015,323;20,65
1015,529;21,6
1015,736;23,08
1015,943;22,73
1016,15;22,99
1016,356;23,17
1016,563;22,73
1016,77;22,95
1016,976;22,53
1017,183;20,62
1017,389;21,43
1017,596;22,47
1017,803;21,88
1018,009;21,55
1018,216;22,93
1018,422;21,88
1018,629;23,26
1018,835;24,32
1019,041;25,93
1019,248;27,15
1019,454;27,28
1019,661;27,28
1019,867;26,8
1020,073;27,08
1020,279;26,64
1020,486;26,73
1020,692;26,35
1020,898;26,33
1021,104;25,96
1021,311;25,73
1021,517;27,11
1021,723;26,12
1021,929;24,67
1022,135;25,92
1022,341;25,77
1022,547;23,92
1022,753;24,89
1022,959;25,19
1023,165;25,14
1023,371;26,27
1023,577;25,23
1023,783;24,23
1023,989;23,26
1024,195;24,91
1024,401;23,79
1024,607;24,41
1024,812;25,62
1025,018;25,95
1025,224;26,36
1025,43;28,15
1025,635;27,22
1025,841;27,55
1026,047;27,7
1026,252;28,34
1026,458;28,04
1026,664;28,25
1026,869;29,11
1027,075;30,66
1027,28;29,48
1027,486;28,84
1027,691;28,21
1027,897;29,68
1028,102;29,58
1028,308;29,85
1028,513;28,04
1028,719;28,95
1028,924;29,08
1029,129;28,75
1029,335;28,94
1029,54;29,06
1029,745;27,58
1029,95;28,39
1030,156;27,36
1030,361;27,76
1030,566;28,47
1030,771;27,08
1030,976;27,25
1031,182;27,12
1031,387;26,08
1031,592;27,73
1031,797;26,57
1032,002;24,81
1032,207;25,02
1032,412;25,79
1032,617;27,72
1032,822;27,59
1033,027;30,3
1033,232;29,11
1033,437;28,8
1033,642;26,88
1033,846;25,59
1034,051;23,22
1034,256;22,49
1034,461;21,18
1034,666;20,9
1034,87;19,86
1035,075;20,93
1035,28;21
1035,484;22,15
1035,689;19,36
1035,894;17,05
1036,098;17,38
1036,303;18,84
1036,507;17,73
1036,712;17,44
1036,917;15,42
1037,121;16,81
1037,325;12,27
1037,53;15,57
1037,734;16,21
1037,939;20,02
1038,143;22,6
1038,348;24,88
1038,552;25,56
1038,756;26,78
1038,961;26,36
1039,165;26,71
1039,369;26,21
1039,573;24,08
1039,778;24,25
1039,982;26,28
1040,186;26,64
1040,39;28,2
1040,594;29,77
1040,798;30,23
1041,002;30,74
1041,206;28,56
1041,41;27,86
1041,614;29,69
1041,818;27,8
1042,022;27,74
1042,226;26,34
1042,43;25,7
1042,634;27,09
1042,838;30,68
1043,042;29,4
1043,246;29,89
1043,45;30,96
1043,653;30,45
1043,857;33,56
1044,061;33,05
1044,265;33,31
1044,468;38,24
1044,672;36,2
1044,876;34,56
1045,079;33,17
1045,283;34,27
1045,487;36,42
1045,69;36,64
1045,894;34,68
1046,097;37,14
1046,301;36,79
1046,504;36,53
1046,708;35,13
1046,911;35,21
1047,115;32
1047,318;35,64
1047,522;38,82
1047,725;37,5
1047,928;39,43
1048,132;37,22
1048,335;35,87
1048,538;36,08
1048,741;32,14
1048,945;34,12
1049,148;36,17
1049,351;35,45
1049,554;34,99
1049,757;38,55
1049,96;38,1
1050,163;41,66
1050,367;38,44
1050,57;39,35
1050,773;37,02
1050,976;39,71
1051,179;39,73
1051,382;39,88
1051,585;39,84
1051,787;43,14
1051,99;45,09
1052,193;43,79
1052,396;46,59
1052,599;48,11
1052,802;47,82
1053,005;49,02
1053,207;50,49
1053,41;50,39
1053,613;53,45
1053,815;51,27
1054,018;48,75
1054,221;51,02
1054,423;49,23
1054,626;48
1054,829;47,59
1055,031;50,93
1055,234;51,05
1055,436;50,72
1055,639;50,99
1055,841;48,62
1056,044;40,43
1056,246;38,15
