Data from terraverdeCiproWhite_Reflection__2__42.txt Node;
"Date: Wed Sep 10 12:39:39 CEST 2025 User: sycur Spectrometer: SR400348 Trigger mode: 0 Integration Time (sec): 1,000000E-2 Scans to average: 10 Electric dark correction enabled: true Nonlinearity correction enabled: false Boxcar width: 10 XAxis mode: Wavelengths Number of Pixels in Spectrum: 3648 >>>>>Begin Spectral Data<<<<<";
186,01;130,57
186,281;93,14
186,552;59,5
186,822;31,02
187,093;166,67
187,364;620,34
187,635;183,84
187,905;103,88
188,176;74,14
188,447;53,68
188,717;39,57
188,988;30,08
189,258;33,8
189,529;36,67
189,8;27,2
190,07;31,51
190,341;23,36
190,611;25,42
190,882;23,76
191,152;25,4
191,423;20,32
191,693;22,53
191,964;22,14
192,234;25,88
192,505;25,31
192,775;23,96
193,045;19,98
193,316;17,37
193,586;16,8
193,856;15,53
194,127;16,83
194,397;17,49
194,667;18,76
194,938;15,65
195,208;14,47
195,478;14,65
195,748;13,55
196,019;14,73
196,289;13,68
196,559;13,16
196,829;11,63
197,099;12,4
197,37;12,05
197,64;11,26
197,91;9,82
198,18;9,14
198,45;9,28
198,72;10,06
198,99;10,73
199,26;10,8
199,53;11,47
199,8;11,08
200,07;10,34
200,34;9,34
200,61;8,65
200,88;8,43
201,15;8,88
201,42;9,12
201,69;8,18
201,96;7,89
202,23;8,63
202,499;9,75
202,769;9,55
203,039;8,45
203,309;7,98
203,579;8,78
203,849;9,52
204,118;9,04
204,388;9,51
204,658;9,05
204,927;8,46
205,197;7,83
205,467;7,27
205,736;7,47
206,006;7,5
206,276;7,95
206,545;8,24
206,815;8,12
207,085;8,11
207,354;8,4
207,624;8,13
207,893;7,46
208,163;7,04
208,432;7,18
208,702;7,11
208,971;7,03
209,241;6,64
209,51;6,36
209,78;6,27
210,049;5,79
210,318;6
210,588;6,01
210,857;6,33
211,127;6,45
211,396;6,17
211,665;6,03
211,935;6,24
212,204;6,19
212,473;5,97
212,742;5,78
213,012;5,66
213,281;5,86
213,55;5,96
213,819;5,96
214,088;5,79
214,358;5,73
214,627;6,01
214,896;5,73
215,165;5,55
215,434;5,44
215,703;5,32
215,972;5,17
216,241;5,32
216,51;5,06
216,779;4,89
217,048;4,96
217,317;4,75
217,586;4,56
217,855;4,47
218,124;4,38
218,393;4,33
218,662;4,35
218,931;4,18
219,2;4,02
219,469;3,94
219,738;3,82
220,006;3,84
220,275;3,74
220,544;3,81
220,813;3,92
221,082;4,02
221,35;3,95
221,619;4,03
221,888;3,94
222,157;4,07
222,425;4,15
222,694;4
222,963;4,16
223,231;4,12
223,5;4,03
223,769;4,05
224,037;4,14
224,306;4,08
224,574;4,15
224,843;4,18
225,111;4,09
225,38;4,13
225,648;4,05
225,917;3,95
226,185;3,97
226,454;3,91
226,722;3,95
226,991;3,95
227,259;3,81
227,528;3,77
227,796;3,73
228,064;3,59
228,333;3,66
228,601;3,58
228,869;3,57
229,138;3,54
229,406;3,51
229,674;3,43
229,942;3,39
230,211;3,42
230,479;3,39
230,747;3,43
231,015;3,37
231,283;3,44
231,552;3,46
231,82;3,44
232,088;3,46
232,356;3,51
232,624;3,53
232,892;3,55
233,16;3,57
233,428;3,53
233,696;3,61
233,964;3,58
234,232;3,61
234,5;3,6
234,768;3,61
235,036;3,65
235,304;3,7
235,572;3,7
235,84;3,64
236,108;3,61
236,376;3,59
236,644;3,59
236,912;3,56
237,179;3,56
237,447;3,53
237,715;3,47
237,983;3,38
238,251;3,35
238,518;3,35
238,786;3,37
239,054;3,36
239,322;3,38
239,589;3,37
239,857;3,35
240,125;3,34
240,392;3,31
240,66;3,3
240,927;3,24
241,195;3,24
241,463;3,23
241,73;3,21
241,998;3,19
242,265;3,2
242,533;3,2
242,8;3,19
243,068;3,2
243,335;3,22
243,603;3,18
243,87;3,21
244,138;3,21
244,405;3,19
244,672;3,19
244,94;3,12
245,207;3,12
245,474;3,13
245,742;3,12
246,009;3,12
246,276;3,12
246,544;3,12
246,811;3,12
247,078;3,13
247,345;3,18
247,613;3,17
247,88;3,15
248,147;3,14
248,414;3,15
248,681;3,14
248,948;3,19
249,215;3,21
249,483;3,17
249,75;3,15
250,017;3,11
250,284;3,09
250,551;3,09
250,818;3,11
251,085;3,08
251,352;3,06
251,619;3,06
251,886;3,05
252,153;3,05
252,42;3,04
252,687;3,01
252,953;3
253,22;2,99
253,487;3,01
253,754;3
254,021;2,97
254,288;2,99
254,555;2,95
254,821;2,97
255,088;2,97
255,355;2,97
255,622;2,98
255,888;2,98
256,155;2,97
256,422;2,95
256,688;2,96
256,955;2,98
257,222;3
257,488;3,01
257,755;3,02
258,022;3,02
258,288;3,01
258,555;3,01
258,821;3,01
259,088;3,01
259,354;3,01
259,621;2,99
259,887;3
260,154;3,01
260,42;2,97
260,687;2,98
260,953;2,98
261,219;3
261,486;2,98
261,752;3,02
262,019;3,03
262,285;2,98
262,551;2,97
262,818;2,97
263,084;2,96
263,35;2,94
263,616;2,93
263,883;2,94
264,149;2,94
264,415;2,98
264,681;2,96
264,947;2,98
265,214;2,98
265,48;2,97
265,746;2,98
266,012;3,03
266,278;3,01
266,544;3,02
266,81;3,03
267,076;3,07
267,342;3,03
267,608;3,03
267,874;3,05
268,14;3,1
268,406;3,08
268,672;3,07
268,938;3,06
269,204;3,06
269,47;3,09
269,736;3,07
270,002;3,04
270,268;3,06
270,533;3,06
270,799;3,09
271,065;3,08
271,331;3,07
271,597;3,08
271,862;3,1
272,128;3,07
272,394;3,06
272,66;3,05
272,925;3,05
273,191;3,03
273,457;3,08
273,722;3,04
273,988;3,06
274,254;3,06
274,519;3,11
274,785;3,11
275,05;3,07
275,316;3,1
275,582;3,11
275,847;3,11
276,113;3,08
276,378;3,09
276,644;3,09
276,909;3,07
277,174;3,08
277,44;3,11
277,705;3,12
277,971;3,12
278,236;3,14
278,501;3,16
278,767;3,17
279,032;3,18
279,297;3,19
279,563;3,17
279,828;3,2
280,093;3,18
280,358;3,19
280,624;3,22
280,889;3,21
281,154;3,22
281,419;3,23
281,684;3,25
281,95;3,24
282,215;3,26
282,48;3,28
282,745;3,28
283,01;3,26
283,275;3,28
283,54;3,29
283,805;3,28
284,07;3,29
284,335;3,26
284,6;3,24
284,865;3,24
285,13;3,25
285,395;3,27
285,66;3,3
285,925;3,32
286,19;3,37
286,455;3,36
286,72;3,39
286,985;3,4
287,249;3,4
287,514;3,43
287,779;3,42
288,044;3,44
288,309;3,43
288,573;3,45
288,838;3,47
289,103;3,49
289,367;3,51
289,632;3,54
289,897;3,57
290,161;3,6
290,426;3,63
290,691;3,68
290,955;3,66
291,22;3,65
291,484;3,64
291,749;3,6
292,014;3,6
292,278;3,61
292,543;3,62
292,807;3,66
293,072;3,66
293,336;3,66
293,6;3,66
293,865;3,68
294,129;3,68
294,394;3,7
294,658;3,7
294,922;3,69
295,187;3,7
295,451;3,71
295,715;3,71
295,98;3,72
296,244;3,71
296,508;3,72
296,773;3,76
297,037;3,8
297,301;3,82
297,565;3,85
297,829;3,85
298,094;3,88
298,358;3,87
298,622;3,9
298,886;3,93
299,15;3,97
299,414;4
299,678;4,03
299,942;4,02
300,206;4,05
300,47;4,07
300,734;4,08
300,998;4,09
301,262;4,12
301,526;4,12
301,79;4,14
302,054;4,16
302,318;4,15
302,582;4,18
302,846;4,19
303,11;4,21
303,374;4,22
303,637;4,24
303,901;4,25
304,165;4,27
304,429;4,29
304,693;4,28
304,956;4,29
305,22;4,33
305,484;4,37
305,747;4,37
306,011;4,38
306,275;4,36
306,538;4,4
306,802;4,43
307,066;4,45
307,329;4,48
307,593;4,5
307,856;4,49
308,12;4,5
308,384;4,53
308,647;4,56
308,911;4,58
309,174;4,6
309,438;4,61
309,701;4,61
309,964;4,6
310,228;4,59
310,491;4,61
310,755;4,61
311,018;4,62
311,281;4,65
311,545;4,67
311,808;4,7
312,071;4,69
312,335;4,65
312,598;4,67
312,861;4,69
313,124;4,7
313,388;4,77
313,651;4,75
313,914;4,76
314,177;4,73
314,44;4,73
314,704;4,7
314,967;4,72
315,23;4,75
315,493;4,77
315,756;4,79
316,019;4,8
316,282;4,81
316,545;4,8
316,808;4,82
317,071;4,83
317,334;4,86
317,597;4,9
317,86;4,93
318,123;4,93
318,386;4,9
318,649;4,91
318,912;4,91
319,175;4,92
319,437;4,91
319,7;4,94
319,963;4,97
320,226;5
320,489;5,02
320,751;5,02
321,014;5,04
321,277;5,04
321,54;5,01
321,802;5
322,065;5
322,328;4,98
322,59;4,96
322,853;4,94
323,116;4,93
323,378;4,93
323,641;4,91
323,903;4,92
324,166;4,91
324,428;4,87
324,691;4,9
324,953;4,89
325,216;4,89
325,478;4,88
325,741;4,86
326,003;4,86
326,266;4,84
326,528;4,81
326,791;4,82
327,053;4,85
327,315;4,85
327,578;4,88
327,84;4,87
328,102;4,87
328,365;4,89
328,627;4,84
328,889;4,85
329,151;4,87
329,414;4,91
329,676;4,88
329,938;4,89
330,2;4,85
330,462;4,86
330,725;4,82
330,987;4,81
331,249;4,81
331,511;4,8
331,773;4,84
332,035;4,86
332,297;4,86
332,559;4,84
332,821;4,81
333,083;4,77
333,345;4,77
333,607;4,79
333,869;4,81
334,131;4,82
334,393;4,86
334,655;4,8
334,917;4,76
335,179;4,76
335,44;4,79
335,702;4,83
335,964;4,81
336,226;4,85
336,488;4,85
336,749;4,83
337,011;4,83
337,273;4,81
337,535;4,78
337,796;4,73
338,058;4,74
338,32;4,74
338,581;4,76
338,843;4,72
339,105;4,74
339,366;4,72
339,628;4,74
339,889;4,68
340,151;4,71
340,412;4,69
340,674;4,69
340,935;4,66
341,197;4,67
341,458;4,67
341,72;4,66
341,981;4,65
342,243;4,66
342,504;4,67
342,766;4,67
343,027;4,67
343,288;4,69
343,55;4,7
343,811;4,73
344,072;4,69
344,334;4,7
344,595;4,66
344,856;4,67
345,117;4,69
345,379;4,69
345,64;4,72
345,901;4,74
346,162;4,75
346,423;4,77
346,684;4,73
346,946;4,76
347,207;4,75
347,468;4,78
347,729;4,75
347,99;4,75
348,251;4,73
348,512;4,72
348,773;4,69
349,034;4,69
349,295;4,69
349,556;4,76
349,817;4,79
350,078;4,81
350,339;4,81
350,6;4,79
350,86;4,83
351,121;4,82
351,382;4,83
351,643;4,8
351,904;4,78
352,165;4,77
352,425;4,74
352,686;4,76
352,947;4,7
353,208;4,73
353,468;4,71
353,729;4,73
353,99;4,8
354,25;4,83
354,511;4,8
354,772;4,77
355,032;4,77
355,293;4,76
355,553;4,75
355,814;4,74
356,074;4,71
356,335;4,66
356,596;4,69
356,856;4,69
357,116;4,72
357,377;4,73
357,637;4,72
357,898;4,7
358,158;4,67
358,419;4,67
358,679;4,66
358,939;4,65
359,2;4,62
359,46;4,59
359,72;4,57
359,981;4,58
360,241;4,54
360,501;4,49
360,761;4,52
361,022;4,5
361,282;4,46
361,542;4,48
361,802;4,49
362,062;4,42
362,323;4,38
362,583;4,38
362,843;4,35
363,103;4,37
363,363;4,37
363,623;4,36
363,883;4,42
364,143;4,44
364,403;4,44
364,663;4,43
364,923;4,45
365,183;4,47
365,443;4,51
365,703;4,53
365,963;4,55
366,223;4,55
366,483;4,55
366,743;4,58
367,002;4,58
367,262;4,55
367,522;4,58
367,782;4,59
368,042;4,6
368,301;4,6
368,561;4,58
368,821;4,6
369,081;4,63
369,34;4,6
369,6;4,57
369,86;4,57
370,119;4,57
370,379;4,59
370,638;4,61
370,898;4,55
371,158;4,53
371,417;4,52
371,677;4,49
371,936;4,5
372,196;4,48
372,455;4,49
372,715;4,55
372,974;4,56
373,234;4,56
373,493;4,62
373,753;4,66
374,012;4,67
374,271;4,67
374,531;4,67
374,79;4,72
375,049;4,8
375,309;4,81
375,568;4,79
375,827;4,74
376,086;4,71
376,346;4,75
376,605;4,79
376,864;4,8
377,123;4,81
377,383;4,8
377,642;4,87
377,901;4,87
378,16;4,84
378,419;4,85
378,678;4,86
378,937;4,8
379,196;4,8
379,455;4,83
379,714;4,87
379,973;4,91
380,232;4,87
380,491;4,84
380,75;4,87
381,009;4,88
381,268;4,91
381,527;4,92
381,786;4,92
382,045;4,97
382,304;4,99
382,563;5,03
382,821;5,08
383,08;5,06
383,339;5,1
383,598;5,18
383,857;5,17
384,115;5,17
384,374;5,18
384,633;5,21
384,891;5,2
385,15;5,18
385,409;5,18
385,667;5,18
385,926;5,17
386,185;5,16
386,443;5,2
386,702;5,22
386,96;5,24
387,219;5,24
387,477;5,2
387,736;5,18
387,994;5,18
388,253;5,17
388,511;5,17
388,77;5,14
389,028;5,13
389,287;5,13
389,545;5,14
389,803;5,13
390,062;5,12
390,32;5,13
390,578;5,17
390,837;5,17
391,095;5,2
391,353;5,26
391,612;5,26
391,87;5,29
392,128;5,29
392,386;5,3
392,644;5,33
392,903;5,36
393,161;5,36
393,419;5,34
393,677;5,34
393,935;5,37
394,193;5,4
394,451;5,39
394,709;5,35
394,967;5,38
395,225;5,43
395,483;5,44
395,741;5,47
395,999;5,49
396,257;5,48
396,515;5,5
396,773;5,47
397,031;5,49
397,289;5,49
397,547;5,48
397,805;5,51
398,062;5,52
398,32;5,5
398,578;5,56
398,836;5,52
399,094;5,52
399,351;5,5
399,609;5,49
399,867;5,48
400,124;5,58
400,382;5,63
400,64;5,64
400,897;5,65
401,155;5,65
401,413;5,61
401,67;5,64
401,928;5,65
402,185;5,65
402,443;5,69
402,701;5,66
402,958;5,66
403,216;5,62
403,473;5,65
403,73;5,65
403,988;5,64
404,245;5,68
404,503;5,68
404,76;5,66
405,018;5,65
405,275;5,67
405,532;5,7
405,79;5,67
406,047;5,64
406,304;5,63
406,561;5,65
406,819;5,71
407,076;5,66
407,333;5,68
407,59;5,72
407,848;5,69
408,105;5,73
408,362;5,81
408,619;5,88
408,876;5,82
409,133;5,87
409,39;5,89
409,647;5,97
409,904;5,97
410,161;6,03
410,418;6,06
410,675;6,05
410,932;5,99
411,189;6
411,446;6,02
411,703;5,99
411,96;5,98
412,217;5,93
412,474;5,94
412,731;5,94
412,988;5,94
413,245;6,02
413,501;6,01
413,758;5,97
414,015;5,91
414,272;5,95
414,529;6
414,785;6,01
415,042;6,02
415,299;6,08
415,555;6,08
415,812;6,08
416,069;6,13
416,325;6,15
416,582;6,17
416,838;6,27
417,095;6,32
417,352;6,32
417,608;6,39
417,865;6,42
418,121;6,47
418,378;6,48
418,634;6,44
418,891;6,52
419,147;6,54
419,403;6,61
419,66;6,6
419,916;6,59
420,173;6,6
420,429;6,62
420,685;6,64
420,942;6,68
421,198;6,68
421,454;6,71
421,711;6,71
421,967;6,73
422,223;6,67
422,479;6,7
422,735;6,76
422,992;6,77
423,248;6,73
423,504;6,72
423,76;6,75
424,016;6,76
424,272;6,77
424,528;6,76
424,784;6,75
425,041;6,78
425,297;6,82
425,553;6,86
425,809;6,88
426,065;6,84
426,32;6,85
426,576;6,91
426,832;6,9
427,088;6,94
427,344;6,95
427,6;7,03
427,856;7
428,112;6,99
428,368;6,95
428,623;7,05
428,879;7,04
429,135;7,02
429,391;7,06
429,646;7,1
429,902;7,19
430,158;7,23
430,414;7,24
430,669;7,23
430,925;7,21
431,181;7,18
431,436;7,27
431,692;7,25
431,947;7,3
432,203;7,28
432,458;7,28
432,714;7,29
432,97;7,31
433,225;7,36
433,481;7,37
433,736;7,43
433,991;7,44
434,247;7,48
434,502;7,49
434,758;7,51
435,013;7,47
435,268;7,42
435,524;7,42
435,779;7,42
436,034;7,46
436,29;7,48
436,545;7,48
436,8;7,5
437,056;7,54
437,311;7,53
437,566;7,54
437,821;7,57
438,076;7,61
438,331;7,62
438,587;7,66
438,842;7,68
439,097;7,73
439,352;7,76
439,607;7,76
439,862;7,81
440,117;7,84
440,372;7,85
440,627;7,87
440,882;7,87
441,137;7,96
441,392;7,95
441,647;7,98
441,902;8,05
442,157;8,04
442,412;8,08
442,667;8,09
442,921;8,12
443,176;8,16
443,431;8,17
443,686;8,18
443,941;8,18
444,195;8,19
444,45;8,14
444,705;8,16
444,96;8,22
445,214;8,19
445,469;8,19
445,724;8,2
445,978;8,23
446,233;8,27
446,487;8,23
446,742;8,24
446,997;8,23
447,251;8,22
447,506;8,24
447,76;8,24
448,015;8,26
448,269;8,35
448,524;8,34
448,778;8,33
449,033;8,3
449,287;8,3
449,541;8,34
449,796;8,4
450,05;8,46
450,305;8,46
450,559;8,51
450,813;8,54
451,067;8,58
451,322;8,58
451,576;8,58
451,83;8,66
452,084;8,72
452,339;8,77
452,593;8,8
452,847;8,79
453,101;8,77
453,355;8,82
453,609;8,76
453,864;8,76
454,118;8,77
454,372;8,84
454,626;8,89
454,88;8,92
455,134;8,91
455,388;8,88
455,642;8,89
455,896;8,96
456,15;8,93
456,404;8,98
456,658;9
456,912;9,01
457,165;8,94
457,419;8,93
457,673;8,93
457,927;8,88
458,181;8,95
458,435;8,97
458,688;8,94
458,942;8,97
459,196;8,98
459,45;9
459,703;8,97
459,957;8,92
460,211;8,93
460,464;8,99
460,718;8,97
460,972;9
461,225;8,97
461,479;9
461,732;8,99
461,986;8,97
462,239;9
462,493;9,08
462,746;9,11
463;9,12
463,253;9,21
463,507;9,17
463,76;9,24
464,014;9,29
464,267;9,32
464,52;9,4
464,774;9,43
465,027;9,49
465,28;9,55
465,534;9,53
465,787;9,55
466,04;9,61
466,294;9,59
466,547;9,61
466,8;9,65
467,053;9,63
467,306;9,7
467,56;9,76
467,813;9,76
468,066;9,77
468,319;9,79
468,572;9,77
468,825;9,84
469,078;9,83
469,331;9,85
469,584;9,87
469,837;9,85
470,09;9,92
470,343;9,91
470,596;9,93
470,849;10,01
471,102;9,97
471,355;9,98
471,608;10,05
471,861;10,11
472,114;10,13
472,367;10,19
472,619;10,21
472,872;10,17
473,125;10,18
473,378;10,19
473,631;10,24
473,883;10,25
474,136;10,23
474,389;10,28
474,641;10,27
474,894;10,3
475,147;10,34
475,399;10,3
475,652;10,33
475,905;10,35
476,157;10,35
476,41;10,42
476,662;10,43
476,915;10,44
477,167;10,44
477,42;10,48
477,672;10,51
477,925;10,55
478,177;10,6
478,43;10,63
478,682;10,65
478,934;10,64
479,187;10,68
479,439;10,7
479,691;10,7
479,944;10,73
480,196;10,78
480,448;10,81
480,701;10,84
480,953;10,87
481,205;10,87
481,457;10,9
481,709;10,9
481,962;10,96
482,214;11,01
482,466;11,09
482,718;11,15
482,97;11,22
483,222;11,28
483,474;11,36
483,726;11,43
483,978;11,5
484,23;11,53
484,482;11,56
484,734;11,59
484,986;11,61
485,238;11,63
485,49;11,61
485,742;11,63
485,994;11,68
486,246;11,68
486,498;11,7
486,75;11,7
487,001;11,72
487,253;11,72
487,505;11,72
487,757;11,69
488,009;11,65
488,26;11,64
488,512;11,63
488,764;11,57
489,015;11,57
489,267;11,55
489,519;11,53
489,77;11,54
490,022;11,55
490,274;11,55
490,525;11,6
490,777;11,6
491,028;11,59
491,28;11,57
491,531;11,6
491,783;11,62
492,034;11,66
492,286;11,65
492,537;11,68
492,789;11,68
493,04;11,71
493,291;11,73
493,543;11,73
493,794;11,74
494,045;11,78
494,297;11,76
494,548;11,77
494,799;11,77
495,051;11,8
495,302;11,82
495,553;11,86
495,804;11,85
496,056;11,88
496,307;11,9
496,558;11,95
496,809;11,96
497,06;11,96
497,311;11,96
497,562;11,99
497,813;11,99
498,064;12,05
498,316;12,07
498,567;12,09
498,818;12,1
499,069;12,11
499,319;12,11
499,57;12,14
499,821;12,15
500,072;12,18
500,323;12,19
500,574;12,2
500,825;12,19
501,076;12,21
501,327;12,24
501,577;12,26
501,828;12,23
502,079;12,27
502,33;12,3
502,58;12,32
502,831;12,34
503,082;12,34
503,333;12,36
503,583;12,36
503,834;12,37
504,084;12,4
504,335;12,39
504,586;12,41
504,836;12,42
505,087;12,45
505,337;12,48
505,588;12,48
505,838;12,51
506,089;12,53
506,339;12,56
506,59;12,57
506,84;12,55
507,091;12,63
507,341;12,64
507,591;12,67
507,842;12,69
508,092;12,71
508,343;12,77
508,593;12,78
508,843;12,81
509,093;12,82
509,344;12,84
509,594;12,89
509,844;12,9
510,094;12,93
510,345;12,93
510,595;12,94
510,845;12,97
511,095;12,97
511,345;13
511,595;13,02
511,845;13,03
512,095;13,08
512,345;13,06
512,595;13,08
512,845;13,1
513,095;13,12
513,345;13,12
513,595;13,14
513,845;13,14
514,095;13,14
514,345;13,16
514,595;13,17
514,845;13,18
515,095;13,18
515,345;13,2
515,594;13,25
515,844;13,27
516,094;13,3
516,344;13,33
516,593;13,33
516,843;13,32
517,093;13,36
517,343;13,37
517,592;13,42
517,842;13,44
518,092;13,46
518,341;13,46
518,591;13,52
518,84;13,54
519,09;13,58
519,34;13,62
519,589;13,65
519,839;13,69
520,088;13,7
520,338;13,74
520,587;13,74
520,836;13,75
521,086;13,76
521,335;13,78
521,585;13,79
521,834;13,81
522,083;13,85
522,333;13,87
522,582;13,9
522,831;13,93
523,081;13,95
523,33;13,96
523,579;14,01
523,828;14,01
524,078;14,01
524,327;14,02
524,576;14,03
524,825;14,05
525,074;14,07
525,323;14,12
525,573;14,12
525,822;14,19
526,071;14,23
526,32;14,28
526,569;14,28
526,818;14,31
527,067;14,35
527,316;14,37
527,565;14,41
527,814;14,44
528,063;14,44
528,312;14,46
528,56;14,49
528,809;14,5
529,058;14,54
529,307;14,58
529,556;14,6
529,805;14,63
530,053;14,67
530,302;14,7
530,551;14,71
530,8;14,75
531,048;14,77
531,297;14,8
531,546;14,81
531,794;14,87
532,043;14,9
532,292;14,93
532,54;14,97
532,789;15
533,037;15,01
533,286;15,02
533,535;15,04
533,783;15,08
534,032;15,1
534,28;15,11
534,528;15,14
534,777;15,18
535,025;15,2
535,274;15,24
535,522;15,26
535,771;15,28
536,019;15,31
536,267;15,33
536,516;15,36
536,764;15,39
537,012;15,42
537,26;15,44
537,509;15,45
537,757;15,47
538,005;15,49
538,253;15,51
538,501;15,55
538,75;15,56
538,998;15,59
539,246;15,62
539,494;15,66
539,742;15,67
539,99;15,69
540,238;15,71
540,486;15,7
540,734;15,69
540,982;15,73
541,23;15,74
541,478;15,75
541,726;15,76
541,974;15,78
542,222;15,8
542,47;15,84
542,718;15,84
542,966;15,86
543,213;15,86
543,461;15,88
543,709;15,91
543,957;15,93
544,205;15,94
544,452;15,97
544,7;15,95
544,948;15,99
545,196;16
545,443;16,04
545,691;16,07
545,939;16,13
546,186;16,16
546,434;16,19
546,681;16,19
546,929;16,2
547,176;16,22
547,424;16,23
547,671;16,22
547,919;16,27
548,166;16,26
548,414;16,29
548,661;16,33
548,909;16,35
549,156;16,36
549,404;16,38
549,651;16,39
549,898;16,41
550,146;16,42
550,393;16,47
550,64;16,48
550,888;16,49
551,135;16,5
551,382;16,5
551,629;16,51
551,876;16,55
552,124;16,59
552,371;16,61
552,618;16,61
552,865;16,65
553,112;16,63
553,359;16,67
553,606;16,67
553,854;16,69
554,101;16,68
554,348;16,71
554,595;16,74
554,842;16,76
555,089;16,77
555,336;16,8
555,582;16,78
555,829;16,79
556,076;16,79
556,323;16,79
556,57;16,79
556,817;16,8
557,064;16,8
557,311;16,8
557,557;16,77
557,804;16,8
558,051;16,78
558,298;16,82
558,544;16,81
558,791;16,83
559,038;16,81
559,284;16,82
559,531;16,81
559,778;16,79
560,024;16,78
560,271;16,79
560,517;16,77
560,764;16,78
561,011;16,78
561,257;16,79
561,504;16,79
561,75;16,8
561,997;16,79
562,243;16,79
562,489;16,75
562,736;16,77
562,982;16,77
563,229;16,8
563,475;16,79
563,721;16,81
563,968;16,81
564,214;16,85
564,46;16,85
564,707;16,85
564,953;16,84
565,199;16,86
565,445;16,86
565,691;16,89
565,938;16,89
566,184;16,9
566,43;16,92
566,676;16,93
566,922;16,95
567,168;16,97
567,414;17
567,66;17,02
567,906;17,05
568,152;17,05
568,398;17,08
568,644;17,1
568,89;17,1
569,136;17,12
569,382;17,13
569,628;17,15
569,874;17,16
570,12;17,19
570,366;17,19
570,612;17,22
570,857;17,19
571,103;17,19
571,349;17,21
571,595;17,22
571,84;17,21
572,086;17,22
572,332;17,24
572,578;17,22
572,823;17,24
573,069;17,24
573,315;17,24
573,56;17,23
573,806;17,21
574,051;17,21
574,297;17,22
574,542;17,21
574,788;17,22
575,034;17,21
575,279;17,2
575,524;17,2
575,77;17,2
576,015;17,21
576,261;17,21
576,506;17,21
576,752;17,21
576,997;17,21
577,242;17,18
577,488;17,17
577,733;17,16
577,978;17,16
578,223;17,16
578,469;17,17
578,714;17,16
578,959;17,16
579,204;17,15
579,45;17,13
579,695;17,12
579,94;17,11
580,185;17,1
580,43;17,09
580,675;17,08
580,92;17,07
581,165;17,04
581,41;17,03
581,655;17,02
581,9;16,99
582,145;16,99
582,39;16,98
582,635;16,98
582,88;16,97
583,125;16,96
583,37;16,94
583,615;16,89
583,86;16,86
584,105;16,84
584,349;16,82
584,594;16,78
584,839;16,77
585,084;16,75
585,328;16,74
585,573;16,72
585,818;16,71
586,063;16,67
586,307;16,67
586,552;16,65
586,797;16,61
587,041;16,59
587,286;16,55
587,53;16,5
587,775;16,48
588,019;16,45
588,264;16,43
588,508;16,4
588,753;16,42
588,997;16,39
589,242;16,35
589,486;16,33
589,731;16,32
589,975;16,3
590,22;16,27
590,464;16,24
590,708;16,24
590,953;16,21
591,197;16,2
591,441;16,15
591,685;16,15
591,93;16,14
592,174;16,12
592,418;16,13
592,662;16,13
592,907;16,11
593,151;16,09
593,395;16,05
593,639;16,01
593,883;15,98
594,127;15,96
594,371;15,96
594,615;15,95
594,859;15,94
595,103;15,93
595,347;15,91
595,591;15,89
595,835;15,85
596,079;15,84
596,323;15,82
596,567;15,81
596,811;15,78
597,055;15,75
597,299;15,74
597,542;15,7
597,786;15,67
598,03;15,68
598,274;15,66
598,518;15,65
598,761;15,65
599,005;15,63
599,249;15,63
599,492;15,62
599,736;15,6
599,98;15,59
600,223;15,55
600,467;15,55
600,711;15,52
600,954;15,52
601,198;15,49
601,441;15,48
601,685;15,47
601,928;15,46
602,172;15,45
602,415;15,44
602,659;15,42
602,902;15,41
603,145;15,38
603,389;15,37
603,632;15,35
603,876;15,34
604,119;15,33
604,362;15,31
604,606;15,27
604,849;15,25
605,092;15,22
605,335;15,22
605,579;15,18
605,822;15,17
606,065;15,13
606,308;15,12
606,551;15,11
606,794;15,1
607,037;15,08
607,281;15,08
607,524;15,06
607,767;15,05
608,01;15,02
608,253;14,99
608,496;14,98
608,739;14,98
608,982;14,96
609,225;14,95
609,468;14,92
609,711;14,92
609,953;14,9
610,196;14,9
610,439;14,86
610,682;14,84
610,925;14,81
611,168;14,81
611,41;14,78
611,653;14,74
611,896;14,72
612,139;14,7
612,381;14,67
612,624;14,65
612,867;14,62
613,109;14,61
613,352;14,58
613,595;14,57
613,837;14,53
614,08;14,51
614,322;14,48
614,565;14,47
614,807;14,44
615,05;14,42
615,292;14,39
615,535;14,39
615,777;14,37
616,02;14,37
616,262;14,34
616,505;14,35
616,747;14,34
616,989;14,34
617,232;14,32
617,474;14,32
617,716;14,31
617,959;14,31
618,201;14,31
618,443;14,3
618,685;14,28
618,927;14,26
619,17;14,23
619,412;14,25
619,654;14,23
619,896;14,23
620,138;14,22
620,38;14,22
620,622;14,21
620,864;14,23
621,107;14,21
621,349;14,21
621,591;14,19
621,833;14,2
622,075;14,18
622,316;14,19
622,558;14,18
622,8;14,18
623,042;14,16
623,284;14,15
623,526;14,13
623,768;14,13
624,01;14,13
624,251;14,15
624,493;14,12
624,735;14,1
624,977;14,09
625,218;14,08
625,46;14,06
625,702;14,04
625,943;14,01
626,185;14
626,427;13,97
626,668;13,97
626,91;13,93
627,152;13,9
627,393;13,86
627,635;13,81
627,876;13,77
628,118;13,76
628,359;13,74
628,601;13,74
628,842;13,71
629,084;13,69
629,325;13,63
629,566;13,61
629,808;13,63
630,049;13,59
630,29;13,55
630,532;13,53
630,773;13,51
631,014;13,51
631,256;13,49
631,497;13,49
631,738;13,45
631,979;13,45
632,22;13,45
632,462;13,45
632,703;13,46
632,944;13,45
633,185;13,42
633,426;13,42
633,667;13,4
633,908;13,37
634,149;13,33
634,39;13,33
634,631;13,31
634,872;13,28
635,113;13,27
635,354;13,26
635,595;13,24
635,836;13,25
636,077;13,2
636,318;13,19
636,559;13,17
636,8;13,17
637,04;13,14
637,281;13,1
637,522;13,08
637,763;13,07
638,003;13,05
638,244;13,03
638,485;13,01
638,726;13
638,966;12,99
639,207;13,02
639,448;13
639,688;12,99
639,929;12,98
640,169;12,99
640,41;12,96
640,65;12,96
640,891;12,92
641,131;12,95
641,372;12,94
641,612;12,92
641,853;12,89
642,093;12,91
642,334;12,93
642,574;12,88
642,814;12,87
643,055;12,86
643,295;12,87
643,535;12,85
643,776;12,82
644,016;12,81
644,256;12,79
644,496;12,78
644,737;12,79
644,977;12,78
645,217;12,77
645,457;12,81
645,697;12,8
645,938;12,81
646,178;12,79
646,418;12,79
646,658;12,79
646,898;12,79
647,138;12,77
647,378;12,76
647,618;12,75
647,858;12,76
648,098;12,77
648,338;12,74
648,578;12,74
648,818;12,75
649,057;12,73
649,297;12,73
649,537;12,73
649,777;12,72
650,017;12,7
650,257;12,68
650,496;12,64
650,736;12,64
650,976;12,63
661,028;12,3
661,267;12,27
661,506;12,23
661,744;12,21
661,983;12,23
662,222;12,2
662,461;12,19
662,7;12,18
662,939;12,16
663,177;12,12
663,416;12,1
663,655;12,08
663,894;12,05
664,132;12,07
664,371;12,05
664,61;12,04
664,848;12,06
665,087;12,05
665,326;12,05
665,564;12,04
665,803;12,04
666,041;12,03
666,28;12,02
666,518;12,01
666,757;12,02
666,995;12
667,234;12,02
667,472;12,02
667,711;12,03
667,949;12,03
668,187;12,03
668,426;12,03
668,664;12,05
668,902;12,07
669,141;12,04
669,379;12,05
669,617;12,04
669,856;12,02
670,094;12,02
670,332;12,01
670,57;12
670,808;11,96
671,046;11,96
671,285;11,96
671,523;11,95
671,761;11,94
671,999;11,92
672,237;11,92
672,475;11,92
672,713;11,89
672,951;11,89
673,189;11,89
673,427;11,89
673,665;11,89
673,903;11,85
674,141;11,85
674,379;11,83
674,617;11,84
674,854;11,84
675,092;11,83
675,33;11,83
675,568;11,83
675,806;11,84
676,043;11,83
676,281;11,84
676,519;11,84
676,756;11,82
676,994;11,81
677,232;11,8
677,469;11,79
677,707;11,8
677,945;11,78
678,182;11,78
678,42;11,77
678,657;11,76
678,895;11,77
679,132;11,76
679,37;11,75
679,607;11,72
679,845;11,71
680,082;11,69
680,32;11,67
680,557;11,66
680,794;11,67
681,032;11,66
681,269;11,64
681,507;11,63
681,744;11,63
681,981;11,66
682,218;11,63
682,456;11,61
682,693;11,58
682,93;11,57
683,167;11,55
683,404;11,55
683,642;11,56
683,879;11,55
684,116;11,57
684,353;11,57
684,59;11,56
684,827;11,55
685,064;11,55
685,301;11,54
685,538;11,55
685,775;11,52
686,012;11,52
686,249;11,51
686,486;11,5
686,723;11,5
686,96;11,46
687,197;11,45
687,433;11,44
687,67;11,47
687,907;11,44
688,144;11,42
688,381;11,39
688,617;11,36
688,854;11,36
689,091;11,34
689,327;11,36
689,564;11,35
689,801;11,35
690,037;11,34
690,274;11,33
690,511;11,31
690,747;11,32
690,984;11,29
691,22;11,3
691,457;11,27
691,693;11,27
691,93;11,27
692,166;11,28
692,403;11,29
692,639;11,28
692,876;11,3
693,112;11,31
693,348;11,3
693,585;11,3
693,821;11,29
694,057;11,28
694,294;11,25
694,53;11,23
694,766;11,22
695,002;11,21
695,239;11,22
695,475;11,22
695,711;11,21
695,947;11,21
696,183;11,19
696,419;11,22
696,656;11,21
696,892;11,2
697,128;11,18
697,364;11,15
697,6;11,11
697,836;11,09
698,072;11,09
698,308;11,11
698,544;11,11
698,78;11,1
699,016;11,09
699,251;11,07
699,487;11,07
699,723;11,07
699,959;11,09
700,195;11,06
700,431;11,06
700,666;11,03
700,902;11,03
701,138;11,03
701,374;11,02
701,609;10,99
701,845;10,98
702,081;10,98
702,316;10,97
702,552;10,99
702,788;10,98
703,023;11
703,259;10,98
703,494;10,98
703,73;10,99
703,965;10,97
704,201;10,98
704,436;10,98
704,672;10,97
704,907;10,98
705,143;10,98
705,378;10,96
705,613;10,96
705,849;10,95
706,084;10,94
706,319;10,9
706,555;10,91
706,79;10,92
707,025;10,92
707,26;10,95
707,496;10,95
707,731;10,95
707,966;10,92
708,201;10,92
708,436;10,91
708,671;10,87
708,907;10,87
709,142;10,85
709,377;10,84
709,612;10,85
709,847;10,84
710,082;10,82
710,317;10,82
710,552;10,83
710,787;10,82
711,022;10,82
711,257;10,83
711,492;10,81
711,726;10,81
711,961;10,82
712,196;10,8
712,431;10,79
712,666;10,77
712,901;10,77
713,135;10,74
713,37;10,73
713,605;10,73
713,839;10,76
714,074;10,77
714,309;10,77
714,543;10,73
714,778;10,71
715,013;10,7
715,247;10,7
715,482;10,71
715,716;10,7
715,951;10,7
716,185;10,7
716,42;10,68
716,654;10,64
716,889;10,63
717,123;10,6
717,358;10,59
717,592;10,56
717,827;10,55
718,061;10,56
718,295;10,53
718,53;10,54
718,764;10,51
718,998;10,49
719,232;10,49
719,467;10,51
719,701;10,52
719,935;10,53
720,169;10,54
720,403;10,48
720,638;10,5
720,872;10,47
721,106;10,46
721,34;10,46
721,574;10,47
721,808;10,46
722,042;10,47
722,276;10,45
722,51;10,48
722,744;10,49
722,978;10,48
723,212;10,51
723,446;10,5
723,68;10,51
723,914;10,52
724,147;10,52
724,381;10,5
724,615;10,5
724,849;10,47
725,083;10,45
725,316;10,45
725,55;10,42
725,784;10,45
726,018;10,45
726,251;10,45
726,485;10,48
726,719;10,45
726,952;10,46
727,186;10,49
727,419;10,48
727,653;10,46
727,887;10,47
728,12;10,45
728,354;10,43
728,587;10,41
728,821;10,38
729,054;10,37
729,287;10,36
729,521;10,35
729,754;10,38
729,988;10,37
730,221;10,4
730,454;10,39
730,688;10,4
730,921;10,41
731,154;10,39
731,387;10,37
731,621;10,4
731,854;10,38
732,087;10,36
732,32;10,36
732,553;10,36
732,787;10,36
733,02;10,37
733,253;10,37
733,486;10,37
733,719;10,37
733,952;10,38
734,185;10,38
734,418;10,39
734,651;10,36
734,884;10,38
735,117;10,36
735,35;10,35
735,583;10,35
735,816;10,34
736,049;10,34
736,281;10,31
736,514;10,3
736,747;10,32
736,98;10,33
737,213;10,32
737,445;10,3
737,678;10,29
737,911;10,26
738,144;10,29
738,376;10,3
738,609;10,33
738,842;10,3
739,074;10,32
739,307;10,3
739,539;10,3
739,772;10,29
740,004;10,28
740,237;10,32
740,469;10,3
740,702;10,29
740,934;10,3
741,167;10,32
741,399;10,33
741,632;10,33
741,864;10,31
742,096;10,3
742,329;10,34
742,561;10,33
742,793;10,36
743,026;10,34
743,258;10,3
743,49;10,29
743,723;10,28
743,955;10,25
744,187;10,25
744,419;10,27
744,651;10,25
744,883;10,25
745,115;10,24
745,348;10,23
745,58;10,23
745,812;10,19
746,044;10,19
746,276;10,18
746,508;10,15
746,74;10,18
746,972;10,2
747,204;10,16
747,436;10,15
747,667;10,14
747,899;10,14
748,131;10,14
748,363;10,13
748,595;10,15
748,827;10,16
749,058;10,15
749,29;10,14
749,522;10,13
749,754;10,15
749,985;10,12
750,217;10,09
750,449;10,1
750,68;10,14
750,912;10,14
751,144;10,15
751,375;10,15
751,607;10,14
751,838;10,14
752,07;10,17
752,301;10,17
752,533;10,18
752,764;10,17
752,996;10,17
753,227;10,17
753,459;10,19
753,69;10,17
753,921;10,21
754,153;10,19
754,384;10,21
754,615;10,15
754,847;10,18
755,078;10,23
755,309;10,25
755,54;10,23
755,772;10,21
756,003;10,22
756,234;10,2
756,465;10,22
756,696;10,23
756,927;10,21
757,159;10,22
757,39;10,22
757,621;10,22
757,852;10,22
758,083;10,2
758,314;10,2
758,545;10,21
758,776;10,19
759,007;10,18
759,238;10,19
759,469;10,25
759,699;10,23
759,93;10,21
760,161;10,19
760,392;10,19
760,623;10,19
760,854;10,19
761,084;10,19
761,315;10,18
761,546;10,15
761,776;10,14
762,007;10,12
762,238;10,11
762,468;10,12
762,699;10,14
762,93;10,14
763,16;10,11
763,391;10,09
763,621;10,07
763,852;10,12
764,083;10,09
764,313;10,05
764,543;10,04
764,774;10,06
765,004;10,07
765,235;10,04
765,465;10,05
765,696;10,02
765,926;10,06
766,156;10,04
766,387;10,03
766,617;10,04
766,847;10,09
767,077;10,07
767,308;10,06
767,538;10,12
767,768;10,09
767,998;10,11
768,228;10,13
768,459;10,11
768,689;10,11
768,919;10,14
769,149;10,18
769,379;10,17
769,609;10,19
769,839;10,2
770,069;10,21
770,299;10,2
770,529;10,21
770,759;10,2
770,989;10,21
771,219;10,24
771,449;10,22
771,678;10,22
771,908;10,25
772,138;10,27
772,368;10,26
772,598;10,29
772,827;10,3
773,057;10,3
773,287;10,33
773,517;10,3
773,746;10,31
773,976;10,3
774,206;10,34
774,435;10,33
774,665;10,33
774,894;10,34
775,124;10,37
775,354;10,35
775,583;10,33
775,813;10,33
776,042;10,32
776,272;10,35
776,501;10,34
776,73;10,38
776,96;10,38
777,189;10,33
777,419;10,35
777,648;10,39
777,877;10,37
778,107;10,34
778,336;10,36
778,565;10,32
778,794;10,33
779,024;10,3
779,253;10,31
779,482;10,29
779,711;10,33
779,94;10,32
780,17;10,35
780,399;10,36
780,628;10,39
780,857;10,39
781,086;10,38
781,315;10,42
781,544;10,39
781,773;10,41
782,002;10,43
782,231;10,41
782,46;10,37
782,689;10,37
782,918;10,41
783,147;10,4
783,375;10,44
783,604;10,44
783,833;10,47
784,062;10,45
784,291;10,46
784,519;10,45
784,748;10,44
784,977;10,45
785,206;10,48
785,434;10,45
785,663;10,45
785,892;10,48
786,12;10,46
786,349;10,44
786,577;10,43
786,806;10,41
787,034;10,43
787,263;10,44
787,492;10,47
787,72;10,49
787,948;10,53
788,177;10,52
788,405;10,52
788,634;10,53
788,862;10,58
789,09;10,56
789,319;10,58
789,547;10,58
789,775;10,56
790,004;10,55
790,232;10,58
790,46;10,61
790,688;10,56
790,917;10,5
791,145;10,55
791,373;10,53
791,601;10,58
791,829;10,57
792,057;10,56
792,286;10,56
792,514;10,53
792,742;10,53
792,97;10,55
793,198;10,57
793,426;10,53
793,654;10,47
793,882;10,5
794,109;10,47
794,337;10,49
794,565;10,49
794,793;10,49
795,021;10,47
795,249;10,47
795,477;10,5
795,704;10,53
795,932;10,53
796,16;10,54
796,388;10,53
796,615;10,54
796,843;10,56
797,071;10,56
797,298;10,59
797,526;10,59
797,754;10,55
797,981;10,52
798,209;10,57
798,436;10,57
798,664;10,58
798,891;10,55
799,119;10,53
799,346;10,5
799,574;10,54
799,801;10,59
800,029;10,6
800,256;10,63
800,483;10,68
800,711;10,68
800,938;10,63
801,165;10,63
801,393;10,65
801,62;10,67
801,847;10,69
802,074;10,64
802,302;10,64
802,529;10,68
802,756;10,68
802,983;10,65
803,21;10,71
803,437;10,68
803,665;10,73
803,892;10,78
804,119;10,82
804,346;10,81
804,573;10,78
804,8;10,73
805,027;10,75
805,254;10,71
805,481;10,7
805,708;10,74
805,934;10,74
806,161;10,73
806,388;10,73
806,615;10,7
806,842;10,74
807,069;10,7
807,295;10,75
807,522;10,77
807,749;10,77
807,976;10,69
808,202;10,73
808,429;10,74
808,656;10,72
808,882;10,74
809,109;10,7
809,335;10,71
809,562;10,78
809,789;10,72
810,015;10,74
810,242;10,77
810,468;10,78
810,695;10,76
810,921;10,78
811,147;10,76
811,374;10,76
811,6;10,79
811,827;10,86
812,053;10,78
812,279;10,77
812,506;10,76
812,732;10,87
812,958;10,85
813,185;10,84
813,411;10,82
813,637;10,81
813,863;10,84
814,089;10,83
814,315;10,81
814,542;10,8
814,768;10,81
814,994;10,78
815,22;10,79
815,446;10,82
815,672;10,82
815,898;10,85
816,124;10,84
816,35;10,78
816,576;10,77
816,802;10,78
817,028;10,8
817,254;10,88
817,48;10,82
817,705;10,81
817,931;10,86
818,157;10,9
818,383;10,89
818,609;10,86
818,834;10,87
819,06;10,87
819,286;10,91
819,512;10,91
819,737;10,9
819,963;10,91
820,189;10,87
820,414;10,89
820,64;10,85
820,865;10,93
821,091;10,91
821,316;10,91
821,542;10,9
821,767;10,93
821,993;10,89
822,218;10,89
822,444;10,9
822,669;10,87
822,895;10,87
823,12;10,87
823,345;10,91
823,571;10,89
823,796;10,89
824,021;10,83
824,247;10,88
824,472;10,87
824,697;10,87
824,922;10,92
825,147;10,92
825,373;10,96
825,598;10,94
825,823;11,03
826,048;11,04
826,273;11,04
826,498;11,03
826,723;11,06
826,948;11,09
827,173;11,08
827,398;11,08
827,623;11,09
827,848;11,08
828,073;11,1
828,298;11,12
828,523;11,11
828,748;11,16
828,973;11,13
829,197;11,1
829,422;11,05
829,647;11,02
829,872;10,92
830,097;10,91
830,321;10,92
830,546;10,91
830,771;10,89
830,995;10,91
831,22;10,9
831,445;10,91
831,669;10,88
831,894;10,87
832,118;10,87
832,343;10,89
832,567;10,9
832,792;10,88
833,016;10,85
833,241;10,79
833,465;10,82
833,69;10,78
833,914;10,79
834,139;10,81
834,363;10,82
834,587;10,85
834,812;10,89
835,036;10,85
835,26;10,82
835,485;10,84
835,709;10,85
835,933;10,82
836,157;10,76
836,381;10,81
836,606;10,86
836,83;10,86
837,054;10,79
837,278;10,72
837,502;10,75
837,726;10,75
837,95;10,8
838,174;10,83
838,398;10,86
838,622;10,85
838,846;10,87
839,07;10,85
839,294;10,82
839,518;10,78
839,742;10,81
839,966;10,89
840,189;10,86
840,413;10,9
840,637;10,94
840,861;11,01
841,085;10,86
841,308;10,8
841,532;10,79
841,756;10,88
841,979;10,95
842,203;10,93
842,427;10,96
842,65;10,98
842,874;10,93
843,098;10,91
843,321;10,96
843,545;10,96
843,768;10,94
843,992;11,05
844,215;11,07
844,439;11,06
844,662;11,01
844,886;11,05
845,109;10,99
845,332;11
845,556;10,95
845,779;11,02
846,002;11,04
846,226;11,03
846,449;10,94
846,672;10,87
846,895;10,88
847,119;10,86
847,342;10,85
847,565;10,82
847,788;10,83
848,011;10,8
848,234;10,87
848,457;10,94
848,681;10,88
848,904;10,84
849,127;10,85
849,35;10,89
849,573;10,9
849,796;10,96
850,019;10,94
850,241;10,93
850,464;10,91
850,687;10,96
850,91;11
851,133;11,08
851,356;11,19
851,579;11,16
851,801;11,16
852,024;11,17
852,247;11,19
852,47;11,13
852,692;11,12
852,915;11,09
853,138;11,08
853,36;11,08
853,583;11,04
853,806;11,02
854,028;10,93
854,251;10,84
854,473;10,81
854,696;10,82
854,918;10,85
855,141;10,93
855,363;10,9
855,586;10,89
855,808;10,82
856,031;10,78
856,253;10,8
856,475;10,8
856,698;10,71
856,92;10,69
857,142;10,73
857,365;10,72
857,587;10,66
857,809;10,67
858,031;10,66
858,253;10,68
858,476;10,72
858,698;10,77
858,92;10,76
859,142;10,77
859,364;10,71
859,586;10,68
859,808;10,7
860,03;10,61
860,252;10,63
860,474;10,69
860,696;10,71
860,918;10,7
861,14;10,75
861,362;10,85
861,584;10,84
861,806;10,87
862,028;10,89
862,25;10,89
862,471;10,82
862,693;10,78
862,915;10,78
863,137;10,78
863,358;10,78
863,58;10,83
863,802;10,82
864,024;10,89
864,245;10,85
864,467;10,78
864,688;10,87
864,91;10,84
865,132;10,8
865,353;10,73
865,575;10,73
865,796;10,76
866,018;10,73
866,239;10,79
866,461;10,79
866,682;10,83
866,903;10,88
867,125;10,95
867,346;11
867,567;11,02
867,789;10,98
868,01;10,99
868,231;10,93
868,453;10,93
868,674;10,86
868,895;10,91
869,116;10,95
869,337;11,01
869,559;10,96
869,78;11,03
870,001;11,07
870,222;11,08
870,443;11,03
870,664;11,01
870,885;10,99
871,106;10,98
871,327;10,97
871,548;11,02
871,769;10,91
871,99;11
872,211;11,03
872,432;11,09
872,653;11,07
872,874;11,13
873,094;11,13
873,315;11,19
873,536;11,17
873,757;11,12
873,978;11,06
874,198;11,1
874,419;11,09
874,64;11,08
874,86;11,12
875,081;11,1
875,302;11,14
875,522;11,21
875,743;11,2
875,963;11,22
876,184;11,23
876,404;11,26
876,625;11,16
876,845;11,15
877,066;11,12
877,286;11,16
877,507;11,16
877,727;11,13
877,947;11,12
878,168;11,13
878,388;11,13
878,609;11,14
878,829;11,15
879,049;11,11
879,269;11,14
879,49;11,06
879,71;11,09
879,93;11,1
880,15;11,01
880,37;10,97
880,59;10,87
880,811;10,77
881,031;10,79
881,251;10,8
881,471;10,7
881,691;10,7
881,911;10,69
882,131;10,61
882,351;10,65
882,571;10,68
882,791;10,71
883,011;10,69
883,23;10,69
883,45;10,65
883,67;10,73
883,89;10,65
884,11;10,67
884,33;10,68
884,549;10,68
884,769;10,69
884,989;10,71
885,209;10,75
885,428;10,87
885,648;10,81
885,868;10,85
886,087;10,87
886,307;10,76
886,526;10,64
886,746;10,71
886,965;10,68
887,185;10,61
887,404;10,59
887,624;10,77
887,843;10,76
888,063;10,78
888,282;10,7
888,502;10,73
888,721;10,8
888,94;10,85
889,16;10,79
889,379;10,72
889,598;10,75
889,818;10,78
890,037;10,68
890,256;10,81
890,475;10,81
890,694;10,93
890,914;11,02
891,133;11,03
891,352;11,14
891,571;11,11
891,79;11,12
892,009;11,09
892,228;10,99
892,447;11,04
892,666;11,02
892,885;11,11
893,104;11,13
893,323;11,16
893,542;11,09
893,761;11,11
893,98;11,18
894,199;11,19
894,417;11,15
894,636;11,22
894,855;11,17
895,074;11,16
895,293;11,04
895,511;11,07
895,73;11,14
895,949;11,01
896,167;11,02
896,386;11,06
896,605;11,11
896,823;11,08
897,042;11,05
897,26;10,96
897,479;11
897,697;11,02
897,916;10,98
898,134;10,99
898,353;10,95
898,571;11,01
898,79;11,04
899,008;11,06
899,227;11,07
899,445;11,05
899,663;10,99
899,882;11,11
900,1;11,09
900,318;11,14
900,536;11,17
900,755;11,24
900,973;11,14
901,191;11,14
901,409;11,12
901,627;11,01
901,846;11,22
902,064;11,07
902,282;11,06
902,5;10,99
902,718;10,93
902,936;10,95
903,154;10,85
903,372;10,83
903,59;10,85
903,808;10,83
904,026;10,91
904,244;11,02
904,462;10,83
904,679;10,81
904,897;10,8
905,115;10,77
905,333;10,69
905,551;10,69
905,768;10,69
905,986;10,66
906,204;10,7
906,422;10,7
906,639;10,71
906,857;10,79
907,074;10,79
907,292;10,77
907,51;10,81
907,727;10,89
907,945;11
908,162;10,98
908,38;10,96
908,597;10,94
908,815;10,9
909,032;11,02
909,25;11,01
909,467;11
909,684;11
909,902;11
910,119;11,14
910,337;11,23
910,554;11,26
910,771;11,36
910,988;11,3
911,206;11,32
911,423;11,34
911,64;11,41
911,857;11,5
912,074;11,45
912,291;11,41
912,509;11,27
912,726;11,23
912,943;11,28
913,16;11,18
913,377;11,21
913,594;11,19
913,811;11,27
914,028;11,18
914,245;11,28
914,462;11,29
914,679;11,07
914,896;11,01
915,112;11,05
915,329;11,07
915,546;11,06
915,763;11,12
915,98;10,97
916,196;10,82
916,413;10,79
916,63;10,92
916,847;11,01
917,063;10,88
917,28;10,91
917,497;10,79
917,713;10,93
917,93;10,95
918,146;11,12
918,363;11,17
918,579;11,27
918,796;11,27
919,012;11,4
919,229;11,55
919,445;11,6
919,662;11,63
919,878;11,55
920,095;11,65
920,311;11,65
920,527;11,77
920,744;11,97
920,96;12,1
921,176;12,06
921,392;11,93
921,609;12,16
921,825;12,29
922,041;12,41
922,257;12,3
922,473;12,27
922,69;12,14
922,906;12,05
923,122;12,08
923,338;11,9
923,554;11,82
923,77;11,91
923,986;11,73
924,202;11,74
924,418;11,83
924,634;11,65
924,85;11,59
925,066;11,58
925,282;11,49
925,497;11,45
925,713;11,42
925,929;11,49
926,145;11,45
926,361;11,39
926,576;11,37
926,792;11,29
927,008;11,27
927,224;11,24
927,439;11,14
927,655;11,02
927,871;11,07
928,086;11,06
928,302;11,02
928,517;11,03
928,733;11,11
928,948;11,1
929,164;11,07
929,379;11,05
929,595;11,02
929,81;11,11
930,026;10,99
930,241;11,04
930,456;10,85
930,672;10,93
930,887;10,91
931,102;11
931,318;11,19
931,533;11,1
931,748;11,12
931,964;11,15
932,179;11,17
932,394;11,27
932,609;11,29
932,824;11,3
933,039;11,36
933,255;11,19
933,47;11,17
933,685;11,26
933,9;11,52
934,115;11,47
934,33;11,37
934,545;11,59
934,76;11,71
934,975;12
935,19;11,97
935,404;11,96
935,619;11,89
935,834;11,92
936,049;12,17
936,264;12,33
936,479;12,46
936,693;12,55
936,908;12,76
937,123;12,81
937,338;12,91
937,552;12,82
937,767;12,98
937,982;13,25
938,196;13,61
938,411;13,36
938,625;13,45
938,84;13,73
939,055;13,7
939,269;13,66
939,484;13,91
939,698;14,17
939,912;14,21
940,127;14,26
940,341;13,89
940,556;13,76
940,77;13,51
940,984;13,45
941,199;13,91
941,413;13,67
941,627;13,79
941,842;13,96
942,056;14,39
942,27;14,31
942,484;14,33
942,699;14,29
942,913;14,57
943,127;15,21
943,341;14,73
943,555;14,81
943,769;14,9
943,983;14,26
944,197;13,93
944,411;13,99
944,625;14,14
944,839;14,79
945,053;15,25
945,267;15,84
945,481;16,14
945,695;16,12
945,909;16,16
946,123;16,15
946,336;16,4
946,55;16,71
946,764;17,27
946,978;16,93
947,192;16,78
947,405;16,27
947,619;16,27
947,833;16,42
948,046;16,2
948,26;15,93
948,474;15,83
948,687;16,28
948,901;16,9
949,114;17,38
949,328;17,23
949,541;16,48
949,755;16,07
949,968;16,11
950,182;15,93
950,395;16,12
950,609;16,17
950,822;16,05
951,035;16,18
951,249;15,89
951,462;16,23
951,675;15,92
951,889;16
952,102;15,65
952,315;16,29
952,528;16,64
952,741;16,63
952,955;16,73
953,168;16,35
953,381;15,87
953,594;15,08
953,807;15,24
954,02;15,56
954,233;15,4
954,446;15,34
954,659;15,68
954,872;15,29
955,085;15,85
955,298;15,61
955,511;15,28
955,724;15,3
955,937;15,12
956,15;15,18
956,362;15,26
956,575;15,24
956,788;14,77
957,001;14,66
957,214;14,64
957,426;14,73
957,639;14,63
957,852;14,46
958,064;14,62
958,277;14,06
958,49;14,19
958,702;14,6
958,915;14,51
959,127;14,17
959,34;14,46
959,552;13,71
959,765;13,26
959,977;13,18
960,19;13,43
960,402;13,07
960,615;13,09
960,827;12,62
961,039;12,25
961,252;11,98
961,464;11,77
961,676;11,85
961,889;11,89
962,101;11,63
962,313;11,91
962,525;11,7
962,738;12,29
962,95;12,25
963,162;12,18
963,374;12,25
963,586;11,95
963,798;11,6
964,01;11,81
964,222;12,38
964,434;12,57
964,646;12,41
964,858;12,67
965,07;12,54
965,282;13,15
965,494;13,29
965,706;13,42
965,918;13,5
966,13;13,49
966,342;13,28
966,553;13,63
966,765;13,68
966,977;14,27
967,189;14,22
967,401;14,09
967,612;13,67
967,824;13,79
968,036;13,78
968,247;13,75
968,459;13,92
968,67;13,86
968,882;13,78
969,094;13,45
969,305;13,79
969,517;13,92
969,728;13,71
969,94;14,16
970,151;14,15
970,362;14,06
970,574;14,16
970,785;14,65
970,997;14,78
971,208;14,52
971,419;13,98
971,631;13,77
971,842;13,95
972,053;14,38
972,264;14,58
972,476;15,13
972,687;15,25
972,898;15,19
973,109;15,37
973,32;15,35
973,531;15,35
973,742;14,86
973,954;14,94
974,165;14,93
974,376;14,96
974,587;14,99
974,798;14,86
975,009;14,73
975,22;14,69
975,43;14,71
975,641;15,15
975,852;15,15
976,063;15,08
976,274;15,13
976,485;15
976,695;14,68
976,906;14,36
977,117;14,87
977,328;14,96
977,538;14,82
977,749;14,74
977,96;15,16
978,17;15,23
978,381;15,06
978,592;15,23
978,802;15,25
979,013;15,33
979,223;15,3
979,434;15,07
979,644;15,12
979,855;15,3
980,065;14,98
980,276;15,14
980,486;15,38
980,696;15,07
980,907;14,86
981,117;15,24
981,327;15,51
981,538;15,29
981,748;15,01
981,958;15,41
982,169;15,55
982,379;15,16
982,589;15,13
982,799;15,29
983,009;14,94
983,219;14,91
983,43;14,88
983,64;15,17
983,85;15,8
984,06;15,89
984,27;15,44
984,48;15,75
984,69;15,92
984,9;15,73
985,11;16,21
985,32;16,14
985,529;15,97
985,739;15,92
985,949;15,69
986,159;15,92
986,369;15,54
986,579;15,5
986,788;16,08
986,998;16,49
987,208;16,6
987,417;16,59
987,627;16,18
987,837;16,21
988,046;15,87
988,256;15,46
988,466;14,9
988,675;15,21
988,885;15,04
989,094;15,18
989,304;15,26
989,513;15,21
989,723;15,43
989,932;15,66
990,142;15,62
990,351;15,65
990,56;15,25
990,77;15,09
990,979;14,96
991,188;15
991,398;15,07
991,607;14,95
991,816;15,94
992,025;15,96
992,235;15,88
992,444;17
992,653;17,84
992,862;18,43
993,071;18,56
993,28;18,91
993,489;19,34
993,698;19,6
993,908;18,93
994,117;18,91
994,326;19,01
994,534;18,9
994,743;19,03
994,952;18,95
995,161;18,76
995,37;19,35
995,579;19,2
995,788;18,77
995,997;19,08
996,205;18,87
996,414;19,64
996,623;19,94
996,832;19,11
997,04;18,8
997,249;19,31
997,458;18,98
997,666;18,92
997,875;18,37
998,084;18,7
998,292;19,16
998,501;20,21
998,709;19,66
998,918;19,59
999,126;20,03
999,335;20,86
999,543;21,73
999,752;21,28
999,96;21,09
1000,169;21,46
1000,377;21,13
1000,585;21,18
1000,794;20,61
1001,002;20,84
1001,21;21,61
1001,418;20,9
1001,627;20,4
1001,835;20,81
1002,043;20,82
1002,251;20,76
1002,459;20,14
1002,668;19,76
1002,876;19,38
1003,084;19,26
1003,292;19,41
1003,5;18,42
1003,708;18,2
1003,916;17,36
1004,124;17,94
1004,332;18,8
1004,54;18,4
1004,748;18,62
1004,956;18,97
1005,163;18,96
1005,371;18,61
1005,579;17,76
1005,787;18,41
1005,995;18,25
1006,202;17,98
1006,41;18,03
1006,618;18,04
1006,826;18,55
1007,033;18,44
1007,241;18,11
1007,449;17,83
1007,656;17,83
1007,864;18,09
1008,071;18,01
1008,279;19,24
1008,486;18,53
1008,694;17,6
1008,901;17,35
1009,109;17,48
1009,316;16,47
1009,524;17,61
1009,731;17,65
1009,938;18,4
1010,146;17,59
1010,353;18,05
1010,56;18,24
1010,768;18,9
1010,975;19,69
1011,182;19,11
1011,389;19,02
1011,597;18,8
1011,804;18,85
1012,011;19,38
1012,218;19,8
1012,425;19,99
1012,632;19,31
1012,839;20,27
1013,046;19,71
1013,253;20,08
1013,46;19,67
1013,667;20,49
1013,874;18,92
1014,081;19,48
1014,288;19,03
1014,495;19,86
1014,702;18,81
1014,909;18,13
1015,116;16,65
1015,323;16,04
1015,529;16,92
1015,736;18,23
1015,943;18,6
1016,15;19
1016,356;18,93
1016,563;19,34
1016,77;19,33
1016,976;20,45
1017,183;19,11
1017,389;19,44
1017,596;20
1017,803;20,04
1018,009;19,83
1018,216;20,91
1018,422;20,1
1018,629;20,92
1018,835;20,52
1019,041;21,77
1019,248;23,62
1019,454;24,21
1019,661;24,22
1019,867;24,36
1020,073;24,42
1020,279;24,8
1020,486;24,77
1020,692;26,01
1020,898;25,38
1021,104;25,3
1021,311;23,22
1021,517;23,42
1021,723;23,82
1021,929;23,59
1022,135;24,23
1022,341;23,6
1022,547;24,63
1022,753;25,08
1022,959;24,89
1023,165;25,38
1023,371;26,04
1023,577;23,8
1023,783;23,31
1023,989;23,97
1024,195;24,79
1024,401;25,23
1024,607;25,31
1024,812;25,96
1025,018;25,86
1025,224;27,22
1025,43;28,62
1025,635;29,13
1025,841;29,1
1026,047;28,16
1026,252;28,85
1026,458;29,55
1026,664;30,42
1026,869;28,42
1027,075;29,26
1027,28;28,1
1027,486;28,02
1027,691;26,32
1027,897;27,85
1028,102;27,79
1028,308;26,33
1028,513;24,88
1028,719;23,62
1028,924;24,07
1029,129;23,55
1029,335;21,61
1029,54;20,91
1029,745;19,79
1029,95;19,72
1030,156;21,63
1030,361;22,68
1030,566;22,64
1030,771;21,4
1030,976;21,93
1031,182;24,77
1031,387;23,25
1031,592;23,15
1031,797;22,09
1032,002;21,36
1032,207;19,99
1032,412;20,4
1032,617;22,36
1032,822;22,62
1033,027;25,18
1033,232;23,35
1033,437;23,74
1033,642;24,77
1033,846;23,93
1034,051;22,94
1034,256;23,92
1034,461;22,68
1034,666;22,9
1034,87;23,8
1035,075;22,28
1035,28;21,1
1035,484;19,4
1035,689;18,95
1035,894;19,03
1036,098;18,68
1036,303;19,15
1036,507;19,71
1036,712;21,05
1036,917;20,96
1037,121;21,07
1037,325;18,13
1037,53;16,85
1037,734;17,47
1037,939;18,04
1038,143;20,98
1038,348;22,13
1038,552;23,15
1038,756;23,4
1038,961;23,69
1039,165;21,93
1039,369;23,06
1039,573;21,22
1039,778;19,95
1039,982;21,59
1040,186;22,6
1040,39;23,51
1040,594;25,72
1040,798;25,3
1041,002;24,36
1041,206;23
1041,41;22,97
1041,614;24,55
1041,818;27,72
1042,022;28,1
1042,226;27,51
1042,43;27,36
1042,634;26,7
1042,838;26,97
1043,042;27,85
1043,246;25,84
1043,45;26,5
1043,653;26,55
1043,857;28,06
1044,061;29,61
1044,265;28,72
1044,468;30,08
1044,672;31,27
1044,876;30,13
1045,079;32,29
1045,283;33,95
1045,487;35,66
1045,69;34,12
1045,894;32,06
1046,097;33,36
1046,301;32,62
1046,504;34,68
1046,708;32,68
1046,911;35,01
1047,115;32,42
1047,318;31,32
1047,522;35,22
1047,725;33,44
1047,928;34,7
1048,132;33,9
1048,335;33,8
1048,538;34,93
1048,741;31,4
1048,945;33,08
1049,148;34,07
1049,351;32,62
1049,554;33,39
1049,757;32,51
1049,96;35,92
1050,163;38,69
1050,367;36,44
1050,57;38,03
1050,773;35,12
1050,976;36,33
1051,179;33,34
1051,382;35,97
1051,585;38,08
1051,787;38
1051,99;43,34
1052,193;42,95
1052,396;44,02
1052,599;42,59
1052,802;42,41
1053,005;46,21
1053,207;46,71
1053,41;47,11
1053,613;50,2
1053,815;48,05
1054,018;46,8
1054,221;46,7
1054,423;46,98
1054,626;47,72
1054,829;47,44
1055,031;49,19
1055,234;48,35
1055,436;52,34
1055,639;50,84
1055,841;47,16
1056,044;46,71
1056,246;41,14
