Data from terraverdeCiproWhite_Reflection__4__44.txt Node;
"Date: Wed Sep 10 12:41:31 CEST 2025 User: sycur Spectrometer: SR400348 Trigger mode: 0 Integration Time (sec): 1,000000E-2 Scans to average: 10 Electric dark correction enabled: true Nonlinearity correction enabled: false Boxcar width: 10 XAxis mode: Wavelengths Number of Pixels in Spectrum: 3648 >>>>>Begin Spectral Data<<<<<";
186,01;112,44
186,281;101,71
186,552;87,67
186,822;130,29
187,093;-100
187,364;400,9
187,635;59,76
187,905;34,42
188,176;23,77
188,447;7,35
188,717;-0,95
188,988;4,85
189,258;9,76
189,529;14,81
189,8;4,79
190,07;9,2
190,341;4,37
190,611;0,75
190,882;-3,17
191,152;0,85
191,423;0,44
191,693;-0,43
191,964;-2,3
192,234;2,21
192,505;1,32
192,775;5,84
193,045;6,56
193,316;6,67
193,586;7,9
193,856;9,54
194,127;11,64
194,397;12,69
194,667;13,97
194,938;12,97
195,208;12,3
195,478;13,6
195,748;13,02
196,019;14,02
196,289;13,83
196,559;13,47
196,829;11,82
197,099;12,97
197,37;12,66
197,64;14,01
197,91;13
198,18;13,49
198,45;14
198,72;12,6
198,99;12,45
199,26;12,06
199,53;12,21
199,8;11,72
200,07;11,42
200,34;10,08
200,61;9,34
200,88;9,56
201,15;9,57
201,42;8,68
201,69;8,2
201,96;8,31
202,23;9,23
202,499;9,87
202,769;9,57
203,039;8,86
203,309;7,42
203,579;7
203,849;7,15
204,118;6,19
204,388;6,4
204,658;6,02
204,927;5,6
205,197;4,24
205,467;4,01
205,736;4,32
206,006;4,5
206,276;4,8
206,545;4,54
206,815;3,99
207,085;4,25
207,354;4,45
207,624;4,05
207,893;3,79
208,163;3,48
208,432;3,74
208,702;3,62
208,971;3,71
209,241;3,98
209,51;4,01
209,78;3,97
210,049;3,88
210,318;4,35
210,588;4,41
210,857;4,82
211,127;5,1
211,396;4,91
211,665;5,16
211,935;5,06
212,204;5,03
212,473;5,27
212,742;5,16
213,012;5,13
213,281;5,3
213,55;5,32
213,819;5,26
214,088;4,87
214,358;4,94
214,627;4,94
214,896;4,77
215,165;4,54
215,434;4,61
215,703;4,5
215,972;4,29
216,241;4,36
216,51;4,21
216,779;3,87
217,048;3,93
217,317;3,76
217,586;3,92
217,855;3,98
218,124;3,89
218,393;3,81
218,662;3,9
218,931;3,9
219,2;3,63
219,469;3,67
219,738;3,81
220,006;3,94
220,275;3,92
220,544;3,97
220,813;4,03
221,082;4
221,35;3,99
221,619;3,91
221,888;3,79
222,157;3,89
222,425;3,94
222,694;3,74
222,963;3,75
223,231;3,63
223,5;3,49
223,769;3,42
224,037;3,5
224,306;3,33
224,574;3,33
224,843;3,39
225,111;3,28
225,38;3,12
225,648;2,95
225,917;2,92
226,185;2,94
226,454;2,9
226,722;2,96
226,991;2,93
227,259;2,88
227,528;2,83
227,796;2,81
228,064;2,72
228,333;2,79
228,601;2,71
228,869;2,71
229,138;2,67
229,406;2,71
229,674;2,61
229,942;2,7
230,211;2,71
230,479;2,69
230,747;2,74
231,015;2,79
231,283;2,85
231,552;2,82
231,82;2,72
232,088;2,7
232,356;2,64
232,624;2,65
232,892;2,62
233,16;2,64
233,428;2,64
233,696;2,65
233,964;2,62
234,232;2,67
234,5;2,68
234,768;2,66
235,036;2,67
235,304;2,69
235,572;2,66
235,84;2,61
236,108;2,56
236,376;2,5
236,644;2,46
236,912;2,41
237,179;2,42
237,447;2,44
237,715;2,42
237,983;2,38
238,251;2,36
238,518;2,38
238,786;2,39
239,054;2,33
239,322;2,35
239,589;2,34
239,857;2,31
240,125;2,27
240,392;2,26
240,66;2,29
240,927;2,25
241,195;2,22
241,463;2,23
241,73;2,28
241,998;2,29
242,265;2,31
242,533;2,34
242,8;2,31
243,068;2,32
243,335;2,28
243,603;2,3
243,87;2,29
244,138;2,28
244,405;2,27
244,672;2,28
244,94;2,23
245,207;2,24
245,474;2,23
245,742;2,22
246,009;2,19
246,276;2,15
246,544;2,14
246,811;2,14
247,078;2,13
247,345;2,16
247,613;2,15
247,88;2,12
248,147;2,09
248,414;2,12
248,681;2,1
248,948;2,11
249,215;2,1
249,483;2,09
249,75;2,08
250,017;2,04
250,284;2,03
250,551;2,04
250,818;2,05
251,085;2,05
251,352;2,06
251,619;2,09
251,886;2,09
252,153;2,12
252,42;2,11
252,687;2,1
252,953;2,06
253,22;2,06
253,487;2,05
253,754;2,05
254,021;2,03
254,288;2,03
254,555;2,05
254,821;2,1
255,088;2,11
255,355;2,12
255,622;2,13
255,888;2,14
256,155;2,13
256,422;2,09
256,688;2,1
256,955;2,08
257,222;2,07
257,488;2,08
257,755;2,04
258,022;2,04
258,288;2,02
258,555;2
258,821;2
259,088;2,01
259,354;1,97
259,621;1,96
259,887;1,96
260,154;1,95
260,42;1,89
260,687;1,88
260,953;1,88
261,219;1,91
261,486;1,86
261,752;1,89
262,019;1,91
262,285;1,9
262,551;1,9
262,818;1,93
263,084;1,9
263,35;1,91
263,616;1,89
263,883;1,9
264,149;1,93
264,415;1,95
264,681;1,97
264,947;2,02
265,214;2,03
265,48;2,04
265,746;2,06
266,012;2,1
266,278;2,07
266,544;2,09
266,81;2,1
267,076;2,13
267,342;2,09
267,608;2,09
267,874;2,08
268,14;2,09
268,406;2,08
268,672;2,11
268,938;2,11
269,204;2,13
269,47;2,12
269,736;2,12
270,002;2,07
270,268;2,06
270,533;2,06
270,799;2,06
271,065;2,03
271,331;2,03
271,597;2,02
271,862;2,05
272,128;2,05
272,394;2,04
272,66;2,03
272,925;2,07
273,191;2,07
273,457;2,09
273,722;2,08
273,988;2,09
274,254;2,07
274,519;2,1
274,785;2,12
275,05;2,11
275,316;2,1
275,582;2,12
275,847;2,13
276,113;2,12
276,378;2,14
276,644;2,16
276,909;2,14
277,174;2,15
277,44;2,17
277,705;2,13
277,971;2,11
278,236;2,12
278,501;2,09
278,767;2,09
279,032;2,07
279,297;2,08
279,563;2,04
279,828;2,07
280,093;2,03
280,358;2
280,624;2,02
280,889;2,01
281,154;2,04
281,419;2,03
281,684;2,01
281,95;1,98
282,215;1,98
282,48;2
282,745;2
283,01;1,99
283,275;2
283,54;2
283,805;1,99
284,07;2,01
284,335;2,02
284,6;2,02
284,865;2,01
285,13;2,03
285,395;2,04
285,66;2,07
285,925;2,09
286,19;2,12
286,455;2,12
286,72;2,12
286,985;2,12
287,249;2,13
287,514;2,13
287,779;2,14
288,044;2,12
288,309;2,11
288,573;2,1
288,838;2,13
289,103;2,13
289,367;2,12
289,632;2,13
289,897;2,14
290,161;2,16
290,426;2,19
290,691;2,22
290,955;2,18
291,22;2,14
291,484;2,13
291,749;2,1
292,014;2,09
292,278;2,09
292,543;2,11
292,807;2,13
293,072;2,15
293,336;2,11
293,6;2,12
293,865;2,13
294,129;2,13
294,394;2,1
294,658;2,15
294,922;2,17
295,187;2,18
295,451;2,17
295,715;2,16
295,98;2,15
296,244;2,15
296,508;2,17
296,773;2,21
297,037;2,23
297,301;2,26
297,565;2,27
297,829;2,26
298,094;2,27
298,358;2,24
298,622;2,25
298,886;2,3
299,15;2,35
299,414;2,37
299,678;2,41
299,942;2,44
300,206;2,42
300,47;2,43
300,734;2,44
300,998;2,46
301,262;2,48
301,526;2,48
301,79;2,49
302,054;2,51
302,318;2,49
302,582;2,52
302,846;2,51
303,11;2,54
303,374;2,55
303,637;2,58
303,901;2,62
304,165;2,63
304,429;2,64
304,693;2,63
304,956;2,62
305,22;2,62
305,484;2,64
305,747;2,66
306,011;2,69
306,275;2,66
306,538;2,68
306,802;2,71
307,066;2,72
307,329;2,72
307,593;2,72
307,856;2,7
308,12;2,67
308,384;2,72
308,647;2,76
308,911;2,79
309,174;2,78
309,438;2,77
309,701;2,79
309,964;2,79
310,228;2,79
310,491;2,79
310,755;2,79
311,018;2,81
311,281;2,8
311,545;2,79
311,808;2,82
312,071;2,84
312,335;2,8
312,598;2,81
312,861;2,85
313,124;2,88
313,388;2,95
313,651;2,95
313,914;2,92
314,177;2,9
314,44;2,9
314,704;2,89
314,967;2,92
315,23;2,95
315,493;2,94
315,756;2,94
316,019;2,95
316,282;2,99
316,545;2,99
316,808;3,02
317,071;3,02
317,334;3,03
317,597;3,03
317,86;3,08
318,123;3,12
318,386;3,09
318,649;3,07
318,912;3,09
319,175;3,11
319,437;3,13
319,7;3,11
319,963;3,14
320,226;3,16
320,489;3,14
320,751;3,12
321,014;3,12
321,277;3,13
321,54;3,1
321,802;3,06
322,065;3,05
322,328;3,03
322,59;3,06
322,853;3,07
323,116;3,05
323,378;3,01
323,641;2,99
323,903;3,01
324,166;3,01
324,428;2,97
324,691;2,99
324,953;3,01
325,216;3,07
325,478;3,05
325,741;3,01
326,003;3,03
326,266;3,02
326,528;3,01
326,791;3,01
327,053;3,04
327,315;3,03
327,578;3,06
327,84;3,05
328,102;3
328,365;2,99
328,627;2,97
328,889;2,98
329,151;2,97
329,414;2,99
329,676;2,98
329,938;3,01
330,2;2,98
330,462;2,99
330,725;2,94
330,987;2,92
331,249;2,94
331,511;2,89
331,773;2,91
332,035;2,93
332,297;2,92
332,559;2,94
332,821;2,93
333,083;2,89
333,345;2,87
333,607;2,93
333,869;2,94
334,131;2,95
334,393;3,01
334,655;2,99
334,917;2,94
335,179;2,92
335,44;2,9
335,702;2,92
335,964;2,89
336,226;2,91
336,488;2,9
336,749;2,92
337,011;2,92
337,273;2,92
337,535;2,91
337,796;2,89
338,058;2,89
338,32;2,92
338,581;2,91
338,843;2,92
339,105;2,94
339,366;2,95
339,628;2,97
339,889;2,92
340,151;2,91
340,412;2,93
340,674;2,95
340,935;2,95
341,197;2,95
341,458;2,95
341,72;2,93
341,981;2,92
342,243;2,89
342,504;2,93
342,766;2,96
343,027;2,93
343,288;2,97
343,55;2,98
343,811;2,96
344,072;2,92
344,334;2,94
344,595;2,89
344,856;2,84
345,117;2,84
345,379;2,85
345,64;2,88
345,901;2,89
346,162;2,87
346,423;2,87
346,684;2,83
346,946;2,83
347,207;2,79
347,468;2,85
347,729;2,83
347,99;2,79
348,251;2,76
348,512;2,78
348,773;2,77
349,034;2,74
349,295;2,76
349,556;2,81
349,817;2,81
350,078;2,83
350,339;2,85
350,6;2,82
350,86;2,81
351,121;2,78
351,382;2,8
351,643;2,79
351,904;2,77
352,165;2,8
352,425;2,8
352,686;2,85
352,947;2,82
353,208;2,86
353,468;2,85
353,729;2,83
353,99;2,85
354,25;2,86
354,511;2,85
354,772;2,82
355,032;2,83
355,293;2,81
355,553;2,79
355,814;2,78
356,074;2,78
356,335;2,81
356,596;2,87
356,856;2,85
357,116;2,84
357,377;2,89
357,637;2,88
357,898;2,88
358,158;2,86
358,419;2,85
358,679;2,82
358,939;2,83
359,2;2,82
359,46;2,82
359,72;2,82
359,981;2,86
360,241;2,84
360,501;2,83
360,761;2,85
361,022;2,87
361,282;2,86
361,542;2,88
361,802;2,8
362,062;2,77
362,323;2,74
362,583;2,77
362,843;2,72
363,103;2,75
363,363;2,75
363,623;2,73
363,883;2,78
364,143;2,82
364,403;2,84
364,663;2,89
364,923;2,9
365,183;2,92
365,443;2,92
365,703;2,92
365,963;2,92
366,223;2,91
366,483;2,87
366,743;2,89
367,002;2,86
367,262;2,89
367,522;2,88
367,782;2,89
368,042;2,9
368,301;2,91
368,561;2,9
368,821;2,86
369,081;2,89
369,34;2,84
369,6;2,8
369,86;2,77
370,119;2,78
370,379;2,8
370,638;2,76
370,898;2,73
371,158;2,75
371,417;2,77
371,677;2,71
371,936;2,75
372,196;2,76
372,455;2,8
372,715;2,82
372,974;2,83
373,234;2,83
373,493;2,84
373,753;2,88
374,012;2,85
374,271;2,84
374,531;2,83
374,79;2,85
375,049;2,92
375,309;2,91
375,568;2,87
375,827;2,84
376,086;2,81
376,346;2,82
376,605;2,82
376,864;2,8
377,123;2,85
377,383;2,82
377,642;2,85
377,901;2,85
378,16;2,79
378,419;2,76
378,678;2,78
378,937;2,76
379,196;2,73
379,455;2,77
379,714;2,8
379,973;2,81
380,232;2,83
380,491;2,79
380,75;2,79
381,009;2,8
381,268;2,79
381,527;2,84
381,786;2,82
382,045;2,84
382,304;2,83
382,563;2,88
382,821;2,91
383,08;2,88
383,339;2,88
383,598;2,99
383,857;3
384,115;3,01
384,374;3,03
384,633;3,05
384,891;3,06
385,15;3,02
385,409;3,08
385,667;3,04
385,926;3,07
386,185;3,09
386,443;3,11
386,702;3,11
386,96;3,08
387,219;3,1
387,477;3,12
387,736;3,14
387,994;3,16
388,253;3,13
388,511;3,11
388,77;3,1
389,028;3,08
389,287;3,09
389,545;3,08
389,803;3,03
390,062;3
390,32;2,98
390,578;3,02
390,837;3,03
391,095;3,08
391,353;3,06
391,612;3,07
391,87;3,06
392,128;3,09
392,386;3,12
392,644;3,15
392,903;3,15
393,161;3,14
393,419;3,07
393,677;3,1
393,935;3,11
394,193;3,09
394,451;3,08
394,709;3,04
394,967;3,07
395,225;3,12
395,483;3,15
395,741;3,18
395,999;3,22
396,257;3,21
396,515;3,18
396,773;3,19
397,031;3,21
397,289;3,22
397,547;3,21
397,805;3,21
398,062;3,2
398,32;3,19
398,578;3,24
398,836;3,24
399,094;3,24
399,351;3,24
399,609;3,27
399,867;3,26
400,124;3,31
400,382;3,33
400,64;3,34
400,897;3,33
401,155;3,33
401,413;3,29
401,67;3,26
401,928;3,3
402,185;3,27
402,443;3,27
402,701;3,28
402,958;3,3
403,216;3,32
403,473;3,34
403,73;3,36
403,988;3,33
404,245;3,39
404,503;3,37
404,76;3,4
405,018;3,39
405,275;3,41
405,532;3,44
405,79;3,44
406,047;3,43
406,304;3,45
406,561;3,45
406,819;3,55
407,076;3,56
407,333;3,6
407,59;3,67
407,848;3,66
408,105;3,69
408,362;3,7
408,619;3,67
408,876;3,68
409,133;3,67
409,39;3,71
409,647;3,67
409,904;3,66
410,161;3,7
410,418;3,69
410,675;3,68
410,932;3,62
411,189;3,63
411,446;3,61
411,703;3,59
411,96;3,57
412,217;3,49
412,474;3,51
412,731;3,46
412,988;3,45
413,245;3,52
413,501;3,5
413,758;3,51
414,015;3,5
414,272;3,49
414,529;3,54
414,785;3,54
415,042;3,59
415,299;3,68
415,555;3,64
415,812;3,65
416,069;3,66
416,325;3,73
416,582;3,72
416,838;3,8
417,095;3,84
417,352;3,85
417,608;3,88
417,865;3,92
418,121;3,93
418,378;3,94
418,634;3,88
418,891;3,94
419,147;3,97
419,403;4
419,66;4,02
419,916;4,01
420,173;4,01
420,429;3,99
420,685;4
420,942;4,04
421,198;4,03
421,454;4,06
421,711;4,06
421,967;4,06
422,223;4,06
422,479;4,02
422,735;4,08
422,992;4,07
423,248;4,02
423,504;4,08
423,76;4,1
424,016;4,13
424,272;4,09
424,528;4,08
424,784;4,09
425,041;4,09
425,297;4,05
425,553;4,1
425,809;4,14
426,065;4,1
426,32;4,15
426,576;4,2
426,832;4,19
427,088;4,18
427,344;4,16
427,6;4,19
427,856;4,22
428,112;4,21
428,368;4,27
428,623;4,32
428,879;4,3
429,135;4,31
429,391;4,31
429,646;4,34
429,902;4,38
430,158;4,41
430,414;4,4
430,669;4,44
430,925;4,42
431,181;4,4
431,436;4,44
431,692;4,42
431,947;4,43
432,203;4,45
432,458;4,47
432,714;4,53
432,97;4,52
433,225;4,57
433,481;4,57
433,736;4,53
433,991;4,52
434,247;4,52
434,502;4,55
434,758;4,58
435,013;4,57
435,268;4,58
435,524;4,54
435,779;4,56
436,034;4,6
436,29;4,63
436,545;4,65
436,8;4,64
437,056;4,65
437,311;4,65
437,566;4,63
437,821;4,66
438,076;4,66
438,331;4,67
438,587;4,69
438,842;4,67
439,097;4,72
439,352;4,79
439,607;4,75
439,862;4,77
440,117;4,78
440,372;4,79
440,627;4,78
440,882;4,82
441,137;4,86
441,392;4,84
441,647;4,86
441,902;4,89
442,157;4,92
442,412;4,95
442,667;4,99
442,921;5,02
443,176;5,05
443,431;5,07
443,686;5,08
443,941;5,07
444,195;5,11
444,45;5,09
444,705;5,12
444,96;5,17
445,214;5,13
445,469;5,12
445,724;5,17
445,978;5,21
446,233;5,21
446,487;5,23
446,742;5,22
446,997;5,2
447,251;5,2
447,506;5,2
447,76;5,18
448,015;5,16
448,269;5,21
448,524;5,26
448,778;5,25
449,033;5,23
449,287;5,24
449,541;5,28
449,796;5,31
450,05;5,32
450,305;5,34
450,559;5,37
450,813;5,39
451,067;5,34
451,322;5,35
451,576;5,35
451,83;5,4
452,084;5,45
452,339;5,5
452,593;5,53
452,847;5,54
453,101;5,59
453,355;5,62
453,609;5,57
453,864;5,51
454,118;5,54
454,372;5,56
454,626;5,6
454,88;5,64
455,134;5,66
455,388;5,63
455,642;5,62
455,896;5,65
456,15;5,6
456,404;5,67
456,658;5,63
456,912;5,67
457,165;5,65
457,419;5,66
457,673;5,63
457,927;5,54
458,181;5,57
458,435;5,53
458,688;5,51
458,942;5,54
459,196;5,57
459,45;5,59
459,703;5,56
459,957;5,55
460,211;5,52
460,464;5,51
460,718;5,52
460,972;5,54
461,225;5,52
461,479;5,56
461,732;5,56
461,986;5,61
462,239;5,62
462,493;5,62
462,746;5,64
463;5,63
463,253;5,71
463,507;5,69
463,76;5,71
464,014;5,77
464,267;5,78
464,52;5,8
464,774;5,82
465,027;5,94
465,28;5,98
465,534;5,97
465,787;5,99
466,04;6,01
466,294;6,05
466,547;6,06
466,8;6,12
467,053;6,11
467,306;6,11
467,56;6,16
467,813;6,16
468,066;6,11
468,319;6,15
468,572;6,17
468,825;6,22
469,078;6,25
469,331;6,27
469,584;6,3
469,837;6,33
470,09;6,32
470,343;6,25
470,596;6,23
470,849;6,24
471,102;6,24
471,355;6,25
471,608;6,25
471,861;6,3
472,114;6,29
472,367;6,32
472,619;6,35
472,872;6,35
473,125;6,38
473,378;6,44
473,631;6,45
473,883;6,45
474,136;6,46
474,389;6,51
474,641;6,52
474,894;6,51
475,147;6,5
475,399;6,54
475,652;6,59
475,905;6,64
476,157;6,7
476,41;6,74
476,662;6,74
476,915;6,77
477,167;6,77
477,42;6,8
477,672;6,79
477,925;6,79
478,177;6,82
478,43;6,85
478,682;6,85
478,934;6,86
479,187;6,9
479,439;6,88
479,691;6,89
479,944;6,94
480,196;6,97
480,448;7,02
480,701;7,03
480,953;7,05
481,205;7,06
481,457;7,06
481,709;7,08
481,962;7,13
482,214;7,17
482,466;7,2
482,718;7,25
482,97;7,32
483,222;7,36
483,474;7,38
483,726;7,42
483,978;7,44
484,23;7,48
484,482;7,51
484,734;7,53
484,986;7,53
485,238;7,52
485,49;7,53
485,742;7,52
485,994;7,53
486,246;7,54
486,498;7,54
486,75;7,54
487,001;7,54
487,253;7,55
487,505;7,54
487,757;7,57
488,009;7,56
488,26;7,53
488,512;7,54
488,764;7,52
489,015;7,51
489,267;7,53
489,519;7,52
489,77;7,53
490,022;7,56
490,274;7,52
490,525;7,54
490,777;7,54
491,028;7,57
491,28;7,54
491,531;7,56
491,783;7,55
492,034;7,57
492,286;7,59
492,537;7,61
492,789;7,61
493,04;7,59
493,291;7,61
493,543;7,63
493,794;7,63
494,045;7,64
494,297;7,65
494,548;7,67
494,799;7,68
495,051;7,66
495,302;7,68
495,553;7,7
495,804;7,71
496,056;7,74
496,307;7,73
496,558;7,75
496,809;7,74
497,06;7,76
497,311;7,76
497,562;7,78
497,813;7,79
498,064;7,8
498,316;7,83
498,567;7,84
498,818;7,84
499,069;7,86
499,319;7,88
499,57;7,9
499,821;7,89
500,072;7,92
500,323;7,93
500,574;7,94
500,825;7,97
501,076;7,97
501,327;7,98
501,577;8,01
501,828;8,02
502,079;8,02
502,33;8,04
502,58;8,05
502,831;8,04
503,082;8,03
503,333;8,06
503,583;8,05
503,834;8,05
504,084;8,08
504,335;8,08
504,586;8,09
504,836;8,1
505,087;8,11
505,337;8,11
505,588;8,12
505,838;8,13
506,089;8,14
506,339;8,17
506,59;8,19
506,84;8,19
507,091;8,24
507,341;8,27
507,591;8,3
507,842;8,33
508,092;8,36
508,343;8,38
508,593;8,37
508,843;8,39
509,093;8,4
509,344;8,41
509,594;8,43
509,844;8,43
510,094;8,43
510,345;8,45
510,595;8,46
510,845;8,47
511,095;8,49
511,345;8,5
511,595;8,51
511,845;8,53
512,095;8,57
512,345;8,54
512,595;8,57
512,845;8,58
513,095;8,59
513,345;8,6
513,595;8,63
513,845;8,64
514,095;8,65
514,345;8,68
514,595;8,68
514,845;8,72
515,095;8,73
515,345;8,77
515,594;8,79
515,844;8,8
516,094;8,84
516,344;8,86
516,593;8,86
516,843;8,86
517,093;8,88
517,343;8,87
517,592;8,89
517,842;8,93
518,092;8,95
518,341;8,96
518,591;9
518,84;9,01
519,09;9,04
519,34;9,06
519,589;9,07
519,839;9,09
520,088;9,08
520,338;9,1
520,587;9,09
520,836;9,11
521,086;9,13
521,335;9,15
521,585;9,17
521,834;9,2
522,083;9,2
522,333;9,22
522,582;9,26
522,831;9,29
523,081;9,29
523,33;9,29
523,579;9,32
523,828;9,32
524,078;9,33
524,327;9,35
524,576;9,37
524,825;9,38
525,074;9,42
525,323;9,47
525,573;9,49
525,822;9,54
526,071;9,55
526,32;9,57
526,569;9,59
526,818;9,62
527,067;9,64
527,316;9,69
527,565;9,73
527,814;9,73
528,063;9,75
528,312;9,77
528,56;9,81
528,809;9,83
529,058;9,87
529,307;9,92
529,556;9,94
529,805;9,98
530,053;10,02
530,302;10,02
530,551;10,05
530,8;10,09
531,048;10,13
531,297;10,16
531,546;10,2
531,794;10,21
532,043;10,21
532,292;10,25
532,54;10,25
532,789;10,24
533,037;10,28
533,286;10,29
533,535;10,31
533,783;10,31
534,032;10,34
534,28;10,32
534,528;10,32
534,777;10,33
535,025;10,35
535,274;10,36
535,522;10,4
535,771;10,38
536,019;10,39
536,267;10,39
536,516;10,41
536,764;10,43
537,012;10,45
537,26;10,48
537,509;10,5
537,757;10,52
538,005;10,58
538,253;10,59
538,501;10,61
538,75;10,63
538,998;10,68
539,246;10,7
539,494;10,74
539,742;10,75
539,99;10,78
540,238;10,79
540,486;10,82
540,734;10,82
540,982;10,87
541,23;10,87
541,478;10,89
541,726;10,92
541,974;10,93
542,222;10,93
542,47;10,96
542,718;10,97
542,966;10,98
543,213;10,98
543,461;10,99
543,709;11,02
543,957;11,04
544,205;11,04
544,452;11,06
544,7;11,06
544,948;11,11
545,196;11,12
545,443;11,15
545,691;11,17
545,939;11,2
546,186;11,21
546,434;11,24
546,681;11,24
546,929;11,23
547,176;11,21
547,424;11,24
547,671;11,24
547,919;11,27
548,166;11,29
548,414;11,31
548,661;11,34
548,909;11,35
549,156;11,36
549,404;11,37
549,651;11,39
549,898;11,42
550,146;11,42
550,393;11,45
550,64;11,46
550,888;11,45
551,135;11,47
551,382;11,5
551,629;11,48
551,876;11,52
552,124;11,57
552,371;11,63
552,618;11,64
552,865;11,65
553,112;11,64
553,359;11,66
553,606;11,64
553,854;11,64
554,101;11,63
554,348;11,62
554,595;11,65
554,842;11,67
555,089;11,67
555,336;11,7
555,582;11,7
555,829;11,7
556,076;11,7
556,323;11,69
556,57;11,69
556,817;11,73
557,064;11,73
557,311;11,72
557,557;11,71
557,804;11,72
558,051;11,74
558,298;11,75
558,544;11,74
558,791;11,77
559,038;11,76
559,284;11,79
559,531;11,81
559,778;11,78
560,024;11,76
560,271;11,77
560,517;11,75
560,764;11,75
561,011;11,76
561,257;11,77
561,504;11,78
561,75;11,78
561,997;11,74
562,243;11,74
562,489;11,73
562,736;11,72
562,982;11,71
563,229;11,72
563,475;11,74
563,721;11,75
563,968;11,72
564,214;11,76
564,46;11,76
564,707;11,76
564,953;11,77
565,199;11,8
565,445;11,79
565,691;11,79
565,938;11,8
566,184;11,82
566,43;11,83
566,676;11,85
566,922;11,87
567,168;11,92
567,414;11,93
567,66;11,96
567,906;11,98
568,152;12
568,398;12,05
568,644;12,06
568,89;12,07
569,136;12,12
569,382;12,13
569,628;12,13
569,874;12,14
570,12;12,16
570,366;12,17
570,612;12,21
570,857;12,22
571,103;12,23
571,349;12,24
571,595;12,25
571,84;12,25
572,086;12,26
572,332;12,26
572,578;12,28
572,823;12,28
573,069;12,28
573,315;12,28
573,56;12,26
573,806;12,26
574,051;12,28
574,297;12,28
574,542;12,29
574,788;12,3
575,034;12,31
575,279;12,31
575,524;12,32
575,77;12,31
576,015;12,33
576,261;12,34
576,506;12,34
576,752;12,34
576,997;12,33
577,242;12,31
577,488;12,31
577,733;12,29
577,978;12,31
578,223;12,31
578,469;12,32
578,714;12,32
578,959;12,33
579,204;12,32
579,45;12,31
579,695;12,3
579,94;12,29
580,185;12,28
580,43;12,27
580,675;12,24
580,92;12,23
581,165;12,2
581,41;12,19
581,655;12,17
581,9;12,16
582,145;12,15
582,39;12,14
582,635;12,13
582,88;12,14
583,125;12,1
583,37;12,1
583,615;12,07
583,86;12,07
584,105;12,03
584,349;12,01
584,594;11,99
584,839;11,97
585,084;11,95
585,328;11,94
585,573;11,94
585,818;11,93
586,063;11,9
586,307;11,88
586,552;11,85
586,797;11,85
587,041;11,83
587,286;11,81
587,53;11,78
587,775;11,77
588,019;11,75
588,264;11,73
588,508;11,69
588,753;11,67
588,997;11,62
589,242;11,59
589,486;11,56
589,731;11,54
589,975;11,51
590,22;11,5
590,464;11,48
590,708;11,45
590,953;11,42
591,197;11,42
591,441;11,41
591,685;11,41
591,93;11,37
592,174;11,37
592,418;11,35
592,662;11,34
592,907;11,3
593,151;11,28
593,395;11,25
593,639;11,23
593,883;11,21
594,127;11,2
594,371;11,19
594,615;11,18
594,859;11,16
595,103;11,15
595,347;11,11
595,591;11,1
595,835;11,08
596,079;11,06
596,323;11,05
596,567;11,05
596,811;11,02
597,055;11,01
597,299;10,98
597,542;10,96
597,786;10,95
598,03;10,97
598,274;10,95
598,518;10,95
598,761;10,94
599,005;10,94
599,249;10,93
599,492;10,93
599,736;10,93
599,98;10,92
600,223;10,9
600,467;10,9
600,711;10,87
600,954;10,86
601,198;10,85
601,441;10,84
601,685;10,83
601,928;10,83
602,172;10,83
602,415;10,83
602,659;10,81
602,902;10,79
603,145;10,77
603,389;10,76
603,632;10,75
603,876;10,74
604,119;10,72
604,362;10,71
604,606;10,68
604,849;10,68
605,092;10,66
605,335;10,66
605,579;10,64
605,822;10,64
606,065;10,61
606,308;10,61
606,551;10,61
606,794;10,59
607,037;10,56
607,281;10,56
607,524;10,54
607,767;10,53
608,01;10,52
608,253;10,5
608,496;10,48
608,739;10,48
608,982;10,46
609,225;10,44
609,468;10,4
609,711;10,4
609,953;10,36
610,196;10,36
610,439;10,34
610,682;10,32
610,925;10,31
611,168;10,3
611,41;10,27
611,653;10,23
611,896;10,19
612,139;10,18
612,381;10,15
612,624;10,14
612,867;10,11
613,109;10,09
613,352;10,08
613,595;10,07
613,837;10,05
614,08;10,04
614,322;10,03
614,565;10,03
614,807;10,03
615,05;10,01
615,292;9,98
615,535;9,97
615,777;9,96
616,02;9,92
616,262;9,91
616,505;9,9
616,747;9,89
616,989;9,89
617,232;9,88
617,474;9,88
617,716;9,86
617,959;9,86
618,201;9,84
618,443;9,83
618,685;9,81
618,927;9,8
619,17;9,78
619,412;9,79
619,654;9,76
619,896;9,75
620,138;9,75
620,38;9,75
620,622;9,73
620,864;9,73
621,107;9,74
621,349;9,73
621,591;9,74
621,833;9,76
622,075;9,76
622,316;9,75
622,558;9,74
622,8;9,74
623,042;9,73
623,284;9,74
623,526;9,73
623,768;9,74
624,01;9,74
624,251;9,74
624,493;9,72
624,735;9,7
624,977;9,68
625,218;9,68
625,46;9,67
625,702;9,65
625,943;9,63
626,185;9,62
626,427;9,6
626,668;9,6
626,91;9,55
627,152;9,54
627,393;9,52
627,635;9,5
627,876;9,49
628,118;9,48
628,359;9,46
628,601;9,45
628,842;9,44
629,084;9,43
629,325;9,39
629,566;9,4
629,808;9,41
630,049;9,4
630,29;9,38
630,532;9,38
630,773;9,36
631,014;9,36
631,256;9,35
631,497;9,36
631,738;9,32
631,979;9,31
632,22;9,3
632,462;9,29
632,703;9,29
632,944;9,28
633,185;9,27
633,426;9,26
633,667;9,24
633,908;9,21
634,149;9,18
634,39;9,2
634,631;9,17
634,872;9,15
635,113;9,13
635,354;9,11
635,595;9,09
635,836;9,11
636,077;9,08
636,318;9,06
636,559;9,06
636,8;9,06
637,04;9,05
637,281;9,03
637,522;9,01
637,763;9
638,003;9
638,244;8,97
638,485;8,96
638,726;8,97
638,966;8,96
639,207;8,97
639,448;8,94
639,688;8,93
639,929;8,93
640,169;8,94
640,41;8,92
640,65;8,91
640,891;8,89
641,131;8,89
641,372;8,89
641,612;8,84
641,853;8,83
642,093;8,82
642,334;8,83
642,574;8,84
642,814;8,83
643,055;8,83
643,295;8,84
643,535;8,82
643,776;8,79
644,016;8,79
644,256;8,78
644,496;8,77
644,737;8,77
644,977;8,76
645,217;8,75
645,457;8,77
645,697;8,76
645,938;8,76
646,178;8,76
646,418;8,76
646,658;8,77
646,898;8,78
647,138;8,78
647,378;8,78
647,618;8,77
647,858;8,77
648,098;8,76
648,338;8,75
648,578;8,74
648,818;8,74
649,057;8,73
649,297;8,73
649,537;8,72
649,777;8,73
650,017;8,73
650,257;8,73
650,496;8,72
650,736;8,72
650,976;8,7
661,028;8,56
661,267;8,5
661,506;8,46
661,744;8,46
661,983;8,46
662,222;8,45
662,461;8,44
662,7;8,42
662,939;8,39
663,177;8,39
663,416;8,37
663,655;8,35
663,894;8,32
664,132;8,32
664,371;8,29
664,61;8,28
664,848;8,28
665,087;8,28
665,326;8,25
665,564;8,26
665,803;8,27
666,041;8,26
666,28;8,27
666,518;8,26
666,757;8,23
666,995;8,21
667,234;8,2
667,472;8,22
667,711;8,23
667,949;8,23
668,187;8,22
668,426;8,23
668,664;8,23
668,902;8,24
669,141;8,23
669,379;8,24
669,617;8,23
669,856;8,23
670,094;8,23
670,332;8,23
670,57;8,22
670,808;8,21
671,046;8,21
671,285;8,21
671,523;8,19
671,761;8,2
671,999;8,19
672,237;8,21
672,475;8,2
672,713;8,18
672,951;8,18
673,189;8,15
673,427;8,13
673,665;8,13
673,903;8,12
674,141;8,13
674,379;8,13
674,617;8,15
674,854;8,13
675,092;8,11
675,33;8,12
675,568;8,12
675,806;8,14
676,043;8,13
676,281;8,13
676,519;8,16
676,756;8,16
676,994;8,15
677,232;8,14
677,469;8,12
677,707;8,14
677,945;8,14
678,182;8,18
678,42;8,18
678,657;8,18
678,895;8,17
679,132;8,15
679,37;8,14
679,607;8,09
679,845;8,06
680,082;8,08
680,32;8,06
680,557;8,06
680,794;8,04
681,032;8,03
681,269;8,03
681,507;8
681,744;7,99
681,981;8,03
682,218;7,99
682,456;8,01
682,693;8
682,93;7,99
683,167;7,97
683,404;7,96
683,642;7,95
683,879;7,94
684,116;7,96
684,353;7,97
684,59;7,98
684,827;7,98
685,064;7,97
685,301;7,96
685,538;7,94
685,775;7,94
686,012;7,92
686,249;7,9
686,486;7,89
686,723;7,88
686,96;7,86
687,197;7,86
687,433;7,84
687,67;7,85
687,907;7,82
688,144;7,82
688,381;7,82
688,617;7,83
688,854;7,83
689,091;7,81
689,327;7,79
689,564;7,79
689,801;7,78
690,037;7,78
690,274;7,76
690,511;7,77
690,747;7,76
690,984;7,76
691,22;7,78
691,457;7,79
691,693;7,79
691,93;7,79
692,166;7,8
692,403;7,81
692,639;7,77
692,876;7,78
693,112;7,8
693,348;7,8
693,585;7,79
693,821;7,78
694,057;7,78
694,294;7,77
694,53;7,77
694,766;7,79
695,002;7,79
695,239;7,81
695,475;7,83
695,711;7,78
695,947;7,78
696,183;7,74
696,419;7,74
696,656;7,73
696,892;7,72
697,128;7,7
697,364;7,68
697,6;7,68
697,836;7,67
698,072;7,66
698,308;7,67
698,544;7,65
698,78;7,65
699,016;7,62
699,251;7,61
699,487;7,61
699,723;7,61
699,959;7,6
700,195;7,56
700,431;7,57
700,666;7,58
700,902;7,57
701,138;7,59
701,374;7,57
701,609;7,56
701,845;7,55
702,081;7,54
702,316;7,53
702,552;7,55
702,788;7,54
703,023;7,54
703,259;7,52
703,494;7,5
703,73;7,51
703,965;7,53
704,201;7,53
704,436;7,51
704,672;7,5
704,907;7,53
705,143;7,55
705,378;7,51
705,613;7,52
705,849;7,53
706,084;7,52
706,319;7,49
706,555;7,51
706,79;7,52
707,025;7,52
707,26;7,52
707,496;7,51
707,731;7,5
707,966;7,51
708,201;7,51
708,436;7,52
708,671;7,5
708,907;7,48
709,142;7,48
709,377;7,49
709,612;7,51
709,847;7,52
710,082;7,5
710,317;7,49
710,552;7,49
710,787;7,47
711,022;7,48
711,257;7,51
711,492;7,5
711,726;7,49
711,961;7,51
712,196;7,52
712,431;7,51
712,666;7,5
712,901;7,48
713,135;7,47
713,37;7,5
713,605;7,51
713,839;7,49
714,074;7,49
714,309;7,48
714,543;7,47
714,778;7,42
715,013;7,43
715,247;7,43
715,482;7,45
715,716;7,47
715,951;7,44
716,185;7,41
716,42;7,4
716,654;7,37
716,889;7,35
717,123;7,32
717,358;7,31
717,592;7,32
717,827;7,32
718,061;7,32
718,295;7,26
718,53;7,26
718,764;7,24
718,998;7,22
719,232;7,23
719,467;7,22
719,701;7,23
719,935;7,23
720,169;7,22
720,403;7,21
720,638;7,2
720,872;7,21
721,106;7,23
721,34;7,24
721,574;7,24
721,808;7,24
722,042;7,23
722,276;7,22
722,51;7,23
722,744;7,23
722,978;7,23
723,212;7,25
723,446;7,25
723,68;7,29
723,914;7,3
724,147;7,31
724,381;7,31
724,615;7,32
724,849;7,3
725,083;7,33
725,316;7,32
725,55;7,31
725,784;7,31
726,018;7,3
726,251;7,29
726,485;7,3
726,719;7,3
726,952;7,32
727,186;7,37
727,419;7,37
727,653;7,37
727,887;7,38
728,12;7,38
728,354;7,38
728,587;7,35
728,821;7,32
729,054;7,31
729,287;7,32
729,521;7,29
729,754;7,3
729,988;7,27
730,221;7,29
730,454;7,29
730,688;7,29
730,921;7,3
731,154;7,28
731,387;7,3
731,621;7,32
731,854;7,32
732,087;7,3
732,32;7,29
732,553;7,27
732,787;7,24
733,02;7,25
733,253;7,24
733,486;7,24
733,719;7,24
733,952;7,23
734,185;7,2
734,418;7,22
734,651;7,2
734,884;7,22
735,117;7,21
735,35;7,2
735,583;7,2
735,816;7,2
736,049;7,19
736,281;7,18
736,514;7,16
736,747;7,17
736,98;7,19
737,213;7,19
737,445;7,2
737,678;7,21
737,911;7,2
738,144;7,2
738,376;7,23
738,609;7,25
738,842;7,25
739,074;7,23
739,307;7,25
739,539;7,25
739,772;7,24
740,004;7,23
740,237;7,23
740,469;7,23
740,702;7,19
740,934;7,22
741,167;7,19
741,399;7,21
741,632;7,22
741,864;7,17
742,096;7,15
742,329;7,16
742,561;7,17
742,793;7,17
743,026;7,16
743,258;7,17
743,49;7,16
743,723;7,17
743,955;7,17
744,187;7,16
744,419;7,18
744,651;7,17
744,883;7,16
745,115;7,17
745,348;7,17
745,58;7,19
745,812;7,19
746,044;7,23
746,276;7,18
746,508;7,15
746,74;7,18
746,972;7,2
747,204;7,19
747,436;7,17
747,667;7,15
747,899;7,17
748,131;7,13
748,363;7,12
748,595;7,11
748,827;7,14
749,058;7,14
749,29;7,12
749,522;7,11
749,754;7,1
749,985;7,08
750,217;7,04
750,449;7,05
750,68;7,03
750,912;7,03
751,144;7,08
751,375;7,1
751,607;7,11
751,838;7,12
752,07;7,13
752,301;7,14
752,533;7,13
752,764;7,12
752,996;7,15
753,227;7,14
753,459;7,16
753,69;7,15
753,921;7,16
754,153;7,12
754,384;7,14
754,615;7,12
754,847;7,17
755,078;7,22
755,309;7,27
755,54;7,26
755,772;7,26
756,003;7,24
756,234;7,23
756,465;7,21
756,696;7,19
756,927;7,2
757,159;7,17
757,39;7,2
757,621;7,2
757,852;7,18
758,083;7,17
758,314;7,19
758,545;7,19
758,776;7,18
759,007;7,21
759,238;7,22
759,469;7,25
759,699;7,26
759,93;7,22
760,161;7,17
760,392;7,18
760,623;7,14
760,854;7,12
761,084;7,12
761,315;7,14
761,546;7,14
761,776;7,12
762,007;7,15
762,238;7,12
762,468;7,14
762,699;7,2
762,93;7,21
763,16;7,17
763,391;7,16
763,621;7,14
763,852;7,14
764,083;7,12
764,313;7,1
764,543;7,09
764,774;7,11
765,004;7,1
765,235;7,1
765,465;7,13
765,696;7,14
765,926;7,16
766,156;7,12
766,387;7,13
766,617;7,14
766,847;7,16
767,077;7,15
767,308;7,15
767,538;7,12
767,768;7,11
767,998;7,14
768,228;7,16
768,459;7,16
768,689;7,19
768,919;7,21
769,149;7,27
769,379;7,27
769,609;7,3
769,839;7,32
770,069;7,33
770,299;7,33
770,529;7,35
770,759;7,34
770,989;7,32
771,219;7,34
771,449;7,33
771,678;7,31
771,908;7,34
772,138;7,33
772,368;7,34
772,598;7,34
772,827;7,36
773,057;7,35
773,287;7,4
773,517;7,38
773,746;7,37
773,976;7,34
774,206;7,35
774,435;7,35
774,665;7,35
774,894;7,34
775,124;7,34
775,354;7,33
775,583;7,34
775,813;7,37
776,042;7,35
776,272;7,36
776,501;7,37
776,73;7,38
776,96;7,39
777,189;7,39
777,419;7,43
777,648;7,42
777,877;7,43
778,107;7,38
778,336;7,39
778,565;7,39
778,794;7,39
779,024;7,37
779,253;7,38
779,482;7,35
779,711;7,36
779,94;7,37
780,17;7,39
780,399;7,37
780,628;7,4
780,857;7,42
781,086;7,42
781,315;7,46
781,544;7,48
781,773;7,49
782,002;7,48
782,231;7,48
782,46;7,47
782,689;7,49
782,918;7,5
783,147;7,49
783,375;7,53
783,604;7,54
783,833;7,55
784,062;7,52
784,291;7,56
784,519;7,59
784,748;7,6
784,977;7,6
785,206;7,63
785,434;7,66
785,663;7,66
785,892;7,69
786,12;7,68
786,349;7,66
786,577;7,63
786,806;7,64
787,034;7,6
787,263;7,63
787,492;7,65
787,72;7,69
787,948;7,74
788,177;7,72
788,405;7,72
788,634;7,73
788,862;7,79
789,09;7,76
789,319;7,75
789,547;7,74
789,775;7,72
790,004;7,7
790,232;7,7
790,46;7,71
790,688;7,68
790,917;7,68
791,145;7,66
791,373;7,69
791,601;7,73
791,829;7,77
792,057;7,78
792,286;7,75
792,514;7,69
792,742;7,68
792,97;7,7
793,198;7,68
793,426;7,67
793,654;7,65
793,882;7,69
794,109;7,71
794,337;7,73
794,565;7,74
794,793;7,77
795,021;7,74
795,249;7,72
795,477;7,74
795,704;7,78
795,932;7,79
796,16;7,78
796,388;7,77
796,615;7,75
796,843;7,69
797,071;7,75
797,298;7,8
797,526;7,78
797,754;7,77
797,981;7,76
798,209;7,77
798,436;7,76
798,664;7,74
798,891;7,73
799,119;7,71
799,346;7,72
799,574;7,71
799,801;7,76
800,029;7,75
800,256;7,78
800,483;7,76
800,711;7,79
800,938;7,77
801,165;7,76
801,393;7,76
801,62;7,81
801,847;7,82
802,074;7,8
802,302;7,8
802,529;7,82
802,756;7,84
802,983;7,86
803,21;7,89
803,437;7,89
803,665;7,91
803,892;7,92
804,119;7,91
804,346;7,87
804,573;7,84
804,8;7,85
805,027;7,86
805,254;7,86
805,481;7,82
805,708;7,9
805,934;7,96
806,161;7,95
806,388;7,94
806,615;7,92
806,842;7,95
807,069;7,97
807,295;7,99
807,522;8,02
807,749;8,04
807,976;8
808,202;8,07
808,429;8,05
808,656;8,05
808,882;8,12
809,109;8,14
809,335;8,14
809,562;8,14
809,789;8,12
810,015;8,13
810,242;8,19
810,468;8,18
810,695;8,13
810,921;8,17
811,147;8,18
811,374;8,18
811,6;8,2
811,827;8,25
812,053;8,2
812,279;8,26
812,506;8,29
812,732;8,35
812,958;8,32
813,185;8,32
813,411;8,31
813,637;8,27
813,863;8,3
814,089;8,35
814,315;8,37
814,542;8,35
814,768;8,34
814,994;8,28
815,22;8,3
815,446;8,33
815,672;8,3
815,898;8,29
816,124;8,26
816,35;8,23
816,576;8,18
816,802;8,22
817,028;8,18
817,254;8,17
817,48;8,13
817,705;8,11
817,931;8,13
818,157;8,16
818,383;8,17
818,609;8,15
818,834;8,1
819,06;8,11
819,286;8,16
819,512;8,22
819,737;8,24
819,963;8,19
820,189;8,16
820,414;8,22
820,64;8,25
820,865;8,3
821,091;8,33
821,316;8,31
821,542;8,31
821,767;8,28
821,993;8,28
822,218;8,28
822,444;8,29
822,669;8,27
822,895;8,3
823,12;8,31
823,345;8,33
823,571;8,32
823,796;8,33
824,021;8,3
824,247;8,26
824,472;8,31
824,697;8,32
824,922;8,35
825,147;8,33
825,373;8,33
825,598;8,31
825,823;8,33
826,048;8,35
826,273;8,3
826,498;8,32
826,723;8,3
826,948;8,31
827,173;8,3
827,398;8,35
827,623;8,32
827,848;8,34
828,073;8,35
828,298;8,4
828,523;8,38
828,748;8,4
828,973;8,4
829,197;8,45
829,422;8,5
829,647;8,46
829,872;8,46
830,097;8,48
830,321;8,54
830,546;8,53
830,771;8,53
830,995;8,59
831,22;8,61
831,445;8,58
831,669;8,57
831,894;8,57
832,118;8,51
832,343;8,51
832,567;8,49
832,792;8,47
833,016;8,48
833,241;8,48
833,465;8,48
833,69;8,43
833,914;8,4
834,139;8,36
834,363;8,4
834,587;8,38
834,812;8,35
835,036;8,31
835,26;8,3
835,485;8,32
835,709;8,32
835,933;8,32
836,157;8,38
836,381;8,42
836,606;8,43
836,83;8,45
837,054;8,49
837,278;8,48
837,502;8,48
837,726;8,47
837,95;8,43
838,174;8,42
838,398;8,48
838,622;8,45
838,846;8,43
839,07;8,36
839,294;8,35
839,518;8,39
839,742;8,41
839,966;8,44
840,189;8,43
840,413;8,44
840,637;8,46
840,861;8,44
841,085;8,36
841,308;8,34
841,532;8,37
841,756;8,38
841,979;8,39
842,203;8,42
842,427;8,4
842,65;8,46
842,874;8,49
843,098;8,47
843,321;8,49
843,545;8,51
843,768;8,58
843,992;8,63
844,215;8,58
844,439;8,58
844,662;8,56
844,886;8,54
845,109;8,55
845,332;8,49
845,556;8,47
845,779;8,52
846,002;8,54
846,226;8,53
846,449;8,44
846,672;8,4
846,895;8,43
847,119;8,44
847,342;8,42
847,565;8,41
847,788;8,4
848,011;8,37
848,234;8,39
848,457;8,36
848,681;8,29
848,904;8,28
849,127;8,3
849,35;8,29
849,573;8,38
849,796;8,41
850,019;8,42
850,241;8,47
850,464;8,44
850,687;8,45
850,91;8,46
851,133;8,51
851,356;8,57
851,579;8,57
851,801;8,54
852,024;8,6
852,247;8,53
852,47;8,47
852,692;8,46
852,915;8,48
853,138;8,57
853,36;8,62
853,583;8,58
853,806;8,53
854,028;8,49
854,251;8,41
854,473;8,37
854,696;8,38
854,918;8,35
855,141;8,37
855,363;8,36
855,586;8,35
855,808;8,31
856,031;8,35
856,253;8,33
856,475;8,34
856,698;8,26
856,92;8,32
857,142;8,4
857,365;8,41
857,587;8,33
857,809;8,24
858,031;8,24
858,253;8,28
858,476;8,34
858,698;8,39
858,92;8,32
859,142;8,33
859,364;8,35
859,586;8,38
859,808;8,37
860,03;8,35
860,252;8,36
860,474;8,45
860,696;8,44
860,918;8,42
861,14;8,45
861,362;8,51
861,584;8,46
861,806;8,45
862,028;8,43
862,25;8,47
862,471;8,49
862,693;8,46
862,915;8,45
863,137;8,45
863,358;8,49
863,58;8,65
863,802;8,65
864,024;8,68
864,245;8,64
864,467;8,69
864,688;8,73
864,91;8,76
865,132;8,65
865,353;8,61
865,575;8,64
865,796;8,58
866,018;8,59
866,239;8,63
866,461;8,61
866,682;8,63
866,903;8,59
867,125;8,6
867,346;8,62
867,567;8,66
867,789;8,62
868,01;8,55
868,231;8,43
868,453;8,39
868,674;8,35
868,895;8,44
869,116;8,35
869,337;8,41
869,559;8,38
869,78;8,45
870,001;8,42
870,222;8,42
870,443;8,41
870,664;8,35
870,885;8,38
871,106;8,4
871,327;8,41
871,548;8,41
871,769;8,32
871,99;8,36
872,211;8,35
872,432;8,38
872,653;8,42
872,874;8,54
873,094;8,56
873,315;8,49
873,536;8,39
873,757;8,43
873,978;8,43
874,198;8,47
874,419;8,47
874,64;8,48
874,86;8,43
875,081;8,46
875,302;8,55
875,522;8,59
875,743;8,61
875,963;8,63
876,184;8,69
876,404;8,7
876,625;8,64
876,845;8,63
877,066;8,67
877,286;8,68
877,507;8,68
877,727;8,64
877,947;8,68
878,168;8,68
878,388;8,68
878,609;8,65
878,829;8,63
879,049;8,63
879,269;8,77
879,49;8,83
879,71;8,8
879,93;8,75
880,15;8,7
880,37;8,73
880,59;8,64
880,811;8,65
881,031;8,71
881,251;8,68
881,471;8,65
881,691;8,63
881,911;8,63
882,131;8,56
882,351;8,66
882,571;8,59
882,791;8,7
883,011;8,72
883,23;8,71
883,45;8,69
883,67;8,69
883,89;8,58
884,11;8,51
884,33;8,58
884,549;8,56
884,769;8,52
884,989;8,5
885,209;8,6
885,428;8,63
885,648;8,58
885,868;8,64
886,087;8,75
886,307;8,71
886,526;8,66
886,746;8,73
886,965;8,69
887,185;8,87
887,404;8,81
887,624;8,89
887,843;8,88
888,063;8,9
888,282;8,87
888,502;8,9
888,721;9,02
888,94;9,01
889,16;9,03
889,379;9,08
889,598;9,06
889,818;9,07
890,037;9,09
890,256;9,15
890,475;9,18
890,694;9,16
890,914;9,22
891,133;9,16
891,352;9,15
891,571;9,09
891,79;9
892,009;9,01
892,228;9,01
892,447;9,07
892,666;9,05
892,885;9,12
893,104;9,14
893,323;9,16
893,542;9,11
893,761;9,09
893,98;9,15
894,199;9,15
894,417;9,07
894,636;8,98
894,855;9
895,074;8,94
895,293;8,87
895,511;8,84
895,73;8,89
895,949;8,76
896,167;8,81
896,386;8,84
896,605;8,91
896,823;8,86
897,042;8,8
897,26;8,74
897,479;8,69
897,697;8,68
897,916;8,59
898,134;8,62
898,353;8,63
898,571;8,57
898,79;8,54
899,008;8,66
899,227;8,79
899,445;8,8
899,663;8,81
899,882;8,91
900,1;8,89
900,318;8,92
900,536;9,02
900,755;9,05
900,973;8,92
901,191;8,75
901,409;8,65
901,627;8,63
901,846;8,78
902,064;8,73
902,282;8,8
902,5;8,75
902,718;8,78
902,936;8,77
903,154;8,68
903,372;8,58
903,59;8,52
903,808;8,43
904,026;8,55
904,244;8,63
904,462;8,53
904,679;8,52
904,897;8,56
905,115;8,53
905,333;8,55
905,551;8,64
905,768;8,73
905,986;8,8
906,204;8,75
906,422;8,7
906,639;8,73
906,857;8,68
907,074;8,74
907,292;8,59
907,51;8,61
907,727;8,72
907,945;8,87
908,162;8,89
908,38;8,86
908,597;8,72
908,815;8,71
909,032;8,76
909,25;8,77
909,467;8,73
909,684;8,78
909,902;8,71
910,119;8,63
910,337;8,72
910,554;8,69
910,771;8,75
910,988;8,75
911,206;8,86
911,423;8,91
911,64;8,98
911,857;9,14
912,074;9,12
912,291;9,09
912,509;9,04
912,726;9,05
912,943;9,02
913,16;9,04
913,377;9
913,594;8,97
913,811;9,04
914,028;9,01
914,245;9,09
914,462;9,12
914,679;9,14
914,896;9,11
915,112;9,15
915,329;9,3
915,546;9,27
915,763;9,21
915,98;9,01
916,196;8,87
916,413;8,89
916,63;9,09
916,847;9,05
917,063;9,1
917,28;9,06
917,497;9,14
917,713;9,18
917,93;9,22
918,146;9,19
918,363;9,27
918,579;9,24
918,796;9,19
919,012;9,3
919,229;9,38
919,445;9,46
919,662;9,52
919,878;9,42
920,095;9,48
920,311;9,47
920,527;9,65
920,744;9,71
920,96;9,72
921,176;9,51
921,392;9,46
921,609;9,58
921,825;9,63
922,041;9,66
922,257;9,5
922,473;9,57
922,69;9,7
922,906;9,51
923,122;9,59
923,338;9,53
923,554;9,36
923,77;9,37
923,986;9,25
924,202;9,27
924,418;9,24
924,634;9,14
924,85;9,14
925,066;9,17
925,282;9,22
925,497;9,16
925,713;9,21
925,929;9,42
926,145;9,31
926,361;9,29
926,576;9,23
926,792;9,25
927,008;9,2
927,224;9,14
927,439;9,22
927,655;9,14
927,871;9,02
928,086;9,13
928,302;9,14
928,517;9,21
928,733;9,19
928,948;9,17
929,164;9,15
929,379;9,21
929,595;9,16
929,81;9,22
930,026;9,13
930,241;9,25
930,456;8,99
930,672;9,03
930,887;9,12
931,102;9,18
931,318;9,31
931,533;9,33
931,748;9,28
931,964;9,26
932,179;9,35
932,394;9,4
932,609;9,45
932,824;9,47
933,039;9,32
933,255;9,25
933,47;9,24
933,685;9,23
933,9;9,26
934,115;9,19
934,33;9,05
934,545;9,28
934,76;9,14
934,975;9,41
935,19;9,37
935,404;9,31
935,619;9,41
935,834;9,44
936,049;9,5
936,264;9,49
936,479;9,54
936,693;9,58
936,908;9,96
937,123;9,95
937,338;10,13
937,552;10,25
937,767;10,41
937,982;10,73
938,196;10,92
938,411;10,77
938,625;10,99
938,84;11,17
939,055;11,13
939,269;11,26
939,484;11,49
939,698;11,7
939,912;11,97
940,127;11,74
940,341;11,41
940,556;11,17
940,77;11,68
940,984;11,7
941,199;11,66
941,413;11
941,627;10,83
941,842;10,85
942,056;11,37
942,27;11,48
942,484;11,25
942,699;11,19
942,913;11,34
943,127;11,36
943,341;11,38
943,555;11,08
943,769;11,18
943,983;10,56
944,197;10,23
944,411;10,27
944,625;11,05
944,839;11,65
945,053;12,26
945,267;12,32
945,481;12,41
945,695;12,75
945,909;13,29
946,123;13,65
946,336;13,66
946,55;13,74
946,764;13,95
946,978;14,24
947,192;14,73
947,405;14,49
947,619;14,91
947,833;14,84
948,046;15,58
948,26;15,56
948,474;15,69
948,687;15,8
948,901;14,98
949,114;14,82
949,328;14,73
949,541;14,02
949,755;13,86
949,968;14,12
950,182;13,75
950,395;13,51
950,609;13,37
950,822;12,8
951,035;12,64
951,249;12,04
951,462;12,06
951,675;11,45
951,889;11,65
952,102;11,1
952,315;11,61
952,528;11,29
952,741;11,39
952,955;11,45
953,168;11,46
953,381;11,88
953,594;11,79
953,807;11,94
954,02;12,13
954,233;11,81
954,446;11,58
954,659;12,06
954,872;11,9
955,085;11,85
955,298;12,08
955,511;11,86
955,724;11,89
955,937;11,91
956,15;11,85
956,362;12,01
956,575;12,07
956,788;11,56
957,001;11,47
957,214;10,97
957,426;11,26
957,639;11,25
957,852;10,9
958,064;10,7
958,277;10,57
958,49;10,51
958,702;10,47
958,915;10,62
959,127;10,08
959,34;10,39
959,552;10,3
959,765;10,15
959,977;10,36
960,19;10,74
960,402;10,52
960,615;10,91
960,827;10,48
961,039;10,4
961,252;10,41
961,464;10,66
961,676;11,03
961,889;10,61
962,101;10,44
962,313;10,79
962,525;10,85
962,738;10,86
962,95;10,85
963,162;11,09
963,374;10,85
963,586;10,83
963,798;10,53
964,01;10,54
964,222;10,58
964,434;10,28
964,646;9,81
964,858;9,91
965,07;9,98
965,282;10,27
965,494;10,19
965,706;10,18
965,918;10,09
966,13;10,3
966,342;10,44
966,553;10,47
966,765;10,6
966,977;10,81
967,189;10,73
967,401;10,89
967,612;10,45
967,824;10,68
968,036;10,67
968,247;10,69
968,459;10,64
968,67;10,45
968,882;10,72
969,094;10,96
969,305;11,08
969,517;11,19
969,728;11,34
969,94;11,72
970,151;11,59
970,362;11,2
970,574;11,17
970,785;11,38
970,997;11,58
971,208;11,21
971,419;10,79
971,631;10,49
971,842;10,41
972,053;11,1
972,264;11,13
972,476;11,47
972,687;11,6
972,898;11,61
973,109;11,87
973,32;11,81
973,531;11,89
973,742;11,66
973,954;11,7
974,165;11,04
974,376;10,97
974,587;11,38
974,798;11,57
975,009;11,11
975,22;10,85
975,43;10,96
975,641;11,11
975,852;11,26
976,063;11,81
976,274;11,71
976,485;11,44
976,695;10,92
976,906;10,93
977,117;11,1
977,328;11,45
977,538;11,65
977,749;11,71
977,96;11,92
978,17;12,12
978,381;11,81
978,592;12,87
978,802;12,94
979,013;13,09
979,223;13,2
979,434;13,56
979,644;14,11
979,855;14,26
980,065;14,39
980,276;14,25
980,486;14,14
980,696;13,82
980,907;13,39
981,117;13,92
981,327;13,58
981,538;13,35
981,748;12,75
981,958;12,96
982,169;13,13
982,379;12,8
982,589;12,77
982,799;12,68
983,009;11,88
983,219;12,03
983,43;11,53
983,64;11,57
983,85;11,94
984,06;11,67
984,27;10,97
984,48;11,29
984,69;11,39
984,9;10,99
985,11;11,7
985,32;12,1
985,529;12,17
985,739;12,54
985,949;13,03
986,159;13,45
986,369;13
986,579;12,84
986,788;13,26
986,998;13,39
987,208;13,33
987,417;13,65
987,627;13,25
987,837;13,34
988,046;13,1
988,256;13,07
988,466;12,93
988,675;13,2
988,885;13,07
989,094;13,2
989,304;13,8
989,513;14,07
989,723;14,15
989,932;14,24
990,142;14,41
990,351;14,24
990,56;14,26
990,77;13,98
990,979;14,04
991,188;14,25
991,398;14,13
991,607;14,13
991,816;14,42
992,025;14,84
992,235;14,96
992,444;15,74
992,653;15,41
992,862;15,48
993,071;15,33
993,28;15,65
993,489;15,43
993,698;15,07
993,908;14,25
994,117;14,07
994,326;14,22
994,534;13,67
994,743;13,76
994,952;14,05
995,161;14,32
995,37;14,55
995,579;13,94
995,788;13,95
995,997;14,19
996,205;14,47
996,414;14,46
996,623;14,32
996,832;13,9
997,04;14,28
997,249;14,17
997,458;15,05
997,666;14,75
997,875;15,27
998,084;14,82
998,292;15,54
998,501;16,11
998,709;15,74
998,918;15,46
999,126;15,31
999,335;15,96
999,543;16,36
999,752;15,97
999,96;16,2
1000,169;15,68
1000,377;14,93
1000,585;14,24
1000,794;13,89
1001,002;14,23
1001,21;14,26
1001,418;13,76
1001,627;14,12
1001,835;13,62
1002,043;13,8
1002,251;14,02
1002,459;14,22
1002,668;13,71
1002,876;13,99
1003,084;14,01
1003,292;14,3
1003,5;14,11
1003,708;13,47
1003,916;12,76
1004,124;12,71
1004,332;12,85
1004,54;13,11
1004,748;14,11
1004,956;14,55
1005,163;14,47
1005,371;14,61
1005,579;14,31
1005,787;14,77
1005,995;14,41
1006,202;14,48
1006,41;14,65
1006,618;13,89
1006,826;14,52
1007,033;14,64
1007,241;13,79
1007,449;14,18
1007,656;14,9
1007,864;14,6
1008,071;14,33
1008,279;15,13
1008,486;15,3
1008,694;14,46
1008,901;14,34
1009,109;13,88
1009,316;13,53
1009,524;13,82
1009,731;13,61
1009,938;14,71
1010,146;14,47
1010,353;15,16
1010,56;15,55
1010,768;14,89
1010,975;15,81
1011,182;14,97
1011,389;15,45
1011,597;15,98
1011,804;16,09
1012,011;15,63
1012,218;16,16
1012,425;17,03
1012,632;17,44
1012,839;18,26
1013,046;19,08
1013,253;19,89
1013,46;20,46
1013,667;20,85
1013,874;20,59
1014,081;21
1014,288;20,3
1014,495;19,94
1014,702;18,33
1014,909;17,51
1015,116;16,85
1015,323;16,53
1015,529;18,03
1015,736;18,32
1015,943;18,15
1016,15;16,93
1016,356;17,08
1016,563;16,97
1016,77;15,97
1016,976;16,49
1017,183;15,86
1017,389;15,95
1017,596;16,24
1017,803;15,63
1018,009;16,05
1018,216;15,89
1018,422;14,44
1018,629;14,78
1018,835;15,31
1019,041;16,39
1019,248;17,62
1019,454;18,69
1019,661;17,25
1019,867;16,34
1020,073;16,29
1020,279;16,93
1020,486;17,74
1020,692;19,05
1020,898;17,84
1021,104;17,03
1021,311;16,02
1021,517;14,62
1021,723;14,23
1021,929;13,34
1022,135;14,12
1022,341;12,52
1022,547;13,68
1022,753;15,07
1022,959;15,05
1023,165;15,02
1023,371;15,53
1023,577;13,61
1023,783;13,37
1023,989;15,5
1024,195;16,9
1024,401;17,4
1024,607;16,52
1024,812;16,22
1025,018;15,78
1025,224;16,76
1025,43;17,96
1025,635;17,75
1025,841;19,7
1026,047;19,02
1026,252;20,08
1026,458;19,32
1026,664;19,58
1026,869;19,77
1027,075;20,79
1027,28;20,48
1027,486;20,29
1027,691;19,62
1027,897;21,79
1028,102;20,66
1028,308;19,3
1028,513;18,84
1028,719;18,26
1028,924;18,34
1029,129;18,9
1029,335;17,83
1029,54;18,3
1029,745;18,02
1029,95;16,97
1030,156;17,15
1030,361;18,95
1030,566;19,75
1030,771;19,95
1030,976;21,15
1031,182;23,06
1031,387;21,95
1031,592;20,31
1031,797;20
1032,002;19,49
1032,207;18,7
1032,412;19,25
1032,617;21,62
1032,822;20,11
1033,027;20,9
1033,232;21,63
1033,437;19,83
1033,642;19,96
1033,846;20,41
1034,051;20,02
1034,256;21,1
1034,461;18,48
1034,666;19,24
1034,87;17,11
1035,075;17,08
1035,28;15,11
1035,484;12,4
1035,689;9,8
1035,894;11,48
1036,098;11,51
1036,303;13,91
1036,507;13,11
1036,712;14,18
1036,917;12,81
1037,121;14,06
1037,325;12,45
1037,53;12,06
1037,734;13,58
1037,939;14,6
1038,143;13,26
1038,348;15,08
1038,552;16,12
1038,756;17,34
1038,961;16,48
1039,165;15,33
1039,369;16,29
1039,573;16,64
1039,778;15,21
1039,982;19,16
1040,186;18,31
1040,39;19,68
1040,594;20,05
1040,798;21,27
1041,002;21,71
1041,206;20,58
1041,41;20,95
1041,614;19,77
1041,818;19,85
1042,022;19,01
1042,226;19,52
1042,43;21,02
1042,634;21,03
1042,838;20,54
1043,042;20,79
1043,246;17,74
1043,45;18,11
1043,653;18,21
1043,857;20,06
1044,061;19,57
1044,265;16,91
1044,468;19,69
1044,672;19,35
1044,876;15,74
1045,079;14,03
1045,283;14,98
1045,487;14,48
1045,69;13,55
1045,894;16,61
1046,097;19,6
1046,301;21,8
1046,504;20,71
1046,708;22,78
1046,911;19,53
1047,115;18,49
1047,318;14,93
1047,522;18,52
1047,725;19,7
1047,928;20,4
1048,132;18,83
1048,335;20,47
1048,538;20,22
1048,741;18,89
1048,945;19,1
1049,148;23,33
1049,351;22,9
1049,554;21,98
1049,757;25,53
1049,96;25,28
1050,163;23,72
1050,367;18,72
1050,57;22,02
1050,773;19,84
1050,976;19,15
1051,179;20,54
1051,382;21,35
1051,585;26,08
1051,787;24,7
1051,99;27,88
1052,193;28,35
1052,396;28,83
1052,599;29,79
1052,802;33,39
1053,005;31,64
1053,207;31,2
1053,41;28,09
1053,613;30,8
1053,815;31,05
1054,018;32,4
1054,221;28,61
1054,423;29,41
1054,626;30,74
1054,829;26,25
1055,031;29,31
1055,234;27,21
1055,436;28,33
1055,639;29,35
1055,841;28,3
1056,044;29,57
1056,246;24,27
