Data from terraverdeCiproWhite_Reflection__0__40.txt Node;
"Date: Wed Sep 10 12:37:34 CEST 2025 User: sycur Spectrometer: SR400348 Trigger mode: 0 Integration Time (sec): 1,000000E-2 Scans to average: 10 Electric dark correction enabled: true Nonlinearity correction enabled: false Boxcar width: 10 XAxis mode: Wavelengths Number of Pixels in Spectrum: 3648 >>>>>Begin Spectral Data<<<<<";
186,01;62,78
186,281;59,21
186,552;84,17
186,822;114,63
187,093;766,67
187,364;410,37
187,635;164,52
187,905;119,62
188,176;126,63
188,447;101,4
188,717;80,87
188,988;65,61
189,258;61,28
189,529;63,51
189,8;66,56
190,07;62,38
190,341;60,51
190,611;59,18
190,882;56,42
191,152;56,58
191,423;53,41
191,693;50,5
191,964;50,8
192,234;50,83
192,505;48,59
192,775;51,58
193,045;50,59
193,316;47,09
193,586;46,15
193,856;44,27
194,127;44,75
194,397;44,82
194,667;45,12
194,938;45,62
195,208;45,01
195,478;43,65
195,748;44,85
196,019;45,42
196,289;44,18
196,559;43,47
196,829;43,31
197,099;44,66
197,37;44,6
197,64;43,66
197,91;42,98
198,18;44,21
198,45;43,68
198,72;42,98
198,99;44,32
199,26;44,51
199,53;44,54
199,8;44,54
200,07;43,63
200,34;44,07
200,61;43,5
200,88;44,05
201,15;43,97
201,42;43,86
201,69;43,85
201,96;43,96
202,23;44,49
202,499;44,68
202,769;43,64
203,039;43,01
203,309;42,41
203,579;42,14
203,849;41,59
204,118;41,16
204,388;41,31
204,658;41,1
204,927;40,37
205,197;39,68
205,467;39,61
205,736;40,12
206,006;40
206,276;40,33
206,545;40,2
206,815;40,15
207,085;40,06
207,354;40,03
207,624;39,83
207,893;39,35
208,163;39,21
208,432;39,2
208,702;39,21
208,971;39,36
209,241;39,45
209,51;39,68
209,78;39,7
210,049;39,59
210,318;39,43
210,588;39,97
210,857;40,08
211,127;39,86
211,396;39,76
211,665;39,64
211,935;39,44
212,204;39,24
212,473;39,36
212,742;39,19
213,012;39,18
213,281;38,99
213,55;39,18
213,819;39,12
214,088;39,16
214,358;39,19
214,627;39,25
214,896;38,82
215,165;38,69
215,434;38,57
215,703;38,44
215,972;38,44
216,241;38,2
216,51;38,23
216,779;38,11
217,048;38,13
217,317;37,99
217,586;38
217,855;37,89
218,124;37,81
218,393;37,69
218,662;37,65
218,931;37,85
219,2;37,73
219,469;37,7
219,738;37,79
220,006;37,68
220,275;37,66
220,544;37,88
220,813;37,82
221,082;37,89
221,35;37,92
221,619;37,96
221,888;37,98
222,157;37,94
222,425;38,02
222,694;37,75
222,963;37,77
223,231;37,65
223,5;37,73
223,769;37,68
224,037;37,64
224,306;37,56
224,574;37,45
224,843;37,41
225,111;37,35
225,38;37,15
225,648;37,18
225,917;37,09
226,185;36,95
226,454;36,92
226,722;36,91
226,991;36,86
227,259;36,74
227,528;36,7
227,796;36,69
228,064;36,64
228,333;36,77
228,601;36,7
228,869;36,7
229,138;36,6
229,406;36,62
229,674;36,67
229,942;36,66
230,211;36,76
230,479;36,78
230,747;36,8
231,015;36,8
231,283;36,78
231,552;36,85
231,82;36,98
232,088;36,95
232,356;36,82
232,624;36,84
232,892;36,86
233,16;36,8
233,428;36,77
233,696;36,78
233,964;36,76
234,232;36,77
234,5;36,75
234,768;36,78
235,036;36,75
235,304;36,79
235,572;36,77
235,84;36,72
236,108;36,75
236,376;36,75
236,644;36,79
236,912;36,82
237,179;36,8
237,447;36,75
237,715;36,73
237,983;36,76
238,251;36,73
238,518;36,69
238,786;36,72
239,054;36,65
239,322;36,63
239,589;36,61
239,857;36,62
240,125;36,69
240,392;36,68
240,66;36,74
240,927;36,68
241,195;36,64
241,463;36,61
241,73;36,57
241,998;36,54
242,265;36,51
242,533;36,48
242,8;36,49
243,068;36,47
243,335;36,44
243,603;36,47
243,87;36,48
244,138;36,49
244,405;36,46
244,672;36,47
244,94;36,44
245,207;36,45
245,474;36,44
245,742;36,39
246,009;36,35
246,276;36,24
246,544;36,2
246,811;36,19
247,078;36,15
247,345;36,14
247,613;36,11
247,88;36,05
248,147;36,01
248,414;35,91
248,681;35,85
248,948;35,88
249,215;35,82
249,483;35,73
249,75;35,65
250,017;35,59
250,284;35,6
250,551;35,55
250,818;35,51
251,085;35,4
251,352;35,35
251,619;35,31
251,886;35,32
252,153;35,23
252,42;35,21
252,687;35,18
252,953;35,13
253,22;35,07
253,487;35,08
253,754;35,04
254,021;35,08
254,288;35,03
254,555;34,97
254,821;34,97
255,088;34,93
255,355;34,87
255,622;34,85
255,888;34,76
256,155;34,73
256,422;34,73
256,688;34,73
256,955;34,72
257,222;34,68
257,488;34,64
257,755;34,68
258,022;34,64
258,288;34,6
258,555;34,58
258,821;34,58
259,088;34,56
259,354;34,58
259,621;34,53
259,887;34,53
260,154;34,46
260,42;34,43
260,687;34,45
260,953;34,47
261,219;34,48
261,486;34,51
261,752;34,54
262,019;34,48
262,285;34,47
262,551;34,43
262,818;34,48
263,084;34,44
263,35;34,48
263,616;34,5
263,883;34,53
264,149;34,51
264,415;34,5
264,681;34,49
264,947;34,46
265,214;34,49
265,48;34,49
265,746;34,52
266,012;34,49
266,278;34,51
266,544;34,52
266,81;34,55
267,076;34,54
267,342;34,52
267,608;34,55
267,874;34,54
268,14;34,59
268,406;34,6
268,672;34,65
268,938;34,62
269,204;34,6
269,47;34,6
269,736;34,6
270,002;34,62
270,268;34,65
270,533;34,69
270,799;34,7
271,065;34,73
271,331;34,8
271,597;34,85
271,862;34,86
272,128;34,89
272,394;34,92
272,66;34,94
272,925;34,97
273,191;35
273,457;35,03
273,722;35,02
273,988;34,99
274,254;35,02
274,519;35,05
274,785;35,12
275,05;35,15
275,316;35,2
275,582;35,26
275,847;35,29
276,113;35,31
276,378;35,34
276,644;35,35
276,909;35,36
277,174;35,4
277,44;35,44
277,705;35,46
277,971;35,47
278,236;35,54
278,501;35,58
278,767;35,62
279,032;35,68
279,297;35,74
279,563;35,79
279,828;35,78
280,093;35,79
280,358;35,77
280,624;35,87
280,889;35,92
281,154;35,98
281,419;36,02
281,684;36,06
281,95;36,07
282,215;36,13
282,48;36,17
282,745;36,23
283,01;36,26
283,275;36,3
283,54;36,32
283,805;36,35
284,07;36,37
284,335;36,42
284,6;36,45
284,865;36,5
285,13;36,55
285,395;36,6
285,66;36,67
285,925;36,74
286,19;36,71
286,455;36,72
286,72;36,71
286,985;36,73
287,249;36,72
287,514;36,79
287,779;36,81
288,044;36,86
288,309;36,84
288,573;36,91
288,838;36,97
289,103;37,02
289,367;37,06
289,632;37,14
289,897;37,16
290,161;37,19
290,426;37,21
290,691;37,28
290,955;37,33
291,22;37,37
291,484;37,41
291,749;37,44
292,014;37,52
292,278;37,6
292,543;37,68
292,807;37,75
293,072;37,8
293,336;37,83
293,6;37,84
293,865;37,87
294,129;37,88
294,394;37,92
294,658;38
294,922;38,04
295,187;38,07
295,451;38,13
295,715;38,18
295,98;38,25
296,244;38,25
296,508;38,31
296,773;38,32
297,037;38,42
297,301;38,47
297,565;38,51
297,829;38,51
298,094;38,57
298,358;38,58
298,622;38,61
298,886;38,69
299,15;38,78
299,414;38,89
299,678;38,96
299,942;39,01
300,206;39,01
300,47;39,05
300,734;39,07
300,998;39,09
301,262;39,12
301,526;39,14
301,79;39,18
302,054;39,25
302,318;39,29
302,582;39,35
302,846;39,42
303,11;39,48
303,374;39,5
303,637;39,55
303,901;39,61
304,165;39,67
304,429;39,67
304,693;39,7
304,956;39,74
305,22;39,77
305,484;39,81
305,747;39,87
306,011;39,92
306,275;39,96
306,538;40,02
306,802;40,09
307,066;40,16
307,329;40,19
307,593;40,2
307,856;40,22
308,12;40,22
308,384;40,22
308,647;40,21
308,911;40,22
309,174;40,22
309,438;40,22
309,701;40,22
309,964;40,25
310,228;40,25
310,491;40,23
310,755;40,27
311,018;40,31
311,281;40,33
311,545;40,33
311,808;40,36
312,071;40,35
312,335;40,3
312,598;40,3
312,861;40,32
313,124;40,3
313,388;40,34
313,651;40,34
313,914;40,34
314,177;40,38
314,44;40,46
314,704;40,46
314,967;40,49
315,23;40,53
315,493;40,54
315,756;40,54
316,019;40,55
316,282;40,52
316,545;40,52
316,808;40,49
317,071;40,46
317,334;40,46
317,597;40,5
317,86;40,53
318,123;40,52
318,386;40,51
318,649;40,5
318,912;40,51
319,175;40,5
319,437;40,49
319,7;40,49
319,963;40,46
320,226;40,42
320,489;40,4
320,751;40,35
321,014;40,33
321,277;40,36
321,54;40,31
321,802;40,31
322,065;40,27
322,328;40,26
322,59;40,32
322,853;40,26
323,116;40,22
323,378;40,21
323,641;40,18
323,903;40,21
324,166;40,21
324,428;40,16
324,691;40,11
324,953;40,12
325,216;40,06
325,478;40,03
325,741;40,03
326,003;40,02
326,266;40,01
326,528;39,99
326,791;39,94
327,053;39,94
327,315;39,91
327,578;39,89
327,84;39,86
328,102;39,79
328,365;39,83
328,627;39,79
328,889;39,74
329,151;39,76
329,414;39,72
329,676;39,72
329,938;39,73
330,2;39,72
330,462;39,69
330,725;39,66
330,987;39,65
331,249;39,6
331,511;39,57
331,773;39,59
332,035;39,54
332,297;39,53
332,559;39,5
332,821;39,45
333,083;39,42
333,345;39,4
333,607;39,39
333,869;39,4
334,131;39,4
334,393;39,41
334,655;39,34
334,917;39,29
335,179;39,25
335,44;39,26
335,702;39,27
335,964;39,28
336,226;39,3
336,488;39,28
336,749;39,29
337,011;39,27
337,273;39,24
337,535;39,26
337,796;39,22
338,058;39,24
338,32;39,29
338,581;39,27
338,843;39,27
339,105;39,27
339,366;39,23
339,628;39,22
339,889;39,21
340,151;39,29
340,412;39,29
340,674;39,29
340,935;39,22
341,197;39,2
341,458;39,17
341,72;39,15
341,981;39,1
342,243;39,1
342,504;39,06
342,766;39,05
343,027;39,04
343,288;39,03
343,55;39,02
343,811;38,96
344,072;38,91
344,334;38,89
344,595;38,85
344,856;38,78
345,117;38,72
345,379;38,68
345,64;38,6
345,901;38,57
346,162;38,5
346,423;38,47
346,684;38,37
346,946;38,33
347,207;38,33
347,468;38,31
347,729;38,21
347,99;38,23
348,251;38,13
348,512;38,07
348,773;38,02
349,034;37,95
349,295;37,97
349,556;37,95
349,817;37,92
350,078;37,85
350,339;37,85
350,6;37,86
350,86;37,82
351,121;37,77
351,382;37,72
351,643;37,69
351,904;37,67
352,165;37,65
352,425;37,58
352,686;37,54
352,947;37,52
353,208;37,53
353,468;37,51
353,729;37,56
353,99;37,53
354,25;37,52
354,511;37,5
354,772;37,41
355,032;37,44
355,293;37,4
355,553;37,4
355,814;37,39
356,074;37,34
356,335;37,29
356,596;37,29
356,856;37,3
357,116;37,26
357,377;37,26
357,637;37,3
357,898;37,29
358,158;37,25
358,419;37,21
358,679;37,22
358,939;37,16
359,2;37,11
359,46;37,12
359,72;37,11
359,981;37,11
360,241;37,06
360,501;37,03
360,761;37,05
361,022;37,02
361,282;36,99
361,542;37,01
361,802;36,99
362,062;37,01
362,323;36,98
362,583;37,01
362,843;36,99
363,103;36,99
363,363;37,01
363,623;36,98
363,883;36,94
364,143;36,93
364,403;36,91
364,663;36,94
364,923;36,92
365,183;36,91
365,443;36,93
365,703;37,01
365,963;37,03
366,223;37,03
366,483;37,05
366,743;37,07
367,002;37,02
367,262;37,04
367,522;37
367,782;36,97
368,042;36,96
368,301;36,93
368,561;36,87
368,821;36,84
369,081;36,85
369,34;36,86
369,6;36,85
369,86;36,85
370,119;36,82
370,379;36,78
370,638;36,79
370,898;36,77
371,158;36,75
371,417;36,72
371,677;36,68
371,936;36,76
372,196;36,72
372,455;36,73
372,715;36,73
372,974;36,74
373,234;36,76
373,493;36,79
373,753;36,83
374,012;36,88
374,271;36,9
374,531;36,99
374,79;37,04
375,049;37,1
375,309;37,14
375,568;37,19
375,827;37,27
376,086;37,22
376,346;37,27
376,605;37,32
376,864;37,37
377,123;37,41
377,383;37,37
377,642;37,41
377,901;37,43
378,16;37,5
378,419;37,54
378,678;37,51
378,937;37,51
379,196;37,55
379,455;37,58
379,714;37,6
379,973;37,59
380,232;37,6
380,491;37,64
380,75;37,65
381,009;37,61
381,268;37,64
381,527;37,7
381,786;37,68
382,045;37,69
382,304;37,67
382,563;37,74
382,821;37,82
383,08;37,85
383,339;37,93
383,598;37,96
383,857;37,97
384,115;38,01
384,374;38,07
384,633;38,1
384,891;38,14
385,15;38,15
385,409;38,19
385,667;38,2
385,926;38,18
386,185;38,21
386,443;38,28
386,702;38,28
386,96;38,35
387,219;38,36
387,477;38,36
387,736;38,39
387,994;38,36
388,253;38,36
388,511;38,34
388,77;38,34
389,028;38,35
389,287;38,34
389,545;38,46
389,803;38,42
390,062;38,41
390,32;38,45
390,578;38,48
390,837;38,49
391,095;38,49
391,353;38,5
391,612;38,51
391,87;38,49
392,128;38,49
392,386;38,43
392,644;38,46
392,903;38,48
393,161;38,48
393,419;38,47
393,677;38,48
393,935;38,52
394,193;38,53
394,451;38,47
394,709;38,47
394,967;38,42
395,225;38,47
395,483;38,53
395,741;38,52
395,999;38,55
396,257;38,59
396,515;38,61
396,773;38,63
397,031;38,65
397,289;38,73
397,547;38,72
397,805;38,78
398,062;38,84
398,32;38,81
398,578;38,85
398,836;38,82
399,094;38,78
399,351;38,73
399,609;38,77
399,867;38,83
400,124;38,84
400,382;38,88
400,64;38,9
400,897;38,88
401,155;38,87
401,413;38,88
401,67;38,88
401,928;38,91
402,185;38,88
402,443;38,84
402,701;38,79
402,958;38,87
403,216;38,86
403,473;38,86
403,73;38,9
403,988;38,9
404,245;39,01
404,503;39,05
404,76;39,13
405,018;39,12
405,275;39,17
405,532;39,21
405,79;39,17
406,047;39,19
406,304;39,24
406,561;39,28
406,819;39,31
407,076;39,27
407,333;39,33
407,59;39,42
407,848;39,46
408,105;39,49
408,362;39,53
408,619;39,58
408,876;39,59
409,133;39,59
409,39;39,66
409,647;39,65
409,904;39,65
410,161;39,71
410,418;39,74
410,675;39,76
410,932;39,7
411,189;39,75
411,446;39,81
411,703;39,78
411,96;39,79
412,217;39,81
412,474;39,81
412,731;39,78
412,988;39,79
413,245;39,86
413,501;39,97
413,758;39,91
414,015;39,9
414,272;39,93
414,529;39,99
414,785;39,96
415,042;40,03
415,299;40,14
415,555;40,07
415,812;40,07
416,069;40,06
416,325;40,16
416,582;40,18
416,838;40,22
417,095;40,23
417,352;40,26
417,608;40,32
417,865;40,41
418,121;40,48
418,378;40,53
418,634;40,58
418,891;40,65
419,147;40,76
419,403;40,88
419,66;40,89
419,916;40,99
420,173;41,03
420,429;41,08
420,685;41,08
420,942;41,19
421,198;41,23
421,454;41,25
421,711;41,28
421,967;41,3
422,223;41,32
422,479;41,4
422,735;41,43
422,992;41,38
423,248;41,36
423,504;41,39
423,76;41,39
424,016;41,36
424,272;41,34
424,528;41,34
424,784;41,3
425,041;41,31
425,297;41,29
425,553;41,35
425,809;41,33
426,065;41,38
426,32;41,39
426,576;41,44
426,832;41,55
427,088;41,63
427,344;41,72
427,6;41,76
427,856;41,8
428,112;41,82
428,368;41,93
428,623;42,01
428,879;42,05
429,135;42,06
429,391;42,11
429,646;42,16
429,902;42,14
430,158;42,2
430,414;42,33
430,669;42,4
430,925;42,46
431,181;42,54
431,436;42,58
431,692;42,56
431,947;42,62
432,203;42,6
432,458;42,57
432,714;42,61
432,97;42,62
433,225;42,67
433,481;42,65
433,736;42,69
433,991;42,71
434,247;42,74
434,502;42,87
434,758;42,91
435,013;42,91
435,268;42,95
435,524;42,95
435,779;42,95
436,034;42,94
436,29;42,99
436,545;43
436,8;43,03
437,056;43,15
437,311;43,16
437,566;43,25
437,821;43,31
438,076;43,29
438,331;43,35
438,587;43,38
438,842;43,5
439,097;43,57
439,352;43,67
439,607;43,62
439,862;43,62
440,117;43,65
440,372;43,74
440,627;43,81
440,882;43,9
441,137;43,97
441,392;44,06
441,647;44,05
441,902;44,09
442,157;44,17
442,412;44,2
442,667;44,22
442,921;44,19
443,176;44,26
443,431;44,36
443,686;44,37
443,941;44,41
444,195;44,46
444,45;44,44
444,705;44,46
444,96;44,59
445,214;44,61
445,469;44,69
445,724;44,73
445,978;44,84
446,233;44,86
446,487;44,84
446,742;44,84
446,997;44,91
447,251;44,9
447,506;44,92
447,76;44,91
448,015;44,97
448,269;45,01
448,524;45,02
448,778;45,02
449,033;45,01
449,287;44,99
449,541;45,04
449,796;45,09
450,05;45,12
450,305;45,15
450,559;45,18
450,813;45,15
451,067;45,14
451,322;45,06
451,576;45,05
451,83;45,09
452,084;45,07
452,339;45,1
452,593;45,14
452,847;45,15
453,101;45,25
453,355;45,29
453,609;45,38
453,864;45,39
454,118;45,43
454,372;45,53
454,626;45,61
454,88;45,58
455,134;45,63
455,388;45,63
455,642;45,63
455,896;45,73
456,15;45,77
456,404;45,81
456,658;45,9
456,912;45,92
457,165;45,94
457,419;46
457,673;46,03
457,927;46,06
458,181;46,13
458,435;46,13
458,688;46,12
458,942;46,17
459,196;46,19
459,45;46,15
459,703;46,15
459,957;46,22
460,211;46,24
460,464;46,23
460,718;46,3
460,972;46,36
461,225;46,31
461,479;46,37
461,732;46,38
461,986;46,38
462,239;46,39
462,493;46,48
462,746;46,55
463;46,56
463,253;46,64
463,507;46,64
463,76;46,72
464,014;46,79
464,267;46,76
464,52;46,88
464,774;47
465,027;47,02
465,28;47,03
465,534;47,07
465,787;47,16
466,04;47,16
466,294;47,22
466,547;47,26
466,8;47,3
467,053;47,37
467,306;47,4
467,56;47,46
467,813;47,45
468,066;47,52
468,319;47,59
468,572;47,57
468,825;47,63
469,078;47,62
469,331;47,66
469,584;47,74
469,837;47,72
470,09;47,75
470,343;47,82
470,596;47,91
470,849;47,97
471,102;47,96
471,355;48,12
471,608;48,16
471,861;48,31
472,114;48,34
472,367;48,41
472,619;48,51
472,872;48,62
473,125;48,67
473,378;48,71
473,631;48,78
473,883;48,86
474,136;48,89
474,389;48,98
474,641;49,03
474,894;49,08
475,147;49,15
475,399;49,2
475,652;49,28
475,905;49,3
476,157;49,33
476,41;49,44
476,662;49,46
476,915;49,51
477,167;49,52
477,42;49,57
477,672;49,58
477,925;49,65
478,177;49,71
478,43;49,77
478,682;49,81
478,934;49,83
479,187;49,86
479,439;49,94
479,691;49,96
479,944;50
480,196;50,05
480,448;50,06
480,701;50,06
480,953;50,12
481,205;50,16
481,457;50,25
481,709;50,32
481,962;50,39
482,214;50,48
482,466;50,57
482,718;50,74
482,97;50,85
483,222;50,93
483,474;51
483,726;51,09
483,978;51,13
484,23;51,18
484,482;51,23
484,734;51,24
484,986;51,26
485,238;51,28
485,49;51,3
485,742;51,32
485,994;51,37
486,246;51,38
486,498;51,39
486,75;51,4
487,001;51,39
487,253;51,36
487,505;51,3
487,757;51,3
488,009;51,26
488,26;51,26
488,512;51,21
488,764;51,16
489,015;51,13
489,267;51,14
489,519;51,11
489,77;51,1
490,022;51,13
490,274;51,18
490,525;51,21
490,777;51,21
491,028;51,28
491,28;51,26
491,531;51,25
491,783;51,25
492,034;51,32
492,286;51,31
492,537;51,38
492,789;51,45
493,04;51,45
493,291;51,46
493,543;51,48
493,794;51,51
494,045;51,58
494,297;51,57
494,548;51,6
494,799;51,62
495,051;51,64
495,302;51,67
495,553;51,63
495,804;51,68
496,056;51,74
496,307;51,72
496,558;51,8
496,809;51,84
497,06;51,91
497,311;51,9
497,562;51,95
497,813;52
498,064;52,01
498,316;52,04
498,567;52,07
498,818;52,07
499,069;52,11
499,319;52,12
499,57;52,14
499,821;52,14
500,072;52,2
500,323;52,24
500,574;52,27
500,825;52,32
501,076;52,37
501,327;52,36
501,577;52,41
501,828;52,39
502,079;52,43
502,33;52,46
502,58;52,47
502,831;52,47
503,082;52,48
503,333;52,52
503,583;52,53
503,834;52,56
504,084;52,58
504,335;52,59
504,586;52,6
504,836;52,64
505,087;52,67
505,337;52,72
505,588;52,72
505,838;52,74
506,089;52,77
506,339;52,74
506,59;52,79
506,84;52,78
507,091;52,87
507,341;52,87
507,591;52,87
507,842;52,93
508,092;52,96
508,343;52,96
508,593;52,98
508,843;52,97
509,093;52,98
509,344;53
509,594;52,99
509,844;53,01
510,094;53,03
510,345;53,06
510,595;53,06
510,845;53,08
511,095;53,08
511,345;53,11
511,595;53,14
511,845;53,15
512,095;53,2
512,345;53,17
512,595;53,2
512,845;53,21
513,095;53,17
513,345;53,2
513,595;53,21
513,845;53,21
514,095;53,24
514,345;53,27
514,595;53,3
514,845;53,36
515,095;53,39
515,345;53,43
515,594;53,46
515,844;53,47
516,094;53,49
516,344;53,53
516,593;53,53
516,843;53,57
517,093;53,62
517,343;53,65
517,592;53,69
517,842;53,76
518,092;53,81
518,341;53,86
518,591;53,9
518,84;53,91
519,09;53,96
519,34;54,03
519,589;54,05
519,839;54,05
520,088;54,03
520,338;54,05
520,587;54,08
520,836;54,07
521,086;54,1
521,335;54,12
521,585;54,15
521,834;54,21
522,083;54,24
522,333;54,25
522,582;54,3
522,831;54,32
523,081;54,29
523,33;54,3
523,579;54,3
523,828;54,33
524,078;54,34
524,327;54,38
524,576;54,4
524,825;54,4
525,074;54,47
525,323;54,53
525,573;54,58
525,822;54,6
526,071;54,64
526,32;54,66
526,569;54,7
526,818;54,74
527,067;54,74
527,316;54,74
527,565;54,76
527,814;54,75
528,063;54,77
528,312;54,83
528,56;54,87
528,809;54,9
529,058;54,93
529,307;55
529,556;54,99
529,805;54,99
530,053;55,04
530,302;55,06
530,551;55,09
530,8;55,11
531,048;55,14
531,297;55,19
531,546;55,19
531,794;55,22
532,043;55,21
532,292;55,27
532,54;55,3
532,789;55,32
533,037;55,35
533,286;55,35
533,535;55,37
533,783;55,4
534,032;55,46
534,28;55,47
534,528;55,47
534,777;55,52
535,025;55,55
535,274;55,54
535,522;55,55
535,771;55,56
536,019;55,57
536,267;55,58
536,516;55,58
536,764;55,62
537,012;55,63
537,26;55,65
537,509;55,66
537,757;55,69
538,005;55,7
538,253;55,72
538,501;55,76
538,75;55,75
538,998;55,75
539,246;55,75
539,494;55,76
539,742;55,79
539,99;55,82
540,238;55,84
540,486;55,9
540,734;55,87
540,982;55,9
541,23;55,92
541,478;55,97
541,726;55,98
541,974;56,05
542,222;56,07
542,47;56,13
542,718;56,13
542,966;56,15
543,213;56,16
543,461;56,2
543,709;56,25
543,957;56,31
544,205;56,31
544,452;56,32
544,7;56,33
544,948;56,33
545,196;56,35
545,443;56,39
545,691;56,43
545,939;56,49
546,186;56,51
546,434;56,51
546,681;56,49
546,929;56,48
547,176;56,43
547,424;56,43
547,671;56,42
547,919;56,43
548,166;56,43
548,414;56,46
548,661;56,48
548,909;56,48
549,156;56,47
549,404;56,51
549,651;56,51
549,898;56,52
550,146;56,56
550,393;56,57
550,64;56,56
550,888;56,55
551,135;56,54
551,382;56,54
551,629;56,57
551,876;56,6
552,124;56,61
552,371;56,6
552,618;56,61
552,865;56,62
553,112;56,65
553,359;56,64
553,606;56,64
553,854;56,65
554,101;56,62
554,348;56,66
554,595;56,68
554,842;56,7
555,089;56,71
555,336;56,72
555,582;56,71
555,829;56,72
556,076;56,72
556,323;56,74
556,57;56,76
556,817;56,73
557,064;56,74
557,311;56,77
557,557;56,83
557,804;56,85
558,051;56,87
558,298;56,88
558,544;56,91
558,791;56,92
559,038;56,88
559,284;56,92
559,531;56,9
559,778;56,87
560,024;56,87
560,271;56,88
560,517;56,89
560,764;56,88
561,011;56,89
561,257;56,86
561,504;56,85
561,75;56,87
561,997;56,88
562,243;56,9
562,489;56,88
562,736;56,87
562,982;56,86
563,229;56,87
563,475;56,87
563,721;56,87
563,968;56,89
564,214;56,93
564,46;56,91
564,707;56,91
564,953;56,92
565,199;56,93
565,445;56,93
565,691;56,91
565,938;56,92
566,184;56,92
566,43;56,94
566,676;56,96
566,922;56,96
567,168;56,99
567,414;57
567,66;57,01
567,906;57,03
568,152;57,03
568,398;57,03
568,644;57,04
568,89;57,04
569,136;57,04
569,382;57,02
569,628;57,02
569,874;57,01
570,12;57,02
570,366;57,02
570,612;57,04
570,857;57,03
571,103;57,06
571,349;57,07
571,595;57,05
571,84;57,05
572,086;57,03
572,332;57
572,578;57
572,823;56,99
573,069;56,96
573,315;56,97
573,56;56,94
573,806;56,91
574,051;56,91
574,297;56,9
574,542;56,91
574,788;56,92
575,034;56,92
575,279;56,91
575,524;56,89
575,77;56,86
576,015;56,85
576,261;56,81
576,506;56,81
576,752;56,82
576,997;56,8
577,242;56,81
577,488;56,81
577,733;56,78
577,978;56,79
578,223;56,81
578,469;56,79
578,714;56,8
578,959;56,78
579,204;56,77
579,45;56,74
579,695;56,71
579,94;56,69
580,185;56,66
580,43;56,63
580,675;56,62
580,92;56,59
581,165;56,57
581,41;56,59
581,655;56,55
581,9;56,52
582,145;56,54
582,39;56,53
582,635;56,49
582,88;56,49
583,125;56,47
583,37;56,45
583,615;56,43
583,86;56,43
584,105;56,44
584,349;56,45
584,594;56,43
584,839;56,43
585,084;56,43
585,328;56,44
585,573;56,43
585,818;56,43
586,063;56,45
586,307;56,44
586,552;56,41
586,797;56,43
587,041;56,43
587,286;56,38
587,53;56,34
587,775;56,37
588,019;56,33
588,264;56,31
588,508;56,28
588,753;56,29
588,997;56,25
589,242;56,24
589,486;56,21
589,731;56,23
589,975;56,24
590,22;56,22
590,464;56,22
590,708;56,24
590,953;56,2
591,197;56,17
591,441;56,17
591,685;56,17
591,93;56,14
592,174;56,14
592,418;56,17
592,662;56,17
592,907;56,13
593,151;56,12
593,395;56,11
593,639;56,09
593,883;56,08
594,127;56,07
594,371;56,05
594,615;56,04
594,859;56,01
595,103;56
595,347;55,96
595,591;55,92
595,835;55,88
596,079;55,89
596,323;55,88
596,567;55,88
596,811;55,82
597,055;55,79
597,299;55,78
597,542;55,74
597,786;55,73
598,03;55,73
598,274;55,73
598,518;55,73
598,761;55,74
599,005;55,69
599,249;55,68
599,492;55,66
599,736;55,62
599,98;55,64
600,223;55,64
600,467;55,63
600,711;55,62
600,954;55,62
601,198;55,6
601,441;55,6
601,685;55,57
601,928;55,58
602,172;55,58
602,415;55,55
602,659;55,55
602,902;55,53
603,145;55,51
603,389;55,49
603,632;55,49
603,876;55,49
604,119;55,51
604,362;55,51
604,606;55,46
604,849;55,45
605,092;55,41
605,335;55,38
605,579;55,37
605,822;55,38
606,065;55,34
606,308;55,33
606,551;55,31
606,794;55,31
607,037;55,34
607,281;55,32
607,524;55,35
607,767;55,34
608,01;55,34
608,253;55,33
608,496;55,32
608,739;55,32
608,982;55,29
609,225;55,28
609,468;55,26
609,711;55,28
609,953;55,29
610,196;55,31
610,439;55,29
610,682;55,28
610,925;55,28
611,168;55,27
611,41;55,24
611,653;55,24
611,896;55,22
612,139;55,18
612,381;55,18
612,624;55,14
612,867;55,13
613,109;55,11
613,352;55,11
613,595;55,11
613,837;55,08
614,08;55,07
614,322;55,06
614,565;55,05
614,807;55,04
615,05;55
615,292;54,97
615,535;54,98
615,777;54,96
616,02;54,94
616,262;54,95
616,505;54,98
616,747;54,98
616,989;54,98
617,232;54,98
617,474;54,97
617,716;54,95
617,959;54,93
618,201;54,92
618,443;54,95
618,685;54,89
618,927;54,89
619,17;54,86
619,412;54,85
619,654;54,82
619,896;54,82
620,138;54,81
620,38;54,79
620,622;54,77
620,864;54,77
621,107;54,76
621,349;54,76
621,591;54,71
621,833;54,7
622,075;54,69
622,316;54,68
622,558;54,68
622,8;54,68
623,042;54,67
623,284;54,68
623,526;54,64
623,768;54,64
624,01;54,66
624,251;54,7
624,493;54,68
624,735;54,69
624,977;54,68
625,218;54,7
625,46;54,68
625,702;54,66
625,943;54,65
626,185;54,63
626,427;54,59
626,668;54,6
626,91;54,57
627,152;54,55
627,393;54,52
627,635;54,5
627,876;54,5
628,118;54,5
628,359;54,47
628,601;54,44
628,842;54,46
629,084;54,42
629,325;54,33
629,566;54,33
629,808;54,32
630,049;54,32
630,29;54,3
630,532;54,31
630,773;54,33
631,014;54,33
631,256;54,33
631,497;54,34
631,738;54,31
631,979;54,3
632,22;54,28
632,462;54,3
632,703;54,26
632,944;54,27
633,185;54,26
633,426;54,25
633,667;54,27
633,908;54,25
634,149;54,22
634,39;54,27
634,631;54,27
634,872;54,25
635,113;54,24
635,354;54,22
635,595;54,21
635,836;54,17
636,077;54,15
636,318;54,14
636,559;54,13
636,8;54,18
637,04;54,16
637,281;54,17
637,522;54,16
637,763;54,14
638,003;54,11
638,244;54,09
638,485;54,08
638,726;54,03
638,966;54,04
639,207;54,05
639,448;54,03
639,688;54,01
639,929;54,01
640,169;53,99
640,41;53,98
640,65;53,97
640,891;53,97
641,131;53,96
641,372;53,98
641,612;53,95
641,853;53,91
642,093;53,93
642,334;53,93
642,574;53,92
642,814;53,9
643,055;53,91
643,295;53,91
643,535;53,93
643,776;53,98
644,016;53,96
644,256;53,94
644,496;53,94
644,737;53,95
644,977;53,95
645,217;53,95
645,457;53,97
645,697;53,95
645,938;53,96
646,178;53,98
646,418;53,94
646,658;53,95
646,898;53,92
647,138;53,9
647,378;53,88
647,618;53,88
647,858;53,89
648,098;53,84
648,338;53,83
648,578;53,81
648,818;53,81
649,057;53,8
649,297;53,79
649,537;53,79
649,777;53,78
650,017;53,78
650,257;53,78
650,496;53,76
650,736;53,78
650,976;53,76
661,028;53,3
661,267;53,36
661,506;53,39
661,744;53,43
661,983;53,48
662,222;53,5
662,461;53,51
662,7;53,48
662,939;53,46
663,177;53,42
663,416;53,39
663,655;53,33
663,894;53,29
664,132;53,27
664,371;53,25
664,61;53,25
664,848;53,29
665,087;53,27
665,326;53,27
665,564;53,25
665,803;53,21
666,041;53,22
666,28;53,2
666,518;53,21
666,757;53,2
666,995;53,18
667,234;53,17
667,472;53,15
667,711;53,15
667,949;53,16
668,187;53,16
668,426;53,16
668,664;53,18
668,902;53,18
669,141;53,16
669,379;53,19
669,617;53,19
669,856;53,16
670,094;53,17
670,332;53,14
670,57;53,14
670,808;53,15
671,046;53,14
671,285;53,16
671,523;53,14
671,761;53,13
671,999;53,11
672,237;53,12
672,475;53,13
672,713;53,14
672,951;53,13
673,189;53,13
673,427;53,12
673,665;53,08
673,903;53,06
674,141;53,08
674,379;53,07
674,617;53,04
674,854;53,03
675,092;53,02
675,33;53,04
675,568;53,04
675,806;53,03
676,043;53,02
676,281;53,02
676,519;53,04
676,756;53,03
676,994;53,04
677,232;53,02
677,469;53,01
677,707;52,97
677,945;52,95
678,182;52,95
678,42;52,95
678,657;52,98
678,895;52,99
679,132;52,98
679,37;52,93
679,607;52,93
679,845;52,91
680,082;52,89
680,32;52,87
680,557;52,85
680,794;52,88
681,032;52,87
681,269;52,87
681,507;52,84
681,744;52,83
681,981;52,85
682,218;52,78
682,456;52,74
682,693;52,77
682,93;52,81
683,167;52,8
683,404;52,8
683,642;52,8
683,879;52,78
684,116;52,81
684,353;52,81
684,59;52,82
684,827;52,84
685,064;52,8
685,301;52,8
685,538;52,78
685,775;52,75
686,012;52,76
686,249;52,74
686,486;52,77
686,723;52,8
686,96;52,78
687,197;52,83
687,433;52,84
687,67;52,84
687,907;52,8
688,144;52,8
688,381;52,8
688,617;52,78
688,854;52,8
689,091;52,77
689,327;52,81
689,564;52,79
689,801;52,74
690,037;52,77
690,274;52,76
690,511;52,76
690,747;52,76
690,984;52,72
691,22;52,7
691,457;52,69
691,693;52,66
691,93;52,65
692,166;52,65
692,403;52,66
692,639;52,6
692,876;52,58
693,112;52,55
693,348;52,5
693,585;52,51
693,821;52,48
694,057;52,44
694,294;52,41
694,53;52,41
694,766;52,43
695,002;52,41
695,239;52,41
695,475;52,41
695,711;52,37
695,947;52,36
696,183;52,34
696,419;52,32
696,656;52,29
696,892;52,26
697,128;52,23
697,364;52,2
697,6;52,24
697,836;52,23
698,072;52,22
698,308;52,26
698,544;52,22
698,78;52,22
699,016;52,23
699,251;52,22
699,487;52,22
699,723;52,21
699,959;52,2
700,195;52,2
700,431;52,2
700,666;52,21
700,902;52,23
701,138;52,24
701,374;52,25
701,609;52,26
701,845;52,28
702,081;52,29
702,316;52,28
702,552;52,24
702,788;52,25
703,023;52,27
703,259;52,23
703,494;52,24
703,73;52,25
703,965;52,26
704,201;52,27
704,436;52,21
704,672;52,18
704,907;52,17
705,143;52,14
705,378;52,13
705,613;52,11
705,849;52,07
706,084;52,06
706,319;52,03
706,555;51,99
706,79;51,95
707,025;51,95
707,26;51,96
707,496;51,95
707,731;51,96
707,966;51,95
708,201;51,96
708,436;51,96
708,671;51,92
708,907;51,92
709,142;51,88
709,377;51,89
709,612;51,92
709,847;51,91
710,082;51,92
710,317;51,94
710,552;51,98
710,787;51,98
711,022;51,95
711,257;51,95
711,492;51,99
711,726;52,01
711,961;51,99
712,196;51,94
712,431;51,94
712,666;51,92
712,901;51,86
713,135;51,85
713,37;51,84
713,605;51,87
713,839;51,87
714,074;51,86
714,309;51,85
714,543;51,85
714,778;51,87
715,013;51,82
715,247;51,79
715,482;51,75
715,716;51,76
715,951;51,81
716,185;51,83
716,42;51,8
716,654;51,8
716,889;51,78
717,123;51,79
717,358;51,75
717,592;51,73
717,827;51,75
718,061;51,76
718,295;51,72
718,53;51,69
718,764;51,67
718,998;51,69
719,232;51,68
719,467;51,63
719,701;51,6
719,935;51,59
720,169;51,6
720,403;51,6
720,638;51,59
720,872;51,54
721,106;51,46
721,34;51,43
721,574;51,4
721,808;51,39
722,042;51,38
722,276;51,39
722,51;51,39
722,744;51,4
722,978;51,37
723,212;51,33
723,446;51,3
723,68;51,25
723,914;51,24
724,147;51,27
724,381;51,29
724,615;51,3
724,849;51,3
725,083;51,25
725,316;51,23
725,55;51,25
725,784;51,29
726,018;51,37
726,251;51,38
726,485;51,4
726,719;51,42
726,952;51,44
727,186;51,47
727,419;51,46
727,653;51,45
727,887;51,49
728,12;51,57
728,354;51,6
728,587;51,62
728,821;51,59
729,054;51,59
729,287;51,61
729,521;51,57
729,754;51,59
729,988;51,6
730,221;51,66
730,454;51,64
730,688;51,6
730,921;51,56
731,154;51,54
731,387;51,52
731,621;51,52
731,854;51,51
732,087;51,5
732,32;51,49
732,553;51,5
732,787;51,49
733,02;51,46
733,253;51,39
733,486;51,4
733,719;51,43
733,952;51,41
734,185;51,37
734,418;51,39
734,651;51,36
734,884;51,38
735,117;51,32
735,35;51,25
735,583;51,19
735,816;51,2
736,049;51,2
736,281;51,21
736,514;51,18
736,747;51,17
736,98;51,14
737,213;51,17
737,445;51,12
737,678;51,11
737,911;51,08
738,144;51,09
738,376;51,1
738,609;51,1
738,842;51,08
739,074;51,09
739,307;51,1
739,539;51,12
739,772;51,09
740,004;51,07
740,237;51,15
740,469;51,19
740,702;51,16
740,934;51,2
741,167;51,15
741,399;51,18
741,632;51,17
741,864;51,17
742,096;51,18
742,329;51,21
742,561;51,19
742,793;51,19
743,026;51,22
743,258;51,19
743,49;51,15
743,723;51,15
743,955;51,16
744,187;51,11
744,419;51,07
744,651;51,06
744,883;51,09
745,115;51,06
745,348;51,07
745,58;51,08
745,812;51,05
746,044;51,12
746,276;51,05
746,508;51,07
746,74;51,09
746,972;51,08
747,204;51,06
747,436;51,08
747,667;51,11
747,899;51,14
748,131;51,16
748,363;51,14
748,595;51,16
748,827;51,16
749,058;51,19
749,29;51,2
749,522;51,2
749,754;51,19
749,985;51,14
750,217;51,09
750,449;51,07
750,68;51,02
750,912;51
751,144;51,01
751,375;51,02
751,607;50,99
751,838;51
752,07;51
752,301;50,98
752,533;50,97
752,764;50,91
752,996;50,92
753,227;50,92
753,459;50,88
753,69;50,9
753,921;50,94
754,153;50,96
754,384;50,97
754,615;50,98
754,847;51,03
755,078;51,1
755,309;51,15
755,54;51,19
755,772;51,2
756,003;51,23
756,234;51,19
756,465;51,21
756,696;51,15
756,927;51,17
757,159;51,16
757,39;51,17
757,621;51,22
757,852;51,21
758,083;51,23
758,314;51,25
758,545;51,26
758,776;51,21
759,007;51,21
759,238;51,22
759,469;51,19
759,699;51,18
759,93;51,15
760,161;51,08
760,392;51,04
760,623;50,99
760,854;50,99
761,084;51,05
761,315;51,03
761,546;51,04
761,776;51,02
762,007;51,02
762,238;50,99
762,468;50,94
762,699;50,95
762,93;50,96
763,16;50,93
763,391;50,92
763,621;50,95
763,852;50,96
764,083;50,97
764,313;50,97
764,543;50,92
764,774;50,9
765,004;50,96
765,235;51
765,465;51,06
765,696;51,01
765,926;50,93
766,156;50,91
766,387;50,97
766,617;50,96
766,847;50,96
767,077;50,96
767,308;50,98
767,538;51
767,768;50,97
767,998;51
768,228;50,99
768,459;50,94
768,689;50,97
768,919;50,97
769,149;51,02
769,379;51,06
769,609;51,11
769,839;51,1
770,069;51,11
770,299;51,07
770,529;51,07
770,759;51,04
770,989;51,05
771,219;50,99
771,449;50,96
771,678;50,98
771,908;50,98
772,138;51,03
772,368;51,01
772,598;51,01
772,827;51,04
773,057;50,99
773,287;51,03
773,517;50,98
773,746;50,93
773,976;50,93
774,206;50,9
774,435;50,89
774,665;50,9
774,894;50,88
775,124;50,89
775,354;50,92
775,583;50,95
775,813;50,96
776,042;50,98
776,272;51,02
776,501;51,02
776,73;51,02
776,96;50,97
777,189;50,92
777,419;50,96
777,648;50,95
777,877;51
778,107;50,94
778,336;50,99
778,565;50,99
778,794;50,98
779,024;51,04
779,253;51,03
779,482;51,04
779,711;51,03
779,94;51,07
780,17;51,07
780,399;51,1
780,628;51,11
780,857;51,11
781,086;51,13
781,315;51,14
781,544;51,18
781,773;51,21
782,002;51,23
782,231;51,23
782,46;51,22
782,689;51,2
782,918;51,26
783,147;51,23
783,375;51,27
783,604;51,3
783,833;51,25
784,062;51,23
784,291;51,25
784,519;51,28
784,748;51,25
784,977;51,25
785,206;51,29
785,434;51,26
785,663;51,24
785,892;51,24
786,12;51,24
786,349;51,23
786,577;51,21
786,806;51,21
787,034;51,2
787,263;51,17
787,492;51,21
787,72;51,22
787,948;51,26
788,177;51,25
788,405;51,26
788,634;51,29
788,862;51,32
789,09;51,25
789,319;51,24
789,547;51,23
789,775;51,19
790,004;51,18
790,232;51,24
790,46;51,23
790,688;51,18
790,917;51,19
791,145;51,2
791,373;51,2
791,601;51,24
791,829;51,24
792,057;51,25
792,286;51,24
792,514;51,21
792,742;51,18
792,97;51,18
793,198;51,13
793,426;51,1
793,654;51,07
793,882;51,11
794,109;51,11
794,337;51,12
794,565;51,19
794,793;51,17
795,021;51,17
795,249;51,21
795,477;51,27
795,704;51,25
795,932;51,21
796,16;51,21
796,388;51,16
796,615;51,14
796,843;51,15
797,071;51,15
797,298;51,1
797,526;51,11
797,754;51,08
797,981;51,08
798,209;51,08
798,436;51,08
798,664;51,11
798,891;51,12
799,119;51,09
799,346;50,99
799,574;50,99
799,801;50,99
800,029;50,92
800,256;50,91
800,483;50,95
800,711;50,91
800,938;50,86
801,165;50,85
801,393;50,85
801,62;50,85
801,847;50,86
802,074;50,89
802,302;50,86
802,529;50,89
802,756;50,9
802,983;50,91
803,21;50,88
803,437;50,89
803,665;50,9
803,892;50,91
804,119;51
804,346;51
804,573;51,06
804,8;51,11
805,027;51,08
805,254;51,01
805,481;51,03
805,708;51,08
805,934;51,08
806,161;51,12
806,388;51,11
806,615;51,08
806,842;51,08
807,069;51,07
807,295;51,06
807,522;51,08
807,749;51,09
807,976;51,09
808,202;51,06
808,429;51
808,656;51,01
808,882;51,01
809,109;50,98
809,335;50,94
809,562;50,92
809,789;50,91
810,015;50,9
810,242;50,98
810,468;50,99
810,695;51
810,921;50,99
811,147;51
811,374;50,97
811,6;50,95
811,827;50,97
812,053;50,92
812,279;50,9
812,506;50,89
812,732;50,93
812,958;50,89
813,185;50,9
813,411;50,89
813,637;50,88
813,863;50,93
814,089;50,97
814,315;50,97
814,542;50,95
814,768;50,96
814,994;50,91
815,22;50,85
815,446;50,89
815,672;50,87
815,898;50,89
816,124;50,88
816,35;50,83
816,576;50,85
816,802;50,89
817,028;50,9
817,254;50,9
817,48;50,85
817,705;50,88
817,931;50,89
818,157;50,9
818,383;50,83
818,609;50,76
818,834;50,71
819,06;50,72
819,286;50,76
819,512;50,83
819,737;50,8
819,963;50,85
820,189;50,77
820,414;50,74
820,64;50,65
820,865;50,73
821,091;50,74
821,316;50,66
821,542;50,63
821,767;50,62
821,993;50,6
822,218;50,62
822,444;50,58
822,669;50,59
822,895;50,53
823,12;50,56
823,345;50,59
823,571;50,52
823,796;50,53
824,021;50,51
824,247;50,46
824,472;50,43
824,697;50,37
824,922;50,41
825,147;50,41
825,373;50,56
825,598;50,52
825,823;50,52
826,048;50,53
826,273;50,52
826,498;50,55
826,723;50,5
826,948;50,51
827,173;50,52
827,398;50,46
827,623;50,47
827,848;50,52
828,073;50,48
828,298;50,53
828,523;50,48
828,748;50,41
828,973;50,39
829,197;50,41
829,422;50,4
829,647;50,39
829,872;50,37
830,097;50,26
830,321;50,19
830,546;50,21
830,771;50,19
830,995;50,17
831,22;50,13
831,445;50,16
831,669;50,13
831,894;50,14
832,118;50,13
832,343;50,17
832,567;50,06
832,792;50,1
833,016;50,08
833,241;50,1
833,465;50,07
833,69;50,02
833,914;50,02
834,139;50,03
834,363;50,03
834,587;50,09
834,812;50,09
835,036;50,12
835,26;50,1
835,485;50,17
835,709;50,19
835,933;50,17
836,157;50,12
836,381;50,1
836,606;50,09
836,83;50,07
837,054;50,03
837,278;50,05
837,502;50,01
837,726;50
837,95;50
838,174;50,01
838,398;50,03
838,622;50,04
838,846;50,03
839,07;49,98
839,294;49,89
839,518;49,92
839,742;49,82
839,966;49,82
840,189;49,74
840,413;49,71
840,637;49,71
840,861;49,74
841,085;49,68
841,308;49,61
841,532;49,62
841,756;49,64
841,979;49,57
842,203;49,6
842,427;49,58
842,65;49,53
842,874;49,5
843,098;49,44
843,321;49,42
843,545;49,45
843,768;49,39
843,992;49,44
844,215;49,38
844,439;49,46
844,662;49,45
844,886;49,49
845,109;49,59
845,332;49,58
845,556;49,61
845,779;49,64
846,002;49,66
846,226;49,69
846,449;49,63
846,672;49,63
846,895;49,62
847,119;49,6
847,342;49,59
847,565;49,62
847,788;49,6
848,011;49,55
848,234;49,51
848,457;49,59
848,681;49,5
848,904;49,45
849,127;49,4
849,35;49,45
849,573;49,49
849,796;49,37
850,019;49,38
850,241;49,35
850,464;49,3
850,687;49,36
850,91;49,37
851,133;49,43
851,356;49,54
851,579;49,55
851,801;49,57
852,024;49,62
852,247;49,59
852,47;49,56
852,692;49,49
852,915;49,49
853,138;49,49
853,36;49,52
853,583;49,51
853,806;49,61
854,028;49,53
854,251;49,45
854,473;49,52
854,696;49,5
854,918;49,53
855,141;49,53
855,363;49,45
855,586;49,43
855,808;49,35
856,031;49,22
856,253;49,19
856,475;49,18
856,698;49,09
856,92;49,1
857,142;49,19
857,365;49,26
857,587;49,26
857,809;49,18
858,031;49,2
858,253;49,16
858,476;49,11
858,698;49,09
858,92;49,07
859,142;49,02
859,364;48,99
859,586;48,98
859,808;48,92
860,03;48,9
860,252;48,89
860,474;48,92
860,696;49,01
860,918;48,89
861,14;48,86
861,362;48,87
861,584;48,9
861,806;48,91
862,028;48,92
862,25;48,91
862,471;48,92
862,693;48,87
862,915;48,96
863,137;48,87
863,358;48,91
863,58;48,85
863,802;48,78
864,024;48,78
864,245;48,75
864,467;48,8
864,688;48,87
864,91;48,88
865,132;48,79
865,353;48,69
865,575;48,82
865,796;48,84
866,018;48,84
866,239;48,82
866,461;48,77
866,682;48,76
866,903;48,66
867,125;48,65
867,346;48,7
867,567;48,64
867,789;48,64
868,01;48,63
868,231;48,66
868,453;48,7
868,674;48,73
868,895;48,66
869,116;48,73
869,337;48,72
869,559;48,64
869,78;48,69
870,001;48,65
870,222;48,62
870,443;48,6
870,664;48,59
870,885;48,57
871,106;48,46
871,327;48,53
871,548;48,57
871,769;48,48
871,99;48,46
872,211;48,43
872,432;48,47
872,653;48,39
872,874;48,4
873,094;48,39
873,315;48,34
873,536;48,38
873,757;48,32
873,978;48,32
874,198;48,25
874,419;48,28
874,64;48,3
874,86;48,31
875,081;48,23
875,302;48,24
875,522;48,25
875,743;48,29
875,963;48,21
876,184;48,17
876,404;48,25
876,625;48,23
876,845;48,27
877,066;48,28
877,286;48,36
877,507;48,31
877,727;48,27
877,947;48,31
878,168;48,31
878,388;48,29
878,609;48,22
878,829;48,3
879,049;48,26
879,269;48,35
879,49;48,26
879,71;48,22
879,93;48,21
880,15;48,14
880,37;48,18
880,59;48,05
880,811;48,1
881,031;48,07
881,251;48,03
881,471;48
881,691;47,99
881,911;47,9
882,131;47,88
882,351;47,87
882,571;47,79
882,791;47,73
883,011;47,76
883,23;47,75
883,45;47,81
883,67;47,86
883,89;47,76
884,11;47,78
884,33;47,76
884,549;47,75
884,769;47,78
884,989;47,87
885,209;48,01
885,428;48,1
885,648;48,02
885,868;48,05
886,087;47,98
886,307;47,91
886,526;47,97
886,746;47,98
886,965;47,99
887,185;47,92
887,404;47,87
887,624;47,87
887,843;47,89
888,063;47,88
888,282;47,82
888,502;47,77
888,721;47,84
888,94;47,89
889,16;47,89
889,379;47,89
889,598;47,79
889,818;47,7
890,037;47,53
890,256;47,62
890,475;47,57
890,694;47,61
890,914;47,57
891,133;47,54
891,352;47,56
891,571;47,58
891,79;47,63
892,009;47,63
892,228;47,61
892,447;47,54
892,666;47,52
892,885;47,52
893,104;47,63
893,323;47,63
893,542;47,67
893,761;47,65
893,98;47,55
894,199;47,48
894,417;47,47
894,636;47,55
894,855;47,6
895,074;47,71
895,293;47,71
895,511;47,77
895,73;47,78
895,949;47,82
896,167;47,79
896,386;47,86
896,605;47,97
896,823;47,91
897,042;48
897,26;47,96
897,479;48,02
897,697;48,02
897,916;48
898,134;47,87
898,353;47,88
898,571;48,01
898,79;48,07
899,008;48,13
899,227;48,12
899,445;48,13
899,663;48,09
899,882;48,06
900,1;48,03
900,318;48,05
900,536;48,13
900,755;48,11
900,973;47,95
901,191;47,94
901,409;47,94
901,627;47,89
901,846;47,96
902,064;47,91
902,282;47,88
902,5;47,88
902,718;48,01
902,936;48,07
903,154;48,08
903,372;48,06
903,59;47,99
903,808;48,01
904,026;47,94
904,244;47,85
904,462;47,88
904,679;47,92
904,897;47,9
905,115;47,79
905,333;47,84
905,551;47,85
905,768;47,79
905,986;47,79
906,204;47,76
906,422;47,69
906,639;47,59
906,857;47,62
907,074;47,53
907,292;47,35
907,51;47,22
907,727;47,28
907,945;47,34
908,162;47,4
908,38;47,44
908,597;47,36
908,815;47,4
909,032;47,38
909,25;47,37
909,467;47,29
909,684;47,25
909,902;47,14
910,119;47,42
910,337;47,49
910,554;47,47
910,771;47,44
910,988;47,43
911,206;47,48
911,423;47,55
911,64;47,55
911,857;47,53
912,074;47,63
912,291;47,6
912,509;47,59
912,726;47,54
912,943;47,59
913,16;47,62
913,377;47,62
913,594;47,61
913,811;47,59
914,028;47,59
914,245;47,66
914,462;47,69
914,679;47,49
914,896;47,43
915,112;47,47
915,329;47,51
915,546;47,55
915,763;47,64
915,98;47,48
916,196;47,53
916,413;47,71
916,63;47,75
916,847;47,75
917,063;47,71
917,28;47,61
917,497;47,45
917,713;47,48
917,93;47,58
918,146;47,55
918,363;47,64
918,579;47,7
918,796;47,84
919,012;47,96
919,229;48,04
919,445;48,09
919,662;48,09
919,878;48,03
920,095;48,15
920,311;48,03
920,527;48,12
920,744;48,18
920,96;48,19
921,176;48,12
921,392;48,03
921,609;48,09
921,825;48,32
922,041;48,38
922,257;48,39
922,473;48,32
922,69;48,58
922,906;48,45
923,122;48,47
923,338;48,22
923,554;48,09
923,77;47,87
923,986;47,86
924,202;47,92
924,418;47,98
924,634;47,76
924,85;47,84
925,066;47,74
925,282;47,69
925,497;47,71
925,713;47,64
925,929;47,72
926,145;47,58
926,361;47,5
926,576;47,55
926,792;47,66
927,008;47,6
927,224;47,49
927,439;47,45
927,655;47,42
927,871;47,41
928,086;47,48
928,302;47,59
928,517;47,59
928,733;47,57
928,948;47,5
929,164;47,51
929,379;47,58
929,595;47,69
929,81;47,72
930,026;47,66
930,241;47,73
930,456;47,65
930,672;47,65
930,887;47,62
931,102;47,6
931,318;47,51
931,533;47,45
931,748;47,36
931,964;47,31
932,179;47,24
932,394;47,34
932,609;47,27
932,824;47,32
933,039;47,25
933,255;47,16
933,47;47,1
933,685;47,07
933,9;47,04
934,115;46,88
934,33;46,83
934,545;46,84
934,76;46,83
934,975;46,97
935,19;47,09
935,404;46,99
935,619;46,94
935,834;47
936,049;47,08
936,264;47,3
936,479;47,62
936,693;47,81
936,908;47,86
937,123;48,16
937,338;48,34
937,552;48,41
937,767;48,62
937,982;49,07
938,196;49,36
938,411;49,38
938,625;49,67
938,84;49,68
939,055;49,73
939,269;49,62
939,484;49,63
939,698;49,64
939,912;50,29
940,127;50,45
940,341;50,44
940,556;50,49
940,77;50,54
940,984;50,54
941,199;50,79
941,413;50,7
941,627;50,41
941,842;50,25
942,056;50,44
942,27;50,5
942,484;50,61
942,699;50,53
942,913;50,52
943,127;50,56
943,341;50,92
943,555;51,16
943,769;51,66
943,983;51,81
944,197;52,08
944,411;51,5
944,625;51,6
944,839;51,9
945,053;52,26
945,267;52,35
945,481;52,07
945,695;52,02
945,909;52,31
946,123;52,9
946,336;52,92
946,55;52,93
946,764;52,75
946,978;52,24
947,192;52,25
947,405;52,17
947,619;52,74
947,833;52,71
948,046;53,15
948,26;53,07
948,474;53,04
948,687;52,85
948,901;52,84
949,114;52,8
949,328;52,69
949,541;52,26
949,755;52,15
949,968;52,33
950,182;51,94
950,395;51,74
950,609;51,42
950,822;51,15
951,035;51,15
951,249;51,25
951,462;51,73
951,675;51,72
951,889;51,35
952,102;51,26
952,315;51,37
952,528;50,68
952,741;50,35
952,955;50,28
953,168;50,14
953,381;50,2
953,594;50,05
953,807;50,05
954,02;50,45
954,233;50,21
954,446;50,16
954,659;50,53
954,872;50,21
955,085;50,53
955,298;50,91
955,511;50,67
955,724;50,48
955,937;50,32
956,15;50,01
956,362;50,51
956,575;50,32
956,788;49,9
957,001;50,07
957,214;50,27
957,426;50,18
957,639;50,3
957,852;50,28
958,064;50,41
958,277;50,24
958,49;50,47
958,702;50,88
958,915;50,72
959,127;50,35
959,34;50,88
959,552;50,01
959,765;49,6
959,977;49,71
960,19;50,1
960,402;50,17
960,615;50,35
960,827;50,34
961,039;49,94
961,252;49,98
961,464;49,85
961,676;50,06
961,889;49,96
962,101;49,83
962,313;50,06
962,525;49,94
962,738;50,04
962,95;49,66
963,162;49,24
963,374;49,21
963,586;49,25
963,798;49,43
964,01;50,21
964,222;50,31
964,434;50,53
964,646;50,18
964,858;50,04
965,07;50,29
965,282;50,05
965,494;50,48
965,706;50,61
965,918;50,97
966,13;50,83
966,342;51,03
966,553;51,52
966,765;51,73
966,977;52,24
967,189;52,3
967,401;52,5
967,612;52,65
967,824;53,11
968,036;53,27
968,247;52,9
968,459;52,47
968,67;52,6
968,882;52,42
969,094;52,88
969,305;53,11
969,517;52,62
969,728;52,9
969,94;53
970,151;52,94
970,362;52,91
970,574;53,06
970,785;52,97
970,997;52,7
971,208;52,38
971,419;51,75
971,631;51,89
971,842;52
972,053;52,02
972,264;51,96
972,476;51,99
972,687;51,73
972,898;52,01
973,109;52,16
973,32;52,29
973,531;51,79
973,742;51,56
973,954;52
974,165;52
974,376;52,17
974,587;52,16
974,798;52,1
975,009;52,11
975,22;51,86
975,43;51,9
975,641;52,23
975,852;52,41
976,063;52,28
976,274;52
976,485;52,3
976,695;51,89
976,906;52,11
977,117;52,76
977,328;52,79
977,538;52,52
977,749;52,3
977,96;52,82
978,17;52,47
978,381;52,48
978,592;52,76
978,802;52,72
979,013;53
979,223;53,15
979,434;53,15
979,644;53,81
979,855;54,17
980,065;54,27
980,276;54,33
980,486;54,61
980,696;54,72
980,907;54,19
981,117;54,8
981,327;54,93
981,538;54,65
981,748;54,32
981,958;54,51
982,169;54,77
982,379;54,5
982,589;55,02
982,799;54,63
983,009;54,37
983,219;54,25
983,43;54,01
983,64;53,74
983,85;54,23
984,06;54,01
984,27;53,62
984,48;53,91
984,69;53,69
984,9;53,31
985,11;53,55
985,32;53,54
985,529;53,38
985,739;53,06
985,949;53,29
986,159;53,58
986,369;53,55
986,579;53,72
986,788;54,07
986,998;54,42
987,208;55,05
987,417;54,77
987,627;54,45
987,837;54,25
988,046;54,01
988,256;53,56
988,466;53,88
988,675;53,96
988,885;53,4
989,094;53,69
989,304;53,53
989,513;53,52
989,723;53,76
989,932;53,6
990,142;53,8
990,351;53,64
990,56;53,45
990,77;53,87
990,979;53,58
991,188;52,95
991,398;52,41
991,607;52,25
991,816;52,89
992,025;53,07
992,235;53,84
992,444;54,19
992,653;54,51
992,862;53,94
993,071;54,02
993,28;54,8
993,489;55,42
993,698;56,01
993,908;55,82
994,117;55,36
994,326;55,37
994,534;55,05
994,743;54,86
994,952;55,42
995,161;54,86
995,37;55,79
995,579;56,67
995,788;56,93
995,997;56,85
996,205;56,71
996,414;57,01
996,623;56,39
996,832;56,67
997,04;56,75
997,249;56,61
997,458;56,25
997,666;55,84
997,875;55,71
998,084;54,64
998,292;54,4
998,501;55,39
998,709;54,91
998,918;54,93
999,126;54,87
999,335;54,44
999,543;55
999,752;54,27
999,96;53,29
1000,169;52,95
1000,377;52,79
1000,585;52,51
1000,794;52,61
1001,002;52,71
1001,21;53,08
1001,418;52,4
1001,627;52,81
1001,835;53,45
1002,043;52,92
1002,251;52,24
1002,459;53,52
1002,668;53,57
1002,876;53,52
1003,084;54,01
1003,292;55,01
1003,5;55,11
1003,708;55,91
1003,916;55,11
1004,124;55,28
1004,332;56,04
1004,54;56,9
1004,748;57,39
1004,956;57,19
1005,163;56,37
1005,371;56,62
1005,579;55,91
1005,787;56,31
1005,995;56,06
1006,202;55,67
1006,41;56,3
1006,618;56,21
1006,826;56,05
1007,033;56,6
1007,241;56,37
1007,449;57,05
1007,656;56,41
1007,864;57,24
1008,071;57,18
1008,279;58,26
1008,486;57,97
1008,694;57,81
1008,901;57,16
1009,109;57,47
1009,316;57,8
1009,524;58,45
1009,731;58,86
1009,938;59,79
1010,146;59,81
1010,353;60,25
1010,56;60,04
1010,768;60,16
1010,975;60,75
1011,182;60,1
1011,389;59,11
1011,597;59,45
1011,804;58,28
1012,011;58,73
1012,218;58,49
1012,425;58,62
1012,632;58,6
1012,839;59,4
1013,046;59,89
1013,253;60,55
1013,46;60,32
1013,667;59,97
1013,874;59,21
1014,081;60,02
1014,288;58,61
1014,495;59,74
1014,702;58,9
1014,909;59,59
1015,116;59,03
1015,323;60,06
1015,529;60,82
1015,736;62,23
1015,943;62,78
1016,15;62,52
1016,356;61,92
1016,563;61,54
1016,77;61,38
1016,976;61,16
1017,183;61,88
1017,389;61,43
1017,596;61,52
1017,803;61,29
1018,009;62,36
1018,216;62,95
1018,422;62,06
1018,629;63,92
1018,835;62,33
1019,041;63,77
1019,248;63,15
1019,454;63,44
1019,661;61,94
1019,867;61,49
1020,073;61,67
1020,279;60,62
1020,486;60,78
1020,692;61,28
1020,898;61,87
1021,104;60,76
1021,311;60,28
1021,517;57,83
1021,723;58
1021,929;57,31
1022,135;58,43
1022,341;57,66
1022,547;58,09
1022,753;58,91
1022,959;57,69
1023,165;58,67
1023,371;58,85
1023,577;58,38
1023,783;56,65
1023,989;57,06
1024,195;58,3
1024,401;57,87
1024,607;58,95
1024,812;60,77
1025,018;61,66
1025,224;60,72
1025,43;61,14
1025,635;60,76
1025,841;63,37
1026,047;63,01
1026,252;64,25
1026,458;63,76
1026,664;64,02
1026,869;64,25
1027,075;62,6
1027,28;61,89
1027,486;61,94
1027,691;61,16
1027,897;62,53
1028,102;62,47
1028,308;62,64
1028,513;61,18
1028,719;59,83
1028,924;59,3
1029,129;59,41
1029,335;57,94
1029,54;58,34
1029,745;58,2
1029,95;59,03
1030,156;57,25
1030,361;56,93
1030,566;57,35
1030,771;56,79
1030,976;57,4
1031,182;57,39
1031,387;58,09
1031,592;60,06
1031,797;59,05
1032,002;59
1032,207;59,47
1032,412;61,09
1032,617;62,02
1032,822;62,27
1033,027;64,91
1033,232;66,46
1033,437;65,67
1033,642;65,04
1033,846;65,36
1034,051;65,72
1034,256;67,72
1034,461;67,47
1034,666;68,3
1034,87;65,87
1035,075;65,69
1035,28;64,84
1035,484;65,08
1035,689;63,33
1035,894;63,3
1036,098;63,03
1036,303;62,71
1036,507;61,73
1036,712;61,41
1036,917;62,25
1037,121;64,37
1037,325;63,93
1037,53;62,97
1037,734;63,05
1037,939;64,47
1038,143;65,97
1038,348;65,9
1038,552;64,81
1038,756;65,63
1038,961;64,35
1039,165;64,57
1039,369;66,53
1039,573;67,19
1039,778;65,16
1039,982;67,31
1040,186;65,65
1040,39;67,22
1040,594;68,32
1040,798;68,81
1041,002;69,47
1041,206;66,12
1041,41;65,52
1041,614;65,69
1041,818;64,82
1042,022;63,62
1042,226;63,24
1042,43;62,14
1042,634;61,3
1042,838;61,03
1043,042;63,49
1043,246;64,1
1043,45;65,14
1043,653;63,01
1043,857;65,38
1044,061;66,37
1044,265;66,13
1044,468;68,63
1044,672;69,57
1044,876;67,32
1045,079;68,35
1045,283;69,04
1045,487;70,59
1045,69;71,04
1045,894;69,32
1046,097;72,55
1046,301;72,42
1046,504;75,58
1046,708;76,71
1046,911;79,95
1047,115;76,45
1047,318;76,6
1047,522;80,24
1047,725;79,08
1047,928;76,84
1048,132;73,79
1048,335;76,69
1048,538;75,35
1048,741;76,05
1048,945;74,67
1049,148;79,62
1049,351;74,08
1049,554;73,65
1049,757;76,6
1049,96;72,53
1050,163;75,79
1050,367;74,21
1050,57;76,08
1050,773;73,72
1050,976;71,86
1051,179;71,25
1051,382;74,36
1051,585;71,38
1051,787;70,37
1051,99;73,57
1052,193;75,88
1052,396;78,48
1052,599;73,26
1052,802;75,36
1053,005;73,31
1053,207;74,49
1053,41;73,08
1053,613;77,48
1053,815;79,18
1054,018;77,99
1054,221;83,62
1054,423;81,55
1054,626;79,26
1054,829;80,68
1055,031;80,55
1055,234;82,18
1055,436;83,23
1055,639;84,76
1055,841;83,44
1056,044;83,72
1056,246;79,5
