5997,43814;15,63836
5995,38704;15,57019
5993,33593;15,48885
5991,28482;15,34769
5989,23371;15,21428
5987,18261;15,21671
5985,1315;15,29617
5983,08039;15,30177
5981,02928;15,27121
5978,97818;15,31945
5976,92707;15,36376
5974,87596;15,47936
5972,82485;15,72326
5970,77375;15,90244
5968,72264;15,95512
5966,67153;15,96144
5964,62042;15,97908
5962,56932;15,94609
5960,51821;15,84685
5958,4671;15,83947
5956,41599;15,90611
5954,36489;15,93713
5952,31378;15,9639
5950,26267;16,02228
5948,21156;16,10965
5946,16046;16,10325
5944,10935;15,91369
5942,05824;15,77178
5940,00713;15,84235
5937,95603;15,97568
5935,90492;16,017
5933,85381;15,9474
5931,80271;15,89042
5929,7516;15,83466
5927,70049;15,67305
5925,64938;15,62479
5923,59828;15,78109
5921,54717;15,86971
5919,49606;15,8044
5917,44495;15,74465
5915,39385;15,73479
5913,34274;15,77801
5911,29163;15,84164
5909,24052;15,79166
5907,18942;15,70036
5905,13831;15,74975
5903,0872;15,91998
5901,03609;15,99078
5898,98499;15,82018
5896,93388;15,58379
5894,88277;15,5309
5892,83166;15,62031
5890,78056;15,659
5888,72945;15,6736
5886,67834;15,78605
5884,62723;15,88556
5882,57613;15,84319
5880,52502;15,7934
5878,47391;15,77242
5876,4228;15,72529
5874,3717;15,71814
5872,32059;15,74076
5870,26948;15,79708
5868,21837;15,83176
5866,16727;15,69235
5864,11616;15,54452
5862,06505;15,58763
5860,01394;15,68155
5857,96284;15,73082
5855,91173;15,82448
5853,86062;15,98641
5851,80952;16,14759
5849,75841;16,1648
5847,7073;15,97958
5845,65619;15,84215
5843,60509;15,89445
5841,55398;15,9569
5839,50287;16,01577
5837,45176;16,15096
5835,40066;16,18962
5833,34955;16,08076
5831,29844;15,95143
5829,24733;15,88812
5827,19623;15,89406
5825,14512;15,83835
5823,09401;15,79992
5821,0429;15,97874
5818,9918;16,23884
5816,94069;16,26865
5814,88958;16,10266
5812,83847;16,0788
5810,78737;16,22077
5808,73626;16,25408
5806,68515;16,12769
5804,63404;16,01477
5802,58294;16,03641
5800,53183;16,16505
5798,48072;16,28094
5796,42961;16,37179
5794,37851;16,4248
5792,3274;16,37345
5790,27629;16,25476
5788,22518;16,16004
5786,17408;16,18269
5784,12297;16,27033
5782,07186;16,33298
5780,02075;16,35087
5777,96965;16,29252
5775,91854;16,19746
5773,86743;16,1882
5771,81633;16,26613
5769,76522;16,28296
5767,71411;16,24557
5765,663;16,28317
5763,6119;16,37725
5761,56079;16,40185
5759,50968;16,38457
5757,45857;16,39695
5755,40747;16,33891
5753,35636;16,17994
5751,30525;16,08319
5749,25414;16,12975
5747,20304;16,17935
5745,15193;16,13042
5743,10082;16,09719
5741,04971;16,22582
5738,99861;16,37651
5736,9475;16,39458
5734,89639;16,36337
5732,84528;16,30658
5730,79418;16,25336
5728,74307;16,28559
5726,69196;16,38967
5724,64085;16,40803
5722,58975;16,27146
5720,53864;16,20873
5718,48753;16,34312
5716,43642;16,39537
5714,38532;16,23752
5712,33421;16,16219
5710,2831;16,28247
5708,23199;16,37223
5706,18089;16,30489
5704,12978;16,24053
5702,07867;16,2571
5700,02756;16,32847
5697,97646;16,47592
5695,92535;16,50193
5693,87424;16,33542
5691,82314;16,30002
5689,77203;16,47682
5687,72092;16,6147
5685,66981;16,55682
5683,61871;16,36779
5681,5676;16,28189
5679,51649;16,41744
5677,46538;16,57085
5675,41428;16,57296
5673,36317;16,47432
5671,31206;16,38679
5669,26095;16,37137
5667,20985;16,31288
5665,15874;16,214
5663,10763;16,23872
5661,05652;16,37239
5659,00542;16,45287
5656,95431;16,38377
5654,9032;16,26187
5652,85209;16,21065
5650,80099;16,29901
5648,74988;16,48343
5646,69877;16,59231
5644,64766;16,55867
5642,59656;16,43801
5640,54545;16,34913
5638,49434;16,42931
5636,44323;16,56589
5634,39213;16,50006
5632,34102;16,3374
5630,28991;16,24356
5628,2388;16,168
5626,1877;16,15521
5624,13659;16,27394
5622,08548;16,40386
5620,03437;16,36283
5617,98327;16,18745
5615,93216;16,04001
5613,88105;16,01431
5611,82995;16,10805
5609,77884;16,23587
5607,72773;16,34737
5605,67662;16,38714
5603,62552;16,29755
5601,57441;16,16367
5599,5233;16,13983
5597,47219;16,20237
5595,42109;16,24811
5593,36998;16,2747
5591,31887;16,27719
5589,26776;16,2032
5587,21666;16,08198
5585,16555;16,00913
5583,11444;16,06764
5581,06333;16,21883
5579,01223;16,32307
5576,96112;16,33459
5574,91001;16,34946
5572,8589;16,41156
5570,8078;16,46935
5568,75669;16,52958
5566,70558;16,53002
5564,65447;16,37067
5562,60337;16,15158
5560,55226;16,00105
5558,50115;15,92341
5556,45004;15,93143
5554,39894;16,08278
5552,34783;16,32113
5550,29672;16,46457
5548,24561;16,43852
5546,19451;16,36102
5544,1434;16,31814
5542,09229;16,28274
5540,04118;16,25373
5537,99008;16,27302
5535,93897;16,29828
5533,88786;16,2559
5531,83676;16,17228
5529,78565;16,12954
5527,73454;16,20354
5525,68343;16,3005
5523,63233;16,23859
5521,58122;16,12799
5519,53011;16,11567
5517,479;16,15535
5515,4279;16,24677
5513,37679;16,3805
5511,32568;16,47911
5509,27457;16,44946
5507,22347;16,3736
5505,17236;16,40178
5503,12125;16,43357
5501,07014;16,35899
5499,01904;16,26237
5496,96793;16,29189
5494,91682;16,36035
5492,86571;16,36376
5490,81461;16,36385
5488,7635;16,39062
5486,71239;16,44108
5484,66128;16,45157
5482,61018;16,43312
5480,55907;16,43784
5478,50796;16,45133
5476,45685;16,42001
5474,40575;16,48867
5472,35464;16,61334
5470,30353;16,53549
5468,25242;16,38122
5466,20132;16,33652
5464,15021;16,33979
5462,0991;16,30283
5460,04799;16,27651
5457,99689;16,31419
5455,94578;16,37524
5453,89467;16,43703
5451,84357;16,46948
5449,79246;16,49103
5447,74135;16,48829
5445,69024;16,44515
5443,63914;16,41094
5441,58803;16,31964
5439,53692;16,33922
5437,48581;16,45118
5435,43471;16,50093
5433,3836;16,59787
5431,33249;16,57379
5429,28138;16,37841
5427,23028;16,2957
5425,17917;16,26656
5423,12806;16,24339
5421,07695;16,32446
5419,02585;16,44554
5416,97474;16,52188
5414,92363;16,60219
5412,87252;16,8133
5410,82142;16,94159
5408,77031;16,82571
5406,7192;16,6203
5404,66809;16,42577
5402,61699;16,3344
5400,56588;16,36352
5398,51477;16,44765
5396,46366;16,54874
5394,41256;16,58365
5392,36145;16,51338
5390,31034;16,40769
5388,25923;16,37853
5386,20813;16,47008
5384,15702;16,55458
5382,10591;16,54844
5380,0548;16,60879
5378,0037;16,7167
5375,95259;16,71976
5373,90148;16,60256
5371,85038;16,48381
5369,79927;16,46894
5367,74816;16,53255
5365,69705;16,6354
5363,64595;16,74275
5361,59484;16,82533
5359,54373;16,87379
5357,49262;16,89911
5355,44152;16,8973
5353,39041;16,96091
5351,3393;17,0993
5349,28819;17,14621
5347,23709;17,11478
5345,18598;17,0426
5343,13487;17,12803
5341,08376;17,27076
5339,03266;17,25694
5336,98155;17,28872
5334,93044;17,30956
5332,87933;17,26205
5330,82823;17,34576
5328,77712;17,45791
5326,72601;17,4551
5324,6749;17,4201
5322,6238;17,40017
5320,57269;17,41047
5318,52158;17,44386
5316,47047;17,52205
5314,41937;17,60084
5312,36826;17,64212
5310,31715;17,68409
5308,26604;17,74038
5306,21494;17,81592
5304,16383;17,84978
5302,11272;17,90929
5300,06161;18,09558
5298,01051;18,32892
5295,9594;18,54797
5293,90829;18,73471
5291,85719;18,79664
5289,80608;18,79922
5287,75497;18,87778
5285,70386;18,98523
5283,65276;19,20465
5281,60165;19,47719
5279,55054;19,67593
5277,49943;19,83872
5275,44833;19,95731
5273,39722;20,03123
5271,34611;20,12614
5269,295;20,38649
5267,2439;20,78056
5265,19279;21,02719
5263,14168;21,21286
5261,09057;21,39672
5259,03947;21,48376
5256,98836;21,63761
5254,93725;22,01283
5252,88614;22,55916
5250,83504;22,91105
5248,78393;23,03815
5246,73282;23,21338
5244,68171;23,30108
5242,63061;23,30852
5240,5795;23,3224
5238,52839;23,43538
5236,47728;23,78046
5234,42618;24,15463
5232,37507;24,43003
5230,32396;24,67591
5228,27285;24,82668
5226,22175;24,84228
5224,17064;25,02602
5222,11953;25,3432
5220,06842;25,58889
5218,01732;25,78931
5215,96621;25,85791
5213,9151;25,83631
5211,864;25,98519
5209,81289;26,36464
5207,76178;26,74326
5205,71067;27,01561
5203,65957;27,29548
5201,60846;27,46628
5199,55735;27,55544
5197,50624;27,69722
5195,45514;27,85994
5193,40403;27,85859
5191,35292;27,74196
5189,30181;27,73186
5187,25071;27,77834
5185,1996;27,80716
5183,14849;28,08299
5181,09738;28,51949
5179,04628;28,83123
5176,99517;29,01361
5174,94406;29,00118
5172,89295;28,8011
5170,84185;28,6614
5168,79074;28,60845
5166,73963;28,57831
5164,68852;28,66481
5162,63742;28,77793
5160,58631;28,80441
5158,5352;28,85445
5156,48409;28,88079
5154,43299;28,76761
5152,38188;28,6608
5150,33077;28,68704
5148,27966;28,72129
5146,22856;28,83534
5144,17745;29,14959
5142,12634;29,26138
5140,07523;29,03709
5138,02413;28,89179
5135,97302;29,0113
5133,92191;29,2262
5131,87081;29,29457
5129,8197;29,17315
5127,76859;29,0983
5125,71748;29,14706
5123,66638;29,08554
5121,61527;28,77613
5119,56416;28,40438
5117,51305;28,22116
5115,46195;28,14357
5113,41084;27,99688
5111,35973;27,86887
5109,30862;27,84864
5107,25752;27,85302
5105,20641;27,77038
5103,1553;27,58366
5101,10419;27,37255
5099,05309;27,20646
5097,00198;27,09351
5094,95087;26,95303
5092,89976;26,76844
5090,84866;26,65356
5088,79755;26,66656
5086,74644;26,7619
5084,69533;26,78647
5082,64423;26,65107
5080,59312;26,48511
5078,54201;26,45736
5076,4909;26,52743
5074,4398;26,48261
5072,38869;26,30145
5070,33758;26,14249
5068,28647;26,04532
5066,23537;26,03037
5064,18426;26,09366
5062,13315;26,08445
5060,08204;25,94677
5058,03094;25,75645
5055,97983;25,59286
5053,92872;25,50879
5051,87762;25,52323
5049,82651;25,58925
5047,7754;25,58382
5045,72429;25,46791
5043,67319;25,31137
5041,62208;25,1704
5039,57097;25,05965
5037,51986;25,00115
5035,46876;24,98745
5033,41765;24,96749
5031,36654;24,92358
5029,31543;24,87615
5027,26433;24,80718
5025,21322;24,70784
5023,16211;24,71058
5021,111;24,82069
5019,0599;24,83381
5017,00879;24,71496
5014,95768;24,55979
5012,90657;24,42083
5010,85547;24,35471
5008,80436;24,3531
5006,75325;24,34814
5004,70214;24,28503
5002,65104;24,16482
5000,59993;24,10718
4998,54882;24,16008
4996,49771;24,18476
4994,44661;24,11665
4992,3955;24,00239
4990,34439;23,86565
4988,29328;23,70804
4986,24218;23,44942
4984,19107;23,17899
4982,13996;23,16182
4980,08885;23,33554
4978,03775;23,45279
4975,98664;23,50519
4973,93553;23,49549
4971,88443;23,42217
4969,83332;23,31568
4967,78221;23,10715
4965,7311;22,92608
4963,68;22,94646
4961,62889;23,03677
4959,57778;23,00655
4957,52667;22,8642
4955,47557;22,82145
4953,42446;22,94341
4951,37335;22,99899
4949,32224;22,88758
4947,27114;22,73478
4945,22003;22,64329
4943,16892;22,66791
4941,11781;22,76944
4939,06671;22,80599
4937,0156;22,73734
4934,96449;22,63553
4932,91338;22,55215
4930,86228;22,55724
4928,81117;22,61044
4926,76006;22,57691
4924,70895;22,54411
4922,65785;22,59238
4920,60674;22,60139
4918,55563;22,5568
4916,50452;22,56187
4914,45342;22,63651
4912,40231;22,69962
4910,3512;22,69377
4908,30009;22,67346
4906,24899;22,69529
4904,19788;22,6737
4902,14677;22,51801
4900,09566;22,39297
4898,04456;22,46008
4895,99345;22,58404
4893,94234;22,6048
4891,89124;22,5907
4889,84013;22,70737
4887,78902;22,86949
4885,73791;22,86321
4883,68681;22,77768
4881,6357;22,72318
4879,58459;22,64083
4877,53348;22,56321
4875,48238;22,59574
4873,43127;22,69279
4871,38016;22,68771
4869,32905;22,65676
4867,27795;22,69694
4865,22684;22,68371
4863,17573;22,65903
4861,12462;22,69379
4859,07352;22,71379
4857,02241;22,75579
4854,9713;22,82374
4852,92019;22,80655
4850,86909;22,7818
4848,81798;22,85253
4846,76687;22,88946
4844,71576;22,85064
4842,66466;22,8301
4840,61355;22,80327
4838,56244;22,72416
4836,51133;22,65055
4834,46023;22,67548
4832,40912;22,73371
4830,35801;22,72173
4828,3069;22,72156
4826,2558;22,74357
4824,20469;22,75253
4822,15358;22,74136
4820,10247;22,61891
4818,05137;22,47897
4816,00026;22,48112
4813,94915;22,60843
4811,89805;22,78929
4809,84694;22,93411
4807,79583;22,95969
4805,74472;22,87909
4803,69362;22,78652
4801,64251;22,74357
4799,5914;22,76582
4797,54029;22,81455
4795,48919;22,83521
4793,43808;22,85192
4791,38697;22,87749
4789,33586;22,82406
4787,28476;22,68761
4785,23365;22,68297
4783,18254;22,85354
4781,13143;22,95361
4779,08033;22,9068
4777,02922;22,83658
4774,97811;22,84619
4772,927;22,93493
4770,8759;22,96222
4768,82479;22,91769
4766,77368;22,9198
4764,72257;22,9249
4762,67147;22,87567
4760,62036;22,8108
4758,56925;22,77098
4756,51814;22,78745
4754,46704;22,84966
4752,41593;22,90914
4750,36482;22,90533
4748,31371;22,86503
4746,26261;22,87033
4744,2115;22,85799
4742,16039;22,79409
4740,10928;22,77438
4738,05818;22,78324
4736,00707;22,79015
4733,95596;22,79669
4731,90486;22,75102
4729,85375;22,70045
4727,80264;22,68133
4725,75153;22,67717
4723,70043;22,67551
4721,64932;22,63793
4719,59821;22,62032
4717,5471;22,62741
4715,496;22,62546
4713,44489;22,6777
4711,39378;22,71453
4709,34267;22,64966
4707,29157;22,55858
4705,24046;22,48216
4703,18935;22,44001
4701,13824;22,46342
4699,08714;22,50408
4697,03603;22,54357
4694,98492;22,59727
4692,93381;22,60158
4690,88271;22,55557
4688,8316;22,56197
4686,78049;22,63429
4684,72938;22,65598
4682,67828;22,60553
4680,62717;22,60767
4678,57606;22,6473
4676,52495;22,61275
4674,47385;22,53824
4672,42274;22,47031
4670,37163;22,41433
4668,32052;22,37673
4666,26942;22,32228
4664,21831;22,31665
4662,1672;22,36688
4660,11609;22,32585
4658,06499;22,21084
4656,01388;22,13045
4653,96277;22,13085
4651,91167;22,18553
4649,86056;22,21853
4647,80945;22,2752
4645,75834;22,40223
4643,70724;22,47731
4641,65613;22,39882
4639,60502;22,26838
4637,55391;22,23838
4635,50281;22,26024
4633,4517;22,21449
4631,40059;22,18886
4629,34948;22,23698
4627,29838;22,20145
4625,24727;22,03395
4623,19616;21,90069
4621,14505;21,90236
4619,09395;21,93831
4617,04284;21,92368
4614,99173;21,90645
4612,94062;21,95613
4610,88952;22,04873
4608,83841;22,0804
4606,7873;22,08343
4604,73619;22,14912
4602,68509;22,19006
4600,63398;22,12217
4598,58287;22,00688
4596,53176;21,86882
4594,48066;21,73715
4592,42955;21,73082
4590,37844;21,85546
4588,32733;21,93313
4586,27623;21,86763
4584,22512;21,79586
4582,17401;21,83195
4580,1229;21,90614
4578,0718;21,93102
4576,02069;21,92036
4573,96958;21,91197
4571,91848;21,93365
4569,86737;21,94653
4567,81626;21,88842
4565,76515;21,82969
4563,71405;21,83642
4561,66294;21,85474
4559,61183;21,84247
4557,56072;21,85947
4555,50962;21,95177
4553,45851;22,02951
4551,4074;22,02768
4549,35629;21,99716
4547,30519;21,95926
4545,25408;21,924
4543,20297;21,92094
4541,15186;21,90078
4539,10076;21,84402
4537,04965;21,81472
4534,99854;21,79715
4532,94743;21,75923
4530,89633;21,70965
4528,84522;21,6545
4526,79411;21,67423
4524,743;21,76638
4522,6919;21,8193
4520,64079;21,86347
4518,58968;21,94765
4516,53857;21,99891
4514,48747;21,97151
4512,43636;21,90551
4510,38525;21,88519
4508,33414;21,93788
4506,28304;22,00131
4504,23193;22,06427
4502,18082;22,12167
4500,12971;22,13196
4498,07861;22,1083
4496,0275;22,06719
4493,97639;22,02107
4491,92529;22,043
4489,87418;22,18425
4487,82307;22,33723
4485,77196;22,40801
4483,72086;22,44739
4481,66975;22,50413
4479,61864;22,58002
4477,56753;22,6709
4475,51643;22,78749
4473,46532;22,87847
4471,41421;22,92755
4469,3631;23,04009
4467,312;23,21456
4465,26089;23,33432
4463,20978;23,44142
4461,15867;23,62286
4459,10757;23,83485
4457,05646;24,07444
4455,00535;24,32009
4452,95424;24,54733
4450,90314;24,80616
4448,85203;25,04189
4446,80092;25,24906
4444,74981;25,55622
4442,69871;25,93492
4440,6476;26,2711
4438,59649;26,55294
4436,54538;26,77766
4434,49428;26,95056
4432,44317;27,09982
4430,39206;27,24133
4428,34095;27,34008
4426,28985;27,33847
4424,23874;27,26506
4422,18763;27,2639
4420,13652;27,39551
4418,08542;27,51472
4416,03431;27,54871
4413,9832;27,53439
4411,9321;27,49477
4409,88099;27,48953
4407,82988;27,5253
4405,77877;27,51922
4403,72767;27,50612
4401,67656;27,58424
4399,62545;27,60415
4397,57434;27,4756
4395,52324;27,46413
4393,47213;27,64666
4391,42102;27,74533
4389,36991;27,71989
4387,31881;27,74771
4385,2677;27,82178
4383,21659;27,89715
4381,16548;28,0275
4379,11438;28,1698
4377,06327;28,26002
4375,01216;28,33266
4372,96105;28,3152
4370,90995;28,25037
4368,85884;28,27201
4366,80773;28,35468
4364,75662;28,44092
4362,70552;28,41558
4360,65441;28,32005
4358,6033;28,30211
4356,55219;28,31986
4354,50109;28,30351
4352,44998;28,31823
4350,39887;28,40869
4348,34776;28,45503
4346,29666;28,4639
4344,24555;28,52646
4342,19444;28,591
4340,14333;28,72944
4338,09223;29,01467
4336,04112;29,32476
4333,99001;29,55867
4331,93891;29,65045
4329,8878;29,6146
4327,83669;29,53597
4325,78558;29,45314
4323,73448;29,37801
4321,68337;29,30921
4319,63226;29,28142
4317,58115;29,29328
4315,53005;29,25326
4313,47894;29,11822
4311,42783;29,02641
4309,37672;29,09103
4307,32562;29,17157
4305,27451;29,20219
4303,2234;29,28947
4301,17229;29,3901
4299,12119;29,43435
4297,07008;29,41844
4295,01897;29,38964
4292,96786;29,43871
4290,91676;29,45286
4288,86565;29,32618
4286,81454;29,22979
4284,76343;29,25324
4282,71233;29,20473
4280,66122;29,06238
4278,61011;29,03804
4276,559;29,10971
4274,5079;29,17188
4272,45679;29,22113
4270,40568;29,19171
4268,35457;29,11698
4266,30347;29,06523
4264,25236;28,99669
4262,20125;29,00667
4260,15014;29,1584
4258,09904;29,25899
4256,04793;29,18541
4253,99682;29,06918
4251,94572;28,96815
4249,89461;28,77059
4247,8435;28,57962
4245,79239;28,59147
4243,74129;28,69725
4241,69018;28,67354
4239,63907;28,51595
4237,58796;28,40619
4235,53686;28,47775
4233,48575;28,60942
4231,43464;28,58456
4229,38353;28,44828
4227,33243;28,38217
4225,28132;28,39796
4223,23021;28,40361
4221,1791;28,36423
4219,128;28,25339
4217,07689;28,16849
4215,02578;28,28497
4212,97467;28,5251
4210,92357;28,67698
4208,87246;28,69273
4206,82135;28,69529
4204,77024;28,74863
4202,71914;28,79567
4200,66803;28,78677
4198,61692;28,74533
4196,56581;28,81357
4194,51471;29,01369
4192,4636;29,19235
4190,41249;29,32804
4188,36138;29,4161
4186,31028;29,37967
4184,25917;29,33983
4182,20806;29,44688
4180,15695;29,6049
4178,10585;29,70544
4176,05474;29,80859
4174,00363;29,89611
4171,95253;29,88168
4169,90142;29,83265
4167,85031;29,84735
4165,7992;30,02918
4163,7481;30,31297
4161,69699;30,4177
4159,64588;30,36747
4157,59477;30,35803
4155,54367;30,37567
4153,49256;30,39518
4151,44145;30,44673
4149,39034;30,52103
4147,33924;30,58803
4145,28813;30,60476
4143,23702;30,59971
4141,18591;30,57644
4139,13481;30,51067
4137,0837;30,55478
4135,03259;30,73213
4132,98148;30,86547
4130,93038;30,9116
4128,87927;30,95824
4126,82816;31,04134
4124,77705;31,11262
4122,72595;31,19031
4120,67484;31,30984
4118,62373;31,47837
4116,57262;31,68869
4114,52152;31,81566
4112,47041;31,86085
4110,4193;32,0095
4108,36819;32,25352
4106,31709;32,42742
4104,26598;32,51104
4102,21487;32,56064
4100,16376;32,63076
4098,11266;32,78331
4096,06155;32,97033
4094,01044;33,17349
4091,95934;33,37006
4089,90823;33,56075
4087,85712;33,92749
4085,80601;34,33516
4083,75491;34,4689
4081,7038;34,47433
4079,65269;34,64256
4077,60158;34,96535
4075,55048;35,2369
4073,49937;35,37519
4071,44826;35,45099
4069,39715;35,56096
4067,34605;35,79079
4065,29494;36,1162
4063,24383;36,46778
4061,19272;36,8541
4059,14162;37,30473
4057,09051;37,79118
4055,0394;38,14734
4052,98829;38,31948
4050,93719;38,59329
4048,88608;39,03573
4046,83497;39,34203
4044,78386;39,44976
4042,73276;39,45836
4040,68165;39,46206
4038,63054;39,686
4036,57943;40,0338
4034,52833;40,29798
4032,47722;40,50617
4030,42611;40,59441
4028,375;40,71279
4026,3239;41,03863
4024,27279;41,28723
4022,22168;41,33432
4020,17057;41,39228
4018,11947;41,4592
4016,06836;41,45336
4014,01725;41,42076
4011,96615;41,50274
4009,91504;41,68582
4007,86393;41,67508
4005,81282;41,53104
4003,76172;41,4874
4001,71061;41,52734
3999,6595;41,5985
3997,60839;41,72012
3995,55729;41,97411
3993,50618;42,30093
3991,45507;42,40698
3989,40396;42,36446
3987,35286;42,45001
3985,30175;42,65141
3983,25064;42,86514
3981,19953;43,02819
3979,14843;43,12365
3977,09732;43,27671
3975,04621;43,5449
3972,9951;43,62211
3970,944;43,26759
3968,89289;42,77495
3966,84178;42,63054
3964,79067;42,86493
3962,73957;43,09708
3960,68846;43,16375
3958,63735;43,07597
3956,58624;42,84133
3954,53514;42,63611
3952,48403;42,63736
3950,43292;42,7749
3948,38181;42,95193
3946,33071;43,10044
3944,2796;42,93615
3942,22849;42,60534
3940,17738;42,34356
3938,12628;42,08447
3936,07517;42,0505
3934,02406;42,17685
3931,97296;42,21248
3929,92185;42,02364
3927,87074;41,56368
3925,81963;41,03797
3923,76853;40,82117
3921,71742;40,73719
3919,66631;40,34733
3917,6152;39,72873
3915,5641;39,28104
3913,51299;39,08378
3911,46188;39,06547
3909,41077;39,3279
3907,35967;39,65118
3905,30856;39,81462
3903,25745;39,88842
3901,20634;39,61626
3899,15524;39,13016
3897,10413;39,0406
3895,05302;39,04911
3893,00191;38,78065
3890,95081;38,63963
3888,8997;38,75055
3886,84859;38,56809
3884,79748;38,73396
3882,74638;38,98812
3880,69527;38,59251
3878,64416;38,45589
3876,59305;38,5155
3874,54195;38,65048
3872,49084;39,07523
3870,43973;39,12785
3868,38862;39,1615
3866,33752;38,96807
3864,28641;38,57017
3862,2353;38,48862
3860,18419;38,58392
3858,13309;38,78084
3856,08198;38,57428
3854,03087;38,05986
3851,97977;38,32549
3849,92866;38,51355
3847,87755;38,08944
3845,82644;37,81425
3843,77534;38,16992
3841,72423;38,88029
3839,67312;39,00884
3837,62201;38,6526
3835,57091;38,42737
3833,5198;38,10851
3831,46869;37,8678
3829,41758;38,01501
3827,36648;38,23552
3825,31537;38,60936
3823,26426;38,73046
3821,21315;38,77902
3819,16205;39,38004
3817,11094;39,18235
3815,05983;38,72998
3813,00872;38,74512
3810,95762;38,66873
3808,90651;38,5429
3806,8554;38,90331
3804,80429;39,83874
3802,75319;40,03106
3800,70208;40,20452
3798,65097;40,69165
3796,59986;40,42518
3794,54876;40,05832
3792,49765;39,90118
3790,44654;39,95032
3788,39543;40,20835
3786,34433;40,45261
3784,29322;40,76123
3782,24211;41,02673
3780,191;40,90109
3778,1399;40,88673
3776,08879;41,18354
3774,03768;41,65041
3771,98658;42,14457
3769,93547;42,50691
3767,88436;42,80359
3765,83325;42,89387
3763,78215;43,20494
3761,73104;43,61411
3759,67993;44,09133
3757,62882;44,8176
3755,57772;45,39375
3753,52661;45,59798
3751,4755;46,03494
3749,42439;47,39105
3747,37329;48,41248
3745,32218;47,79005
3743,27107;48,00223
3741,21996;49,30992
3739,16886;49,94772
3737,11775;50,32785
3735,06664;50,9144
3733,01553;51,15986
3730,96443;51,30915
3728,91332;51,88955
3726,86221;52,64309
3724,8111;53,5963
3722,76;54,31265
3720,70889;55,02848
3718,65778;56,08003
3716,60667;57,2534
3714,55557;58,30903
3712,50446;59,59228
3710,45335;61,29242
3708,40224;62,42473
3706,35114;63,1647
3704,30003;64,57777
3702,24892;67,34585
3700,19781;71,33595
3698,14671;75,20343
3696,0956;78,84515
3694,04449;82,85538
3691,99338;86,40989
3689,94228;88,31462
3687,89117;88,50343
3685,84006;88,53615
3683,78896;89,62456
3681,73785;93,10921
3679,68674;99,01927
3677,63563;105,45806
3675,58453;111,73696
3673,53342;118,41273
3671,48231;121,66213
3669,4312;123,68552
3667,3801;127,35337
3665,32899;130,71986
3663,27788;134,74414
3661,22677;140,46974
3659,17567;147,01518
3657,12456;153,62018
3655,07345;162,12787
3653,02234;172,40887
3650,97124;184,88725
3648,92013;200,36615
3646,86902;209,99933
3644,81791;213,07979
3642,76681;215,19858
3640,7157;217,7793
3638,66459;220,80295
3636,61348;224,95297
3634,56238;228,5788
3632,51127;230,24632
3630,46016;228,92619
3628,40905;229,82318
3626,35795;236,33652
3624,30684;242,44711
3622,25573;249,35207
3620,20462;259,99448
3618,15352;273,47635
3616,10241;282,7572
3614,0513;283,79544
3612,00019;282,39374
3609,94909;280,63297
3607,89798;281,73843
3605,84687;293,59363
3603,79577;309,31442
3601,74466;314,60953
3599,69355;309,70621
3597,64244;308,13422
3595,59134;313,99326
3593,54023;318,35687
3591,48912;316,10464
3589,43801;311,87332
3587,38691;313,30432
3585,3358;321,09305
3583,28469;326,94992
3581,23358;328,86295
3579,18248;329,14334
3577,13137;330,237
3575,08026;335,29037
3573,02915;342,80164
3570,97805;349,65338
3568,92694;355,4158
3566,87583;361,66333
3564,82472;363,11859
3562,77362;350,72079
3560,72251;334,49615
3558,6714;328,60995
3556,62029;332,80823
3554,56919;338,43085
3552,51808;342,12405
3550,46697;347,34445
3548,41586;351,77084
3546,36476;353,91064
3544,31365;355,37436
3542,26254;352,8945
3540,21143;346,76611
3538,16033;341,89532
3536,10922;340,89987
3534,05811;339,54355
3532,007;333,64301
3529,9559;328,83417
3527,90479;328,92365
3525,85368;330,54214
3523,80258;331,48019
3521,75147;333,85605
3519,70036;339,5065
3517,64925;347,23935
3515,59815;352,35715
3513,54704;350,77536
3511,49593;344,72394
3509,44482;338,68655
3507,39372;336,01343
3505,34261;335,7558
3503,2915;333,19443
3501,24039;329,88583
3499,18929;331,13498
3497,13818;333,67395
3495,08707;333,15915
3493,03596;330,40353
3490,98486;328,10587
3488,93375;328,45883
3486,88264;328,32944
3484,83153;325,71317
3482,78043;321,52338
3480,72932;317,65057
3478,67821;322,06171
3476,6271;333,84216
3474,576;334,8952
3472,52489;324,18225
3470,47378;319,0563
3468,42267;318,10782
3466,37157;316,92642
3464,32046;323,89069
3462,26935;334,2168
3460,21824;332,26178
3458,16714;321,1983
3456,11603;313,28616
3454,06492;313,59677
3452,01381;319,3822
3449,96271;316,6842
3447,9116;303,22723
3445,86049;294,64792
3443,80939;294,63617
3441,75828;300,38065
3439,70717;306,01889
3437,65606;302,01501
3435,60496;293,37857
3433,55385;291,1723
3431,50274;292,52689
3429,45163;285,54004
3427,40053;274,74719
3425,34942;273,97571
3423,29831;283,94003
3421,2472;294,03629
3419,1961;292,84515
3417,14499;281,85907
3415,09388;269,7594
3413,04277;262,97397
3410,99167;265,67645
3408,94056;273,7113
3406,88945;281,04492
3404,83834;284,85663
3402,78724;280,54333
3400,73613;271,84009
3398,68502;268,88766
3396,63391;274,39352
3394,58281;279,71729
3392,5317;277,84851
3390,48059;273,3895
3388,42948;269,40863
3386,37838;265,51257
3384,32727;266,87146
3382,27616;273,01321
3380,22505;271,54196
3378,17395;261,83997
3376,12284;255,89836
3374,07173;257,53284
3372,02062;260,82028
3369,96952;259,14996
3367,91841;255,91019
3365,8673;255,73314
3363,8162;254,74702
3361,76509;250,78697
3359,71398;248,59064
3357,66287;252,08046
3355,61177;257,45087
3353,56066;258,16223
3351,50955;255,67487
3349,45844;253,09511
3347,40734;249,57182
3345,35623;245,85896
3343,30512;244,43805
3341,25401;246,03137
3339,20291;248,22107
3337,1518;250,31023
3335,10069;253,52362
3333,04958;255,74365
3330,99848;253,32149
3328,94737;248,67245
3326,89626;245,06163
3324,84515;241,68068
3322,79405;240,22124
3320,74294;240,61205
3318,69183;240,9836
3316,64072;244,2915
3314,58962;248,25792
3312,53851;246,17169
3310,4874;242,69945
3308,43629;242,12062
3306,38519;240,13487
3304,33408;237,19766
3302,28297;235,43178
3300,23186;233,75919
3298,18076;234,27887
3296,12965;238,52318
3294,07854;242,3604
3292,02743;242,72072
3289,97633;240,79816
3287,92522;238,81752
3285,87411;238,31609
3283,82301;237,75258
3281,7719;236,31966
3279,72079;234,97369
3277,66968;231,75922
3275,61858;228,0706
3273,56747;229,10291
3271,51636;230,53979
3269,46525;228,17177
3267,41415;227,98849
3265,36304;230,99254
3263,31193;232,62161
3261,26082;230,68613
3259,20972;226,96448
3257,15861;224,96681
3255,1075;224,07497
3253,05639;223,13539
3251,00529;223,49402
3248,95418;223,42886
3246,90307;222,05504
3244,85196;223,34123
3242,80086;229,024
3240,74975;234,00681
3238,69864;233,00218
3236,64753;227,95799
3234,59643;225,29782
3232,54532;225,87914
3230,49421;225,52486
3228,4431;225,23907
3226,392;227,1228
3224,34089;226,17264
3222,28978;220,15062
3220,23867;214,94846
3218,18757;213,92087
3216,13646;213,90482
3214,08535;212,14619
3212,03424;212,23909
3209,98314;217,22557
3207,93203;222,7177
3205,88092;223,29294
3203,82982;219,78682
3201,77871;217,29335
3199,7276;217,11893
3197,67649;216,31561
3195,62539;215,34857
3193,57428;214,7607
3191,52317;215,16072
3189,47206;217,50386
3187,42096;219,01338
3185,36985;220,8938
3183,31874;225,22202
3181,26763;226,41733
3179,21653;222,96826
3177,16542;220,37971
3175,11431;218,02502
3173,0632;214,04128
3171,0121;212,9592
3168,96099;214,87804
3166,90988;216,16151
3164,85877;215,67635
3162,80767;214,52934
3160,75656;214,2462
3158,70545;212,06519
3156,65434;208,07722
3154,60324;206,98991
3152,55213;209,74626
3150,50102;212,77422
3148,44991;213,11464
3146,39881;212,22479
3144,3477;212,55313
3142,29659;214,27553
3140,24548;216,52036
3138,19438;216,87772
3136,14327;214,2773
3134,09216;211,27625
3132,04105;208,56821
3129,98995;206,76895
3127,93884;207,81682
3125,88773;210,55719
3123,83663;211,6989
3121,78552;209,46266
3119,73441;206,51999
3117,6833;207,43169
3115,6322;211,30348
3113,58109;213,30646
3111,52998;212,95476
3109,47887;212,07457
3107,42777;211,02843
3105,37666;209,8369
3103,32555;208,1324
3101,27444;206,70183
3099,22334;207,99107
3097,17223;210,69675
3095,12112;211,6413
3093,07001;212,45863
3091,01891;213,54749
3088,9678;213,80005
3086,91669;214,47835
3084,86558;214,04494
3082,81448;211,13297
3080,76337;209,36789
3078,71226;210,45464
3076,66115;212,42719
3074,61005;214,32343
3072,55894;215,97356
3070,50783;215,79543
3068,45672;212,13316
3066,40562;208,16982
3064,35451;207,41774
3062,3034;208,75293
3060,25229;209,72055
3058,20119;209,70801
3056,15008;209,17871
3054,09897;208,62585
3052,04786;208,46335
3049,99676;208,86473
3047,94565;209,7608
3045,89454;210,5663
3043,84344;210,62157
3041,79233;210,32646
3039,74122;211,089
3037,69011;212,44397
3035,63901;211,65039
3033,5879;210,08098
3031,53679;211,7303
3029,48568;214,51672
3027,43458;213,55977
3025,38347;211,1447
3023,33236;210,95396
3021,28125;211,09978
3019,23015;210,64688
3017,17904;210,58836
3015,12793;210,60663
3013,07682;211,64241
3011,02572;213,61949
3008,97461;214,17337
3006,9235;212,83878
3004,87239;211,3629
3002,82129;211,37119
3000,77018;213,15808
2998,71907;215,24324
2996,66796;214,71123
2994,61686;211,16687
2992,56575;209,39539
2990,51464;210,62465
2988,46353;210,75027
2986,41243;210,5047
2984,36132;211,98119
2982,31021;212,6123
2980,2591;210,56654
2978,208;207,86327
2976,15689;208,75047
2974,10578;212,10538
2972,05467;213,28185
2970,00357;212,75465
2967,95246;213,0984
2965,90135;214,27072
2963,85025;214,19157
2961,79914;214,47621
2959,74803;217,43282
2957,69692;218,53108
2955,64582;215,47937
2953,59471;213,00996
2951,5436;212,48112
2949,49249;210,62529
2947,44139;207,41902
2945,39028;205,99834
2943,33917;206,69759
2941,28806;207,7262
2939,23696;207,94202
2937,18585;207,66101
2935,13474;208,81804
2933,08363;210,088
2931,03253;208,8828
2928,98142;206,82555
2926,93031;205,92288
2924,8792;205,92963
2922,8281;204,53941
2920,77699;201,60443
2918,72588;199,98961
2916,67477;200,35518
2914,62367;200,8147
2912,57256;201,16977
2910,52145;202,95013
2908,47034;204,67012
2906,41924;203,06863
2904,36813;199,17693
2902,31702;196,35068
2900,26591;196,23738
2898,21481;198,46736
2896,1637;199,41367
2894,11259;196,8374
2892,06148;194,42644
2890,01038;194,90811
2887,95927;196,99837
2885,90816;198,84889
2883,85706;199,47014
2881,80595;198,1033
2879,75484;197,00545
2877,70373;197,64493
2875,65263;197,57791
2873,60152;197,06502
2871,55041;196,51414
2869,4993;195,33098
2867,4482;194,44611
2865,39709;193,87204
2863,34598;193,01431
2861,29487;191,52882
2859,24377;190,08029
2857,19266;189,70377
2855,14155;190,01529
2853,09044;190,32988
2851,03934;190,76184
2848,98823;190,22282
2846,93712;188,83411
2844,88601;188,55664
2842,83491;188,74954
2840,7838;187,71355
2838,73269;186,54721
2836,68158;186,08864
2834,63048;184,89851
2832,57937;182,3429
2830,52826;179,7513
2828,47715;178,78783
2826,42605;179,17625
2824,37494;180,12149
2822,32383;180,22249
2820,27272;178,96716
2818,22162;177,89362
2816,17051;176,69748
2814,1194;175,25299
2812,06829;175,6248
2810,01719;177,62672
2807,96608;178,29741
2805,91497;177,43896
2803,86387;177,25909
2801,81276;177,03656
2799,76165;174,58942
2797,71054;171,56339
2795,65944;170,64148
2793,60833;170,9657
2791,55722;171,19035
2789,50611;171,76926
2787,45501;172,44609
2785,4039;172,899
2783,35279;173,21107
2781,30168;172,04875
2779,25058;169,96457
2777,19947;168,57556
2775,14836;168,23669
2773,09725;169,13791
2771,04615;169,44431
2768,99504;168,56253
2766,94393;167,57999
2764,89282;166,28523
2762,84172;166,05405
2760,79061;167,64911
2758,7395;168,07338
2756,68839;165,93156
2754,63729;164,00316
2752,58618;164,10602
2750,53507;164,28984
2748,48396;162,59975
2746,43286;160,73851
2744,38175;159,82767
2742,33064;159,20992
2740,27953;159,05258
2738,22843;159,20673
2736,17732;159,32156
2734,12621;159,67201
2732,0751;160,07346
2730,024;159,35638
2727,97289;158,11499
2725,92178;157,866
2723,87068;158,07742
2721,81957;157,91507
2719,76846;157,29495
2717,71735;157,0975
2715,66625;158,30116
2713,61514;159,73752
2711,56403;159,29256
2709,51292;157,203
2707,46182;155,59705
2705,41071;154,61159
2703,3596;153,0919
2701,30849;152,58557
2699,25739;153,71886
2697,20628;153,64723
2695,15517;152,24055
2693,10406;151,10767
2691,05296;149,93665
2689,00185;149,39104
2686,95074;150,15521
2684,89963;151,55511
2682,84853;152,28622
2680,79742;150,99699
2678,74631;148,59335
2676,6952;147,2085
2674,6441;146,61705
2672,59299;146,09511
2670,54188;146,1319
2668,49077;146,47258
2666,43967;146,27066
2664,38856;145,34715
2662,33745;144,72943
2660,28634;144,45154
2658,23524;143,97835
2656,18413;143,65471
2654,13302;142,95631
2652,08191;141,46561
2650,03081;139,50461
2647,9797;137,9248
2645,92859;137,61813
2643,87749;138,53044
2641,82638;139,90813
2639,77527;140,57732
2637,72416;139,91342
2635,67306;138,84172
2633,62195;138,84485
2631,57084;139,1832
2629,51973;138,36479
2627,46863;137,7242
2625,41752;137,96367
2623,36641;138,04475
2621,3153;137,97925
2619,2642;138,408
2617,21309;139,16658
2615,16198;138,82478
2613,11087;137,82391
2611,05977;137,92871
2609,00866;138,86432
2606,95755;139,60556
2604,90644;139,47585
2602,85534;139,13605
2600,80423;139,67093
2598,75312;140,37564
2596,70201;140,381
2594,65091;140,25684
2592,5998;140,09715
2590,54869;139,58417
2588,49758;139,76546
2586,44648;140,50587
2584,39537;140,22998
2582,34426;138,95084
2580,29315;137,68204
2578,24205;137,21324
2576,19094;137,77344
2574,13983;138,65541
2572,08872;139,16998
2570,03762;138,97655
2567,98651;138,30377
2565,9354;137,89296
2563,8843;137,68472
2561,83319;137,6127
2559,78208;137,55276
2557,73097;136,97275
2555,67987;136,52773
2553,62876;137,28638
2551,57765;138,85664
2549,52654;139,86407
2547,47544;139,53236
2545,42433;138,72794
2543,37322;138,73563
2541,32211;139,44656
2539,27101;140,09302
2537,2199;140,39488
2535,16879;140,9743
2533,11768;142,5585
2531,06658;144,65454
2529,01547;145,42148
2526,96436;144,35353
2524,91325;143,34982
2522,86215;143,72192
2520,81104;145,03815
2518,75993;146,30971
2516,70882;147,29982
2514,65772;148,01917
2512,60661;148,01401
2510,5555;147,7919
2508,50439;147,78333
2506,45329;147,61575
2504,40218;147,22729
2502,35107;146,11186
2500,29996;144,25317
2498,24886;143,16983
2496,19775;142,79257
2494,14664;141,35405
2492,09553;139,96571
2490,04443;140,13951
2487,99332;140,43387
2485,94221;139,42508
2483,89111;137,72754
2481,84;137,34341
2479,78889;137,7682
2477,73778;136,84496
2475,68668;135,40604
2473,63557;134,47415
2471,58446;133,73
2469,53335;132,96056
2467,48225;132,10277
2465,43114;131,30504
2463,38003;130,8065
2461,32892;129,92255
2459,27782;128,1039
2457,22671;126,36726
2455,1756;125,5574
2453,12449;125,25649
2451,07339;124,65572
2449,02228;123,78204
2446,97117;122,86984
2444,92006;122,0826
2442,86896;121,70445
2440,81785;121,12824
2438,76674;119,85111
2436,71563;118,71624
2434,66453;118,80677
2432,61342;119,70374
2430,56231;119,83427
2428,5112;119,02916
2426,4601;118,37104
2424,40899;117,72735
2422,35788;116,79661
2420,30677;116,24171
2418,25567;115,96835
2416,20456;115,61474
2414,15345;115,33292
2412,10234;114,81215
2410,05124;114,2811
2408,00013;114,69817
2405,94902;115,73625
2403,89792;116,50316
2401,84681;116,81246
2399,7957;116,63886
2397,74459;116,21127
2395,69349;115,81147
2393,64238;115,47145
2391,59127;115,02544
2389,54016;114,63066
2387,48906;114,745
2385,43795;115,30394
2383,38684;115,87392
2381,33573;116,52242
2379,28463;117,1767
2377,23352;117,22045
2375,18241;116,94038
2373,1313;117,03195
2371,0802;117,41545
2369,02909;118,32722
2366,97798;119,61917
2364,92687;119,53369
2362,87577;117,1666
2360,82466;114,53179
2358,77355;114,62369
2356,72244;117,85862
2354,67134;121,32424
2352,62023;122,45168
2350,56912;121,35349
2348,51801;119,54805
2346,46691;118,70518
2344,4158;119,69141
2342,36469;121,44033
2340,31358;121,96795
2338,26248;121,38227
2336,21137;121,30459
2334,16026;122,19294
2332,10915;122,67641
2330,05805;121,6983
2328,00694;120,72229
2325,95583;120,92531
2323,90473;121,46501
2321,85362;121,3321
2319,80251;120,66218
2317,7514;120,44936
2315,7003;120,59909
2313,64919;120,60136
2311,59808;121,23277
2309,54697;122,58123
2307,49587;123,52114
2305,44476;123,85364
2303,39365;124,03476
2301,34254;124,23376
2299,29144;124,44366
2297,24033;124,47606
2295,18922;124,20712
2293,13811;123,94412
2291,08701;124,01185
2289,0359;124,37607
2286,98479;124,98878
2284,93368;125,61703
2282,88258;125,76988
2280,83147;125,61602
2278,78036;125,82341
2276,72925;126,20832
2274,67815;126,23052
2272,62704;126,07677
2270,57593;126,04958
2268,52482;126,29304
2266,47372;126,82262
2264,42261;127,20177
2262,3715;127,47355
2260,32039;128,15129
2258,26929;128,55846
2256,21818;128,42085
2254,16707;128,77754
2252,11596;129,45346
2250,06486;129,65411
2248,01375;129,43654
2245,96264;129,18079
2243,91154;129,28828
2241,86043;129,78374
2239,80932;130,33809
2237,75821;130,88527
2235,70711;131,4567
2233,656;131,88861
2231,60489;132,54794
2229,55378;133,74052
2227,50268;134,7635
2225,45157;135,09407
2223,40046;135,46835
2221,34935;136,69116
2219,29825;137,59012
2217,24714;137,47083
2215,19603;137,22089
2213,14492;137,03955
2211,09382;138,04701
2209,04271;139,82886
2206,9916;139,88588
2204,94049;138,97386
2202,88939;139,17116
2200,83828;140,03044
2198,78717;140,3407
2196,73606;140,34274
2194,68496;140,59914
2192,63385;140,84671
2190,58274;140,68971
2188,53163;140,82849
2186,48053;141,95082
2184,42942;142,37968
2182,37831;141,3399
2180,3272;140,78603
2178,2761;140,91151
2176,22499;140,91402
2174,17388;141,45258
2172,12277;142,4865
2170,07167;143,4664
2168,02056;144,6284
2165,96945;146,14819
2163,91835;147,37228
2161,86724;147,08803
2159,81613;145,31297
2157,76502;144,23174
2155,71392;144,99962
2153,66281;146,42885
2151,6117;147,96928
2149,56059;149,53348
2147,50949;150,38812
2145,45838;150,63599
2143,40727;150,28893
2141,35616;149,23093
2139,30506;148,73317
2137,25395;148,838
2135,20284;148,73163
2133,15173;148,9707
2131,10063;149,29056
2129,04952;148,3541
2126,99841;146,65042
2124,9473;146,17177
2122,8962;147,08699
2120,84509;148,02803
2118,79398;148,36806
2116,74287;148,04771
2114,69177;147,16254
2112,64066;146,45023
2110,58955;146,60062
2108,53844;146,90125
2106,48734;146,13715
2104,43623;144,84106
2102,38512;144,28188
2100,33401;144,70187
2098,28291;145,26009
2096,2318;144,77484
2094,18069;144,24872
2092,12958;144,41765
2090,07848;143,66187
2088,02737;142,18863
2085,97626;141,9783
2083,92516;143,06329
2081,87405;143,74461
2079,82294;143,42039
2077,77183;142,70468
2075,72073;142,16554
2073,66962;141,95537
2071,61851;141,73152
2069,5674;141,51588
2067,5163;141,94165
2065,46519;142,87073
2063,41408;143,07101
2061,36297;142,39505
2059,31187;142,18549
2057,26076;142,92668
2055,20965;143,76282
2053,15854;144,12556
2051,10744;144,29906
2049,05633;144,01984
2047,00522;142,9118
2044,95411;141,79021
2042,90301;141,48538
2040,8519;141,53999
2038,80079;141,30124
2036,74968;141,10489
2034,69858;141,50085
2032,64747;142,3685
2030,59636;142,72939
2028,54525;142,01575
2026,49415;141,18509
2024,44304;140,88612
2022,39193;141,00723
2020,34082;141,5668
2018,28972;142,21716
2016,23861;142,47137
2014,1875;142,25874
2012,13639;141,59779
2010,08529;140,75754
2008,03418;140,00786
2005,98307;139,03708
2003,93197;138,37085
2001,88086;139,1658
1999,82975;140,28384
1997,77864;140,37691
1995,72754;140,70477
1993,67643;141,77487
1991,62532;142,40041
1989,57421;142,17151
1987,52311;141,83206
1985,472;142,07507
1983,42089;141,82416
1981,36978;140,84895
1979,31868;140,15308
1977,26757;140,24574
1975,21646;140,99019
1973,16535;141,67093
1971,11425;141,98245
1969,06314;142,02579
1967,01203;141,90448
1964,96092;142,21997
1962,90982;143,10199
1960,85871;143,82022
1958,8076;143,75754
1956,75649;143,66194
1954,70539;143,8746
1952,65428;143,77115
1950,60317;143,33722
1948,55206;143,1492
1946,50096;143,80453
1944,44985;144,90892
1942,39874;145,04832
1940,34763;143,81816
1938,29653;142,07793
1936,24542;141,5183
1934,19431;141,88246
1932,1432;141,99501
1930,0921;142,26044
1928,04099;143,35408
1925,98988;144,80066
1923,93878;145,28555
1921,88767;144,9651
1919,83656;144,04805
1917,78545;143,03342
1915,73435;143,40527
1913,68324;144,40031
1911,63213;145,68887
1909,58102;146,7375
1907,52992;146,75476
1905,47881;145,91075
1903,4277;144,99249
1901,37659;144,53871
1899,32549;144,89322
1897,27438;145,44681
1895,22327;145,17499
1893,17216;144,95126
1891,12106;145,43944
1889,06995;146,36853
1887,01884;146,9959
1884,96773;146,89618
1882,91663;147,61887
1880,86552;149,04546
1878,81441;149,31784
1876,7633;148,51477
1874,7122;148,24498
1872,66109;149,19391
1870,60998;150,47772
1868,55887;151,64427
1866,50777;152,33087
1864,45666;151,50467
1862,40555;150,40877
1860,35444;150,59583
1858,30334;151,64282
1856,25223;152,55009
1854,20112;153,10019
1852,15001;153,69014
1850,09891;155,09961
1848,0478;157,75598
1845,99669;160,03296
1843,94559;161,3667
1841,89448;163,28629
1839,84337;164,06003
1837,79226;163,59863
1835,74116;163,83067
1833,69005;165,13835
1831,63894;166,53326
1829,58783;168,13765
1827,53673;169,08145
1825,48562;167,30638
1823,43451;166,14961
1821,3834;167,08958
1819,3323;168,28297
1817,28119;169,21516
1815,23008;170,86423
1813,17897;173,73212
1811,12787;176,63438
1809,07676;178,11806
1807,02565;179,15974
1804,97454;182,30284
1802,92344;187,36446
1800,87233;192,65897
1798,82122;197,94724
1796,77011;202,42725
1794,71901;204,55081
1792,6679;204,6442
1790,61679;204,73625
1788,56568;203,22922
1786,51458;200,26848
1784,46347;199,85535
1782,41236;200,88869
1780,36125;199,83479
1778,31015;197,98512
1776,25904;196,70662
1774,20793;195,80954
1772,15682;195,85869
1770,10572;196,86325
1768,05461;196,57794
1766,0035;196,64195
1763,9524;196,88669
1761,90129;198,07957
1759,85018;201,48712
1757,79907;203,24924
1755,74797;204,19099
1753,69686;205,76559
1751,64575;208,22154
1749,59464;213,96954
1747,54354;219,2915
1745,49243;220,54402
1743,44132;219,03311
1741,39021;217,47621
1739,33911;219,79218
1737,288;226,25348
1735,23689;229,67531
1733,18578;232,81223
1731,13468;235,53268
1729,08357;233,0434
1727,03246;231,00639
1724,98135;232,50439
1722,93025;238,14259
1720,87914;245,91553
1718,82803;251,76091
1716,77692;257,54117
1714,72582;261,64694
1712,67471;262,29721
1710,6236;263,27435
1708,57249;267,23093
1706,52139;273,2691
1704,47028;282,44385
1702,41917;291,36026
1700,36806;297,48605
1698,31696;303,73267
1696,26585;301,24213
1694,21474;300,82178
1692,16363;305,75293
1690,11253;312,07626
1688,06142;321,09436
1686,01031;325,40787
1683,95921;328,19073
1681,9081;334,53021
1679,85699;332,73727
1677,80588;327,75098
1675,75478;327,91177
1673,70367;334,48154
1671,65256;337,72763
1669,60145;337,66678
1667,55035;344,22003
1665,49924;350,43475
1663,44813;347,79343
1661,39702;340,98938
1659,34592;336,71127
1657,29481;337,99765
1655,2437;338,0415
1653,19259;336,02853
1651,14149;346,16565
1649,09038;355,33432
1647,03927;354,62924
1644,98816;347,70078
1642,93706;336,34518
1640,88595;327,36914
1638,83484;324,74921
1636,78373;323,9408
1634,73263;324,22623
1632,68152;323,93674
1630,63041;319,883
1628,5793;318,17197
1626,5282;322,42288
1624,47709;326,33405
1622,42598;330,16672
1620,37487;335,00351
1618,32377;335,40063
1616,27266;340,2305
1614,22155;351,7417
1612,17044;357,47095
1610,11934;360,72891
1608,06823;365,62274
1606,01712;368,75659
1603,96602;368,08823
1601,91491;365,25815
1599,8638;365,28543
1597,81269;367,89706
1595,76159;368,14789
1593,71048;367,06128
1591,65937;367,55832
1589,60826;368,48456
1587,55716;366,04425
1585,50605;357,86374
1583,45494;350,92715
1581,40383;355,27475
1579,35273;369,69485
1577,30162;380,23764
1575,25051;378,51285
1573,1994;367,00098
1571,1483;351,99619
1569,09719;345,45547
1567,04608;344,85184
1564,99497;339,56937
1562,94387;336,30112
1560,89276;335,92599
1558,84165;333,6358
1556,79054;324,85999
1554,73944;309,9082
1552,68833;300,70755
1550,63722;295,93018
1548,58611;292,03784
1546,53501;291,72742
1544,4839;296,47485
1542,43279;298,29257
1540,38168;287,0209
1538,33058;277,73526
1536,27947;272,93793
1534,22836;264,04465
1532,17725;259,91171
1530,12615;262,01611
1528,07504;263,58157
1526,02393;265,73282
1523,97283;268,19604
1521,92172;267,22797
1519,87061;266,02194
1517,8195;263,22803
1515,7684;258,66861
1513,71729;255,67732
1511,66618;257,68152
1509,61507;263,22525
1507,56397;262,38077
1505,51286;261,0423
1503,46175;264,88876
1501,41064;267,20297
1499,35954;266,89078
1497,30843;264,24368
1495,25732;263,23398
1493,20621;265,46698
1491,15511;267,54791
1489,104;271,80176
1487,05289;275,85245
1485,00178;275,61475
1482,95068;274,59659
1480,89957;277,34976
1478,84846;283,18301
1476,79735;290,00235
1474,74625;298,25327
1472,69514;303,8313
1470,64403;305,0152
1468,59292;303,38602
1466,54182;303,17474
1464,49071;311,0188
1462,4396;323,77493
1460,38849;330,70856
1458,33739;334,63168
1456,28628;346,28198
1454,23517;354,65469
1452,18406;348,5004
1450,13296;342,24109
1448,08185;345,15753
1446,03074;353,19275
1443,97964;359,5437
1441,92853;363,38855
1439,87742;361,15637
1437,82631;347,45004
1435,77521;336,70334
1433,7241;340,30606
1431,67299;347,52872
1429,62188;349,56406
1427,57078;344,34055
1425,51967;332,51971
1423,46856;318,75531
1421,41745;307,42068
1419,36635;298,99673
1417,31524;293,68536
1415,26413;286,90897
1413,21302;278,10501
1411,16192;268,66327
1409,11081;259,79202
1407,0597;252,45706
1405,00859;246,25072
1402,95749;241,36743
1400,90638;237,01602
1398,85527;234,3176
1396,80416;233,02742
1394,75306;230,17039
1392,70195;227,98228
1390,65084;226,92874
1388,59973;225,1118
1386,54863;223,42026
1384,49752;222,85289
1382,44641;222,77985
1380,3953;223,79356
1378,3442;225,65906
1376,29309;227,2415
1374,24198;228,88309
1372,19087;231,13489
1370,13977;231,98575
1368,08866;231,73225
1366,03755;231,78613
1363,98645;232,18825
1361,93534;233,06464
1359,88423;231,69765
1357,83312;228,06551
1355,78202;228,27132
1353,73091;233,79904
1351,6798;238,43353
1349,62869;239,22574
1347,57759;239,91092
1345,52648;242,66762
1343,47537;246,31062
1341,42426;247,56749
1339,37316;244,83865
1337,32205;239,97118
1335,27094;234,30161
1333,21983;230,05409
1331,16873;228,55168
1329,11762;227,88301
1327,06651;226,18246
1325,0154;223,35899
1322,9643;221,7793
1320,91319;224,70877
1318,86208;229,35295
1316,81097;230,3837
1314,75987;228,8566
1312,70876;226,98988
1310,65765;225,0836
1308,60654;224,88455
1306,55544;226,70418
1304,50433;227,28944
1302,45322;225,99142
1300,40211;226,7953
1298,35101;230,05392
1296,2999;231,05518
1294,24879;229,15462
1292,19768;227,45737
1290,14658;227,17799
1288,09547;228,7662
1286,04436;230,95071
1283,99326;230,97383
1281,94215;229,13274
1279,89104;227,5152
1277,83993;226,354
1275,78883;224,74396
1273,73772;224,31732
1271,68661;227,97467
1269,6355;232,64236
1267,5844;234,25478
1265,53329;235,2373
1263,48218;235,82603
1261,43107;234,09921
1259,37997;232,08759
1257,32886;232,77237
1255,27775;236,54138
1253,22664;240,29385
1251,17554;241,34848
1249,12443;239,92754
1247,07332;237,14749
1245,02221;235,49596
1242,97111;237,10846
1240,92;241,40401
1238,86889;245,40202
1236,81778;247,37981
1234,76668;247,59528
1232,71557;245,15874
1230,66446;242,31413
1228,61335;243,22552
1226,56225;246,68846
1224,51114;249,18066
1222,46003;250,55251
1220,40892;251,02795
1218,35782;248,89105
1216,30671;246,30904
1214,2556;246,88637
1212,20449;250,26617
1210,15339;254,83922
1208,10228;257,46286
1206,05117;254,3959
1204,00006;248,54971
1201,94896;246,90642
1199,89785;250,00372
1197,84674;252,90843
1195,79564;253,96678
1193,74453;256,44836
1191,69342;263,19574
1189,64231;271,4736
1187,59121;275,58231
1185,5401;278,17267
1183,48899;285,55463
1181,43788;294,12393
1179,38678;297,75537
1177,33567;298,91779
1175,28456;300,8576
1173,23345;299,93161
1171,18235;295,27341
1169,13124;295,6438
1167,08013;302,43707
1165,02902;306,90259
1162,97792;305,63501
1160,92681;301,2565
1158,8757;298,59729
1156,82459;298,5697
1154,77349;295,93372
1152,72238;291,94446
1150,67127;288,85751
1148,62016;284,3909
1146,56906;280,67398
1144,51795;280,28967
1142,46684;280,58206
1140,41573;278,92416
1138,36463;278,78891
1136,31352;282,2157
1134,26241;285,81534
1132,2113;285,91486
1130,1602;281,54227
1128,10909;277,0329
1126,05798;276,19778
1124,00687;276,4415
1121,95577;274,00494
1119,90466;270,41769
1117,85355;270,57758
1115,80245;273,43332
1113,75134;272,30048
1111,70023;269,021
1109,64912;268,4054
1107,59802;266,71356
1105,54691;259,94415
1103,4958;252,55081
1101,44469;248,3791
1099,39359;243,67326
1097,34248;238,55717
1095,29137;234,31149
1093,24026;228,17815
1091,18916;220,86095
1089,13805;214,77347
1087,08694;209,53104
1085,03583;202,86667
1082,98473;195,62134
1080,93362;188,40219
1078,88251;182,32007
1076,8314;178,96608
1074,7803;176,44319
1072,72919;174,82436
1070,67808;175,18497
1068,62697;175,77496
1066,57587;175,36133
1064,52476;174,09222
1062,47365;173,68039
1060,42254;174,19836
1058,37144;173,17256
1056,32033;172,28717
1054,26922;172,41983
1052,21811;171,92648
1050,16701;172,42464
1048,1159;173,21077
1046,06479;171,59662
1044,01368;169,06221
1041,96258;167,869
1039,91147;166,29608
1037,86036;162,85951
1035,80926;158,90276
1033,75815;155,23866
1031,70704;153,73705
1029,65593;155,18245
1027,60483;156,77861
1025,55372;155,522
1023,50261;152,32382
1021,4515;150,5432
1019,4004;150,5
1017,34929;150,66287
1015,29818;150,68021
1013,24707;150,47858
1011,19597;150,96704
1009,14486;152,44231
1007,09375;153,89792
1005,04264;156,08965
1002,99154;158,92789
1000,94043;161,03603
998,88932;162,37779
996,83821;163,35426
994,78711;164,83386
992,736;166,25769
990,68489;166,92618
988,63378;168,09796
986,58268;169,85399
984,53157;170,93492
982,48046;170,94113
980,42935;170,99069
978,37825;171,23936
976,32714;171,49321
974,27603;173,13733
972,22492;174,40666
970,17382;172,6344
968,12271;170,24078
966,0716;170,21541
964,02049;172,0479
961,96939;173,15067
959,91828;172,9946
957,86717;173,45132
955,81607;175,49049
953,76496;178,8054
951,71385;181,87979
949,66274;184,21976
947,61164;187,43774
945,56053;190,27931
943,50942;191,18858
941,45831;191,99077
939,40721;194,34891
937,3561;198,58759
935,30499;202,60101
933,25388;205,34891
931,20278;210,2025
929,15167;216,33943
927,10056;217,17523
925,04945;213,58723
922,99835;211,92101
920,94724;214,3801
918,89613;217,94075
916,84502;217,96558
914,79392;216,0665
912,74281;215,16374
910,6917;215,6264
908,64059;217,95145
906,58949;222,03105
904,53838;228,27528
902,48727;233,28178
900,43616;231,08974
898,38506;229,77441
896,33395;233,71707
894,28284;232,38564
892,23173;228,4147
890,18063;230,08063
888,12952;231,74675
886,07841;231,75606
884,0273;236,08446
881,9762;243,30087
879,92509;245,25267
877,87398;242,02246
875,82288;237,69426
873,77177;231,03389
871,72066;227,49095
869,66955;234,36916
867,61845;245,40796
865,56734;251,13318
863,51623;253,77026
861,46512;258,56894
859,41402;262,33936
857,36291;262,29535
855,3118;261,44302
853,26069;258,94833
851,20959;257,22852
849,15848;259,79507
847,10737;260,68411
845,05626;260,39117
843,00516;261,18451
840,95405;259,15094
838,90294;262,67435
836,85183;271,3432
834,80073;271,74863
832,74962;270,24768
830,69851;273,90311
828,6474;279,89703
826,5963;280,82828
824,54519;274,19513
822,49408;272,63132
820,44297;277,60507
818,39187;279,06702
816,34076;274,2616
814,28965;264,52286
812,23854;255,41145
810,18744;251,51413
808,13633;254,46609
806,08522;260,53275
804,03411;257,84729
801,98301;249,22572
799,9319;252,46344
797,88079;269,18231
795,82969;278,9863
793,77858;274,86081
791,72747;270,96274
789,67636;268,46649
787,62526;260,12558
785,57415;256,23599
783,52304;267,24017
781,47193;277,2139
779,42083;268,02393
777,36972;254,19818
775,31861;248,31119
773,2675;245,33009
771,2164;242,31636
769,16529;245,32021
767,11418;252,03749
765,06307;256,09296
763,01197;259,68573
760,96086;262,12573
758,90975;262,67764
756,85864;264,54785
754,80754;265,26331
752,75643;261,8656
750,70532;254,20206
748,65421;251,53632
746,60311;254,42079
744,552;251,06667
742,50089;246,91913
740,44978;251,23703
738,39868;259,04578
736,34757;262,19089
734,29646;261,7598
732,24535;260,52173
730,19425;256,28171
728,14314;249,54448
726,09203;244,907
724,04092;243,23669
721,98982;242,4682
719,93871;243,10249
717,8876;247,96202
715,8365;254,92404
713,78539;255,52956
711,73428;246,21671
709,68317;238,5704
707,63207;244,81276
705,58096;258,8353
703,52985;265,7327
701,47874;262,77292
699,42764;253,7216
697,37653;242,42824
695,32542;233,15479
693,27431;226,49641
691,22321;220,02025
689,1721;214,03163
687,12099;213,2081
685,06988;219,55048
683,01878;224,34167
680,96767;223,06136
678,91656;221,54004
676,86545;218,09705
674,81435;209,49959
672,76324;202,52711
670,71213;203,29016
668,66102;205,43686
666,60992;201,43211
664,55881;201,13544
662,5077;208,89679
660,45659;213,37718
658,40549;209,80554
656,35438;205,3979
654,30327;201,06725
652,25216;197,43152
650,20106;197,88237
648,14995;199,99916
646,09884;200,79341
644,04773;201,73352
641,99663;200,62437
639,94552;193,80379
637,89441;185,38385
635,84331;182,99519
633,7922;187,79211
631,74109;193,13556
629,68998;195,65298
627,63888;197,76831
625,58777;203,59084
623,53666;210,85512
621,48555;208,36588
619,43445;202,44138
617,38334;204,25877
615,33223;204,86882
613,28112;197,12164
611,23002;186,78311
609,17891;179,22646
607,1278;175,92332
605,07669;175,82837
603,02559;177,74406
600,97448;180,73067
598,92337;185,349
596,87226;190,32292
594,82116;194,62924
592,77005;198,21477
590,71894;194,68953
588,66783;189,32635
586,61673;192,20097
584,56562;196,06589
582,51451;189,05128
580,4634;181,92889
578,4123;186,51939
576,36119;190,2523
574,31008;186,28719
572,25897;186,36353
570,20787;193,26959
568,15676;200,75002
566,10565;205,68814
564,05454;208,90817
562,00344;206,38838
559,95233;196,99393
557,90122;190,41634
555,85012;188,06358
553,79901;184,18951
551,7479;179,93199
549,69679;176,78432
547,64569;175,89302
545,59458;176,41389
543,54347;175,27975
541,49236;173,58701
539,44126;174,49176
537,39015;178,00922
535,33904;180,93219
533,28793;180,30196
531,23683;181,11069
529,18572;192,63841
527,13461;206,86572
525,0835;207,47252
523,0324;197,03914
520,98129;188,1386
518,93018;184,7571
516,87907;183,02998
514,82797;181,13686
512,77686;181,31714
510,72575;181,65224
508,67464;178,66084
506,62354;174,63638
504,57243;174,70921
502,52132;180,92357
500,47021;189,73209
498,41911;195,24754
496,368;197,16023
494,31689;193,71967
492,26578;187,31152
490,21468;185,67131
488,16357;187,18686
486,11246;190,08774
484,06135;195,85513
482,01025;196,57599
479,95914;188,32928
477,90803;183,02988
475,85693;190,11955
473,80582;196,2054
471,75471;189,80344
469,7036;183,36348
467,6525;178,79425
465,60139;172,28191
463,55028;173,49776
461,49917;187,7106
459,44807;194,78003
457,39696;174,46034
455,34585;152,62396
453,29474;150,3092
451,24364;163,15637
449,19253;170,60851
447,14142;158,69221
445,09031;143,91362
443,03921;139,60397
440,9881;138,12991
438,93699;137,70996
436,88588;142,84143
434,83478;142,68719
432,78367;135,24246
430,73256;135,02863
428,68145;139,52074
426,63035;137,10689
424,57924;132,57436
422,52813;137,47112
420,47702;152,70047
418,42592;160,8243
416,37481;147,12679
414,3237;136,55119
412,27259;141,00653
410,22149;142,6131
408,17038;131,49654
406,11927;117,98553
404,06816;111,50678
402,01706;111,97121
399,96595;113,18323
