5997,43814;11,12692
5995,38704;11,13608
5993,33593;11,13938
5991,28482;11,19038
5989,23371;11,29189
5987,18261;11,28527
5985,1315;11,15867
5983,08039;11,0987
5981,02928;11,1453
5978,97818;11,16656
5976,92707;11,14247
5974,87596;11,15747
5972,82485;11,19681
5970,77375;11,23179
5968,72264;11,28954
5966,67153;11,33813
5964,62042;11,28412
5962,56932;11,13911
5960,51821;11,07577
5958,4671;11,16986
5956,41599;11,26758
5954,36489;11,27325
5952,31378;11,22648
5950,26267;11,17151
5948,21156;11,14227
5946,16046;11,0869
5944,10935;11,04209
5942,05824;11,12519
5940,00713;11,22417
5937,95603;11,24692
5935,90492;11,26876
5933,85381;11,28848
5931,80271;11,29203
5929,7516;11,23926
5927,70049;11,17492
5925,64938;11,19956
5923,59828;11,20572
5921,54717;11,15126
5919,49606;11,13686
5917,44495;11,18859
5915,39385;11,25441
5913,34274;11,23303
5911,29163;11,20005
5909,24052;11,27205
5907,18942;11,336
5905,13831;11,33983
5903,0872;11,35992
5901,03609;11,37552
5898,98499;11,3315
5896,93388;11,28638
5894,88277;11,29433
5892,83166;11,32389
5890,78056;11,37596
5888,72945;11,42668
5886,67834;11,46247
5884,62723;11,47097
5882,57613;11,38356
5880,52502;11,28004
5878,47391;11,2766
5876,4228;11,31535
5874,3717;11,35887
5872,32059;11,4618
5870,26948;11,55389
5868,21837;11,48049
5866,16727;11,27853
5864,11616;11,15149
5862,06505;11,19116
5860,01394;11,30522
5857,96284;11,38026
5855,91173;11,38777
5853,86062;11,36693
5851,80952;11,37078
5849,75841;11,39345
5847,7073;11,34999
5845,65619;11,26693
5843,60509;11,2736
5841,55398;11,32956
5839,50287;11,33367
5837,45176;11,28311
5835,40066;11,24473
5833,34955;11,27822
5831,29844;11,31146
5829,24733;11,27447
5827,19623;11,24444
5825,14512;11,29399
5823,09401;11,38036
5821,0429;11,43377
5818,9918;11,4202
5816,94069;11,36158
5814,88958;11,31974
5812,83847;11,32662
5810,78737;11,40123
5808,73626;11,48994
5806,68515;11,51614
5804,63404;11,51432
5802,58294;11,50927
5800,53183;11,45992
5798,48072;11,35424
5796,42961;11,27154
5794,37851;11,2986
5792,3274;11,37058
5790,27629;11,40929
5788,22518;11,44695
5786,17408;11,46762
5784,12297;11,48035
5782,07186;11,54821
5780,02075;11,60932
5777,96965;11,6034
5775,91854;11,58384
5773,86743;11,56982
5771,81633;11,55811
5769,76522;11,5112
5767,71411;11,3893
5765,663;11,30607
5763,6119;11,33246
5761,56079;11,39527
5759,50968;11,4545
5757,45857;11,48159
5755,40747;11,46475
5753,35636;11,45666
5751,30525;11,46013
5749,25414;11,47695
5747,20304;11,53016
5745,15193;11,55667
5743,10082;11,5201
5741,04971;11,50042
5738,99861;11,53672
5736,9475;11,51807
5734,89639;11,43306
5732,84528;11,39554
5730,79418;11,3993
5728,74307;11,42771
5726,69196;11,46571
5724,64085;11,48333
5722,58975;11,49512
5720,53864;11,49461
5718,48753;11,50736
5716,43642;11,55819
5714,38532;11,56692
5712,33421;11,46409
5710,2831;11,34037
5708,23199;11,3104
5706,18089;11,36506
5704,12978;11,45351
5702,07867;11,52194
5700,02756;11,52854
5697,97646;11,49627
5695,92535;11,45285
5693,87424;11,42423
5691,82314;11,42491
5689,77203;11,42125
5687,72092;11,43096
5685,66981;11,50142
5683,61871;11,5518
5681,5676;11,49116
5679,51649;11,41847
5677,46538;11,41967
5675,41428;11,42846
5673,36317;11,38703
5671,31206;11,35129
5669,26095;11,39437
5667,20985;11,45261
5665,15874;11,43326
5663,10763;11,37276
5661,05652;11,34929
5659,00542;11,35495
5656,95431;11,34867
5654,9032;11,3435
5652,85209;11,38645
5650,80099;11,47973
5648,74988;11,5591
5646,69877;11,57654
5644,64766;11,54024
5642,59656;11,49899
5640,54545;11,464
5638,49434;11,43766
5636,44323;11,45743
5634,39213;11,49947
5632,34102;11,52241
5630,28991;11,52976
5628,2388;11,5185
5626,1877;11,4954
5624,13659;11,46904
5622,08548;11,44657
5620,03437;11,44407
5617,98327;11,43582
5615,93216;11,44956
5613,88105;11,51972
5611,82995;11,56959
5609,77884;11,57249
5607,72773;11,55363
5605,67662;11,52148
5603,62552;11,49976
5601,57441;11,4976
5599,5233;11,50607
5597,47219;11,51223
5595,42109;11,50295
5593,36998;11,49786
5591,31887;11,50631
5589,26776;11,49775
5587,21666;11,47093
5585,16555;11,45701
5583,11444;11,46114
5581,06333;11,47663
5579,01223;11,49104
5576,96112;11,4654
5574,91001;11,42774
5572,8589;11,44528
5570,8078;11,49885
5568,75669;11,54743
5566,70558;11,54969
5564,65447;11,48274
5562,60337;11,41702
5560,55226;11,4164
5558,50115;11,46708
5556,45004;11,49721
5554,39894;11,46611
5552,34783;11,45729
5550,29672;11,53915
5548,24561;11,64314
5546,19451;11,6477
5544,1434;11,5665
5542,09229;11,5452
5540,04118;11,57894
5537,99008;11,54936
5535,93897;11,50319
5533,88786;11,50421
5531,83676;11,50441
5529,78565;11,51014
5527,73454;11,51202
5525,68343;11,4768
5523,63233;11,45386
5521,58122;11,45519
5519,53011;11,46348
5517,479;11,50732
5515,4279;11,58346
5513,37679;11,65408
5511,32568;11,67979
5509,27457;11,66259
5507,22347;11,6385
5505,17236;11,59141
5503,12125;11,52967
5501,07014;11,50616
5499,01904;11,50526
5496,96793;11,50261
5494,91682;11,51798
5492,86571;11,51797
5490,81461;11,50397
5488,7635;11,54934
5486,71239;11,60922
5484,66128;11,62353
5482,61018;11,61108
5480,55907;11,57865
5478,50796;11,56172
5476,45685;11,59541
5474,40575;11,63115
5472,35464;11,6452
5470,30353;11,67765
5468,25242;11,6883
5466,20132;11,61421
5464,15021;11,5226
5462,0991;11,49666
5460,04799;11,5177
5457,99689;11,55343
5455,94578;11,59286
5453,89467;11,62123
5451,84357;11,6342
5449,79246;11,64715
5447,74135;11,68976
5445,69024;11,72589
5443,63914;11,68648
5441,58803;11,61814
5439,53692;11,60053
5437,48581;11,65074
5435,43471;11,72893
5433,3836;11,76826
5431,33249;11,76522
5429,28138;11,73614
5427,23028;11,71181
5425,17917;11,75144
5423,12806;11,80268
5421,07695;11,79605
5419,02585;11,75242
5416,97474;11,70624
5414,92363;11,69943
5412,87252;11,74184
5410,82142;11,7683
5408,77031;11,71976
5406,7192;11,645
5404,66809;11,60906
5402,61699;11,61287
5400,56588;11,64583
5398,51477;11,68843
5396,46366;11,73223
5394,41256;11,78787
5392,36145;11,8189
5390,31034;11,8144
5388,25923;11,81717
5386,20813;11,80434
5384,15702;11,76506
5382,10591;11,77277
5380,0548;11,85467
5378,0037;11,93631
5375,95259;11,92307
5373,90148;11,84614
5371,85038;11,81862
5369,79927;11,86652
5367,74816;11,93317
5365,69705;11,96801
5363,64595;11,96865
5361,59484;11,98049
5359,54373;12,01461
5357,49262;12,01182
5355,44152;11,98398
5353,39041;11,97501
5351,3393;11,95315
5349,28819;11,92099
5347,23709;11,93443
5345,18598;11,98723
5343,13487;12,02511
5341,08376;12,06794
5339,03266;12,10149
5336,98155;12,07255
5334,93044;12,08792
5332,87933;12,19075
5330,82823;12,24659
5328,77712;12,23798
5326,72601;12,25092
5324,6749;12,30347
5322,6238;12,36525
5320,57269;12,39079
5318,52158;12,38121
5316,47047;12,37327
5314,41937;12,37287
5312,36826;12,38039
5310,31715;12,42105
5308,26604;12,48373
5306,21494;12,51254
5304,16383;12,51102
5302,11272;12,54088
5300,06161;12,60145
5298,01051;12,64245
5295,9594;12,66938
5293,90829;12,69718
5291,85719;12,69717
5289,80608;12,67816
5287,75497;12,69919
5285,70386;12,76617
5283,65276;12,84815
5281,60165;12,93556
5279,55054;13,01896
5277,49943;13,1065
5275,44833;13,18727
5273,39722;13,24385
5271,34611;13,29934
5269,295;13,32379
5267,2439;13,29071
5265,19279;13,2919
5263,14168;13,37064
5261,09057;13,45968
5259,03947;13,51027
5256,98836;13,55656
5254,93725;13,62708
5252,88614;13,64929
5250,83504;13,64741
5248,78393;13,71115
5246,73282;13,77508
5244,68171;13,81279
5242,63061;13,90234
5240,5795;14,04455
5238,52839;14,17859
5236,47728;14,24913
5234,42618;14,25917
5232,37507;14,26867
5230,32396;14,31036
5228,27285;14,35947
5226,22175;14,39281
5224,17064;14,40314
5222,11953;14,40057
5220,06842;14,39472
5218,01732;14,4002
5215,96621;14,45981
5213,9151;14,54286
5211,864;14,57324
5209,81289;14,5856
5207,76178;14,61369
5205,71067;14,61058
5203,65957;14,61966
5201,60846;14,72011
5199,55735;14,85558
5197,50624;14,94483
5195,45514;14,99697
5193,40403;15,04277
5191,35292;15,05979
5189,30181;15,04411
5187,25071;15,08637
5185,1996;15,1958
5183,14849;15,23587
5181,09738;15,17385
5179,04628;15,1121
5176,99517;15,13731
5174,94406;15,23136
5172,89295;15,28799
5170,84185;15,30034
5168,79074;15,33925
5166,73963;15,40111
5164,68852;15,47588
5162,63742;15,50736
5160,58631;15,41481
5158,5352;15,29662
5156,48409;15,26807
5154,43299;15,29263
5152,38188;15,34196
5150,33077;15,42622
5148,27966;15,49565
5146,22856;15,49806
5144,17745;15,4739
5142,12634;15,48489
5140,07523;15,52616
5138,02413;15,55902
5135,97302;15,52482
5133,92191;15,44251
5131,87081;15,37841
5129,8197;15,31382
5127,76859;15,28286
5125,71748;15,31862
5123,66638;15,30188
5121,61527;15,22305
5119,56416;15,2071
5117,51305;15,23991
5115,46195;15,23664
5113,41084;15,20914
5111,35973;15,21437
5109,30862;15,24566
5107,25752;15,26229
5105,20641;15,26163
5103,1553;15,27921
5101,10419;15,32236
5099,05309;15,32353
5097,00198;15,25317
5094,95087;15,18668
5092,89976;15,18224
5090,84866;15,22024
5088,79755;15,26759
5086,74644;15,26303
5084,69533;15,19345
5082,64423;15,1444
5080,59312;15,15679
5078,54201;15,18568
5076,4909;15,17948
5074,4398;15,13568
5072,38869;15,07317
5070,33758;15,01794
5068,28647;15,01731
5066,23537;15,0887
5064,18426;15,16307
5062,13315;15,16346
5060,08204;15,13453
5058,03094;15,13457
5055,97983;15,12644
5053,92872;15,08134
5051,87762;15,02764
5049,82651;14,995
5047,7754;14,99828
5045,72429;15,02869
5043,67319;15,06229
5041,62208;15,07468
5039,57097;15,02797
5037,51986;14,95467
5035,46876;14,91992
5033,41765;14,90465
5031,36654;14,89607
5029,31543;14,91516
5027,26433;14,92538
5025,21322;14,86974
5023,16211;14,81891
5021,111;14,87997
5019,0599;14,97834
5017,00879;14,98771
5014,95768;14,91677
5012,90657;14,84689
5010,85547;14,82905
5008,80436;14,82938
5006,75325;14,7986
5004,70214;14,77429
5002,65104;14,77869
5000,59993;14,74925
4998,54882;14,68056
4996,49771;14,65804
4994,44661;14,69279
4992,3955;14,71428
4990,34439;14,69612
4988,29328;14,654
4986,24218;14,65655
4984,19107;14,67274
4982,13996;14,60669
4980,08885;14,53697
4978,03775;14,53012
4975,98664;14,53875
4973,93553;14,53662
4971,88443;14,53529
4969,83332;14,53621
4967,78221;14,52928
4965,7311;14,52458
4963,68;14,5236
4961,62889;14,51554
4959,57778;14,50724
4957,52667;14,52619
4955,47557;14,58056
4953,42446;14,591
4951,37335;14,50284
4949,32224;14,44832
4947,27114;14,50999
4945,22003;14,55811
4943,16892;14,54313
4941,11781;14,53096
4939,06671;14,51379
4937,0156;14,49676
4934,96449;14,50384
4932,91338;14,5235
4930,86228;14,53972
4928,81117;14,51493
4926,76006;14,46455
4924,70895;14,44861
4922,65785;14,45228
4920,60674;14,44501
4918,55563;14,44609
4916,50452;14,47966
4914,45342;14,52324
4912,40231;14,5301
4910,3512;14,53751
4908,30009;14,5672
4906,24899;14,54815
4904,19788;14,48765
4902,14677;14,44725
4900,09566;14,44658
4898,04456;14,48296
4895,99345;14,5049
4893,94234;14,46552
4891,89124;14,40718
4889,84013;14,40122
4887,78902;14,46384
4885,73791;14,54633
4883,68681;14,56673
4881,6357;14,51433
4879,58459;14,483
4877,53348;14,51106
4875,48238;14,51824
4873,43127;14,47741
4871,38016;14,44915
4869,32905;14,45309
4867,27795;14,47083
4865,22684;14,48704
4863,17573;14,47868
4861,12462;14,45291
4859,07352;14,44644
4857,02241;14,43998
4854,9713;14,41949
4852,92019;14,40396
4850,86909;14,36236
4848,81798;14,29996
4846,76687;14,27397
4844,71576;14,28679
4842,66466;14,2856
4840,61355;14,24404
4838,56244;14,20263
4836,51133;14,18787
4834,46023;14,2013
4832,40912;14,22753
4830,35801;14,19734
4828,3069;14,11449
4826,2558;14,08035
4824,20469;14,11901
4822,15358;14,1586
4820,10247;14,13777
4818,05137;14,06874
4816,00026;14,02567
4813,94915;14,06498
4811,89805;14,13525
4809,84694;14,13803
4807,79583;14,08813
4805,74472;14,05626
4803,69362;14,04775
4801,64251;14,0412
4799,5914;14,03415
4797,54029;14,02238
4795,48919;14,01612
4793,43808;14,05097
4791,38697;14,08257
4789,33586;14,03957
4787,28476;13,96466
4785,23365;13,93147
4783,18254;13,95172
4781,13143;13,97738
4779,08033;13,96834
4777,02922;13,95167
4774,97811;13,95877
4772,927;13,99525
4770,8759;14,04699
4768,82479;14,05598
4766,77368;14,01304
4764,72257;13,96452
4762,67147;13,916
4760,62036;13,89713
4758,56925;13,93967
4756,51814;13,9811
4754,46704;13,97602
4752,41593;13,97297
4750,36482;14,00645
4748,31371;14,04244
4746,26261;14,03795
4744,2115;14,02049
4742,16039;14,02849
4740,10928;14,02362
4738,05818;13,9858
4736,00707;13,964
4733,95596;13,97602
4731,90486;13,98162
4729,85375;13,98218
4727,80264;14,00092
4725,75153;14,00161
4723,70043;13,99253
4721,64932;14,01433
4719,59821;14,01899
4717,5471;13,98642
4715,496;13,96434
4713,44489;13,96093
4711,39378;13,97728
4709,34267;14,00732
4707,29157;14,01833
4705,24046;14,01439
4703,18935;14,01576
4701,13824;14,02552
4699,08714;14,05513
4697,03603;14,08558
4694,98492;14,07603
4692,93381;14,04629
4690,88271;14,04761
4688,8316;14,08351
4686,78049;14,11577
4684,72938;14,11379
4682,67828;14,0832
4680,62717;14,06824
4678,57606;14,10846
4676,52495;14,18746
4674,47385;14,24921
4672,42274;14,28171
4670,37163;14,29743
4668,32052;14,29611
4666,26942;14,31026
4664,21831;14,31988
4662,1672;14,29095
4660,11609;14,28562
4658,06499;14,31583
4656,01388;14,34263
4653,96277;14,3661
4651,91167;14,34262
4649,86056;14,28698
4647,80945;14,30928
4645,75834;14,39531
4643,70724;14,43935
4641,65613;14,42624
4639,60502;14,42767
4637,55391;14,48077
4635,50281;14,53016
4633,4517;14,52406
4631,40059;14,48825
4629,34948;14,47056
4627,29838;14,48673
4625,24727;14,51475
4623,19616;14,54024
4621,14505;14,57594
4619,09395;14,60167
4617,04284;14,58346
4614,99173;14,52829
4612,94062;14,48999
4610,88952;14,50927
4608,83841;14,53573
4606,7873;14,53906
4604,73619;14,57375
4602,68509;14,62683
4600,63398;14,62661
4598,58287;14,5794
4596,53176;14,55174
4594,48066;14,60715
4592,42955;14,70663
4590,37844;14,72045
4588,32733;14,65076
4586,27623;14,58936
4584,22512;14,55626
4582,17401;14,55135
4580,1229;14,57041
4578,0718;14,59079
4576,02069;14,6013
4573,96958;14,60498
4571,91848;14,59002
4569,86737;14,56882
4567,81626;14,58908
4565,76515;14,62159
4563,71405;14,61173
4561,66294;14,59147
4559,61183;14,59221
4557,56072;14,59295
4555,50962;14,58116
4553,45851;14,56646
4551,4074;14,57103
4549,35629;14,59355
4547,30519;14,59639
4545,25408;14,5818
4543,20297;14,56168
4541,15186;14,54062
4539,10076;14,54281
4537,04965;14,55109
4534,99854;14,54739
4532,94743;14,56043
4530,89633;14,61647
4528,84522;14,67412
4526,79411;14,67076
4524,743;14,63069
4522,6919;14,62133
4520,64079;14,65704
4518,58968;14,69053
4516,53857;14,69232
4514,48747;14,68332
4512,43636;14,69514
4510,38525;14,7139
4508,33414;14,70914
4506,28304;14,70018
4504,23193;14,69641
4502,18082;14,68541
4500,12971;14,67054
4498,07861;14,66625
4496,0275;14,67456
4493,97639;14,69289
4491,92529;14,71607
4489,87418;14,73228
4487,82307;14,74566
4485,77196;14,75428
4483,72086;14,76543
4481,66975;14,78416
4479,61864;14,79306
4477,56753;14,79188
4475,51643;14,80882
4473,46532;14,84915
4471,41421;14,87092
4469,3631;14,87913
4467,312;14,91613
4465,26089;14,95349
4463,20978;14,95542
4461,15867;14,96664
4459,10757;15,02453
4457,05646;15,10119
4455,00535;15,15626
4452,95424;15,17909
4450,90314;15,19488
4448,85203;15,23152
4446,80092;15,28246
4444,74981;15,32346
4442,69871;15,36057
4440,6476;15,41614
4438,59649;15,49238
4436,54538;15,58389
4434,49428;15,67543
4432,44317;15,74945
4430,39206;15,83858
4428,34095;15,94106
4426,28985;15,9946
4424,23874;16,01596
4422,18763;16,04563
4420,13652;16,09125
4418,08542;16,13677
4416,03431;16,13046
4413,9832;16,09842
4411,9321;16,12081
4409,88099;16,19908
4407,82988;16,28857
4405,77877;16,34804
4403,72767;16,36353
4401,67656;16,35741
4399,62545;16,35469
4397,57434;16,37338
4395,52324;16,40165
4393,47213;16,4301
4391,42102;16,4748
4389,36991;16,52074
4387,31881;16,53983
4385,2677;16,54821
4383,21659;16,58875
4381,16548;16,66619
4379,11438;16,71066
4377,06327;16,67857
4375,01216;16,64707
4372,96105;16,6619
4370,90995;16,69778
4368,85884;16,75289
4366,80773;16,81357
4364,75662;16,87619
4362,70552;16,93627
4360,65441;16,97491
4358,6033;17,01556
4356,55219;17,07684
4354,50109;17,14009
4352,44998;17,19628
4350,39887;17,22028
4348,34776;17,19092
4346,29666;17,17556
4344,24555;17,19482
4342,19444;17,20645
4340,14333;17,22752
4338,09223;17,23359
4336,04112;17,21404
4333,99001;17,24205
4331,93891;17,30693
4329,8878;17,34432
4327,83669;17,36459
4325,78558;17,37867
4323,73448;17,3788
4321,68337;17,39916
4319,63226;17,44715
4317,58115;17,50407
4315,53005;17,55829
4313,47894;17,57873
4311,42783;17,57747
4309,37672;17,5721
4307,32562;17,54969
4305,27451;17,55533
4303,2234;17,64519
4301,17229;17,76012
4299,12119;17,79343
4297,07008;17,78498
4295,01897;17,81425
4292,96786;17,86114
4290,91676;17,91031
4288,86565;17,94009
4286,81454;17,94551
4284,76343;17,96845
4282,71233;18,00232
4280,66122;18,02535
4278,61011;18,05286
4276,559;18,10106
4274,5079;18,16008
4272,45679;18,20197
4270,40568;18,19164
4268,35457;18,13246
4266,30347;18,08606
4264,25236;18,07691
4262,20125;18,05943
4260,15014;18,02216
4258,09904;17,99757
4256,04793;17,98447
4253,99682;17,97602
4251,94572;17,9672
4249,89461;17,9199
4247,8435;17,82461
4245,79239;17,7447
4243,74129;17,69953
4241,69018;17,62857
4239,63907;17,55486
4237,58796;17,53939
4235,53686;17,53187
4233,48575;17,49214
4231,43464;17,46968
4229,38353;17,47141
4227,33243;17,45549
4225,28132;17,42483
4223,23021;17,39391
4221,1791;17,35728
4219,128;17,33919
4217,07689;17,33494
4215,02578;17,29007
4212,97467;17,26335
4210,92357;17,31388
4208,87246;17,35053
4206,82135;17,35153
4204,77024;17,37814
4202,71914;17,41677
4200,66803;17,44439
4198,61692;17,46076
4196,56581;17,46338
4194,51471;17,45357
4192,4636;17,45782
4190,41249;17,49749
4188,36138;17,54006
4186,31028;17,5697
4184,25917;17,5936
4182,20806;17,6071
4180,15695;17,60542
4178,10585;17,59009
4176,05474;17,59168
4174,00363;17,61962
4171,95253;17,62346
4169,90142;17,60718
4167,85031;17,63344
4165,7992;17,6806
4163,7481;17,70585
4161,69699;17,72433
4159,64588;17,72646
4157,59477;17,70178
4155,54367;17,68088
4153,49256;17,66423
4151,44145;17,64696
4149,39034;17,6385
4147,33924;17,62742
4145,28813;17,62882
4143,23702;17,65487
4141,18591;17,66791
4139,13481;17,66294
4137,0837;17,70114
4135,03259;17,77876
4132,98148;17,82104
4130,93038;17,81721
4128,87927;17,8197
4126,82816;17,84949
4124,77705;17,87633
4122,72595;17,89784
4120,67484;17,9186
4118,62373;17,90764
4116,57262;17,88631
4114,52152;17,9055
4112,47041;17,94758
4110,4193;17,9956
4108,36819;18,0677
4106,31709;18,13073
4104,26598;18,14717
4102,21487;18,16516
4100,16376;18,20429
4098,11266;18,22728
4096,06155;18,25089
4094,01044;18,28496
4091,95934;18,32266
4089,90823;18,35806
4087,85712;18,38904
4085,80601;18,45032
4083,75491;18,5506
4081,7038;18,6717
4079,65269;18,77258
4077,60158;18,81443
4075,55048;18,83168
4073,49937;18,87511
4071,44826;18,93497
4069,39715;18,98928
4067,34605;19,05357
4065,29494;19,13373
4063,24383;19,18778
4061,19272;19,21521
4059,14162;19,28142
4057,09051;19,38073
4055,0394;19,46985
4052,98829;19,57379
4050,93719;19,6961
4048,88608;19,77825
4046,83497;19,819
4044,78386;19,83987
4042,73276;19,86547
4040,68165;19,95261
4038,63054;20,05467
4036,57943;20,11085
4034,52833;20,16134
4032,47722;20,23276
4030,42611;20,305
4028,375;20,36482
4026,3239;20,41689
4024,27279;20,44779
4022,22168;20,46268
4020,17057;20,49867
4018,11947;20,56392
4016,06836;20,64563
4014,01725;20,73565
4011,96615;20,81317
4009,91504;20,87549
4007,86393;20,93456
4005,81282;20,96747
4003,76172;21,00193
4001,71061;21,09986
3999,6595;21,23581
3997,60839;21,32243
3995,55729;21,37264
3993,50618;21,48496
3991,45507;21,64864
3989,40396;21,74677
3987,35286;21,7584
3985,30175;21,76388
3983,25064;21,79196
3981,19953;21,80334
3979,14843;21,80321
3977,09732;21,83114
3975,04621;21,90077
3972,9951;22,0101
3970,944;22,13329
3968,89289;22,2415
3966,84178;22,3293
3964,79067;22,40466
3962,73957;22,47473
3960,68846;22,54814
3958,63735;22,65326
3956,58624;22,78695
3954,53514;22,89107
3952,48403;22,92939
3950,43292;22,95858
3948,38181;23,03245
3946,33071;23,07572
3944,2796;23,05494
3942,22849;23,04128
3940,17738;23,06089
3938,12628;23,06481
3936,07517;22,99548
3934,02406;22,88986
3931,97296;22,82954
3929,92185;22,78944
3927,87074;22,66491
3925,81963;22,42945
3923,76853;22,15975
3921,71742;21,96967
3919,66631;21,86271
3917,6152;21,7516
3915,5641;21,6265
3913,51299;21,54267
3911,46188;21,48467
3909,41077;21,37636
3907,35967;21,22369
3905,30856;21,1001
3903,25745;21,01965
3901,20634;20,96323
3899,15524;20,94493
3897,10413;20,94926
3895,05302;20,968
3893,00191;21,02199
3890,95081;21,06014
3888,8997;21,0266
3886,84859;20,9663
3884,79748;20,89806
3882,74638;20,89986
3880,69527;20,98894
3878,64416;21,0127
3876,59305;20,94997
3874,54195;20,86536
3872,49084;20,82612
3870,43973;20,86262
3868,38862;20,85365
3866,33752;20,82065
3864,28641;20,82473
3862,2353;20,82125
3860,18419;20,78632
3858,13309;20,71054
3856,08198;20,60252
3854,03087;20,45241
3851,97977;20,34615
3849,92866;20,40723
3847,87755;20,50559
3845,82644;20,51427
3843,77534;20,45055
3841,72423;20,36813
3839,67312;20,34375
3837,62201;20,37477
3835,57091;20,39458
3833,5198;20,40657
3831,46869;20,40752
3829,41758;20,40108
3827,36648;20,42279
3825,31537;20,43865
3823,26426;20,45034
3821,21315;20,4533
3819,16205;20,43151
3817,11094;20,50571
3815,05983;20,63419
3813,00872;20,71982
3810,95762;20,78883
3808,90651;20,83352
3806,8554;20,7934
3804,80429;20,69855
3802,75319;20,69829
3800,70208;20,77842
3798,65097;20,91162
3796,59986;21,08471
3794,54876;21,1839
3792,49765;21,22171
3790,44654;21,27265
3788,39543;21,34325
3786,34433;21,40819
3784,29322;21,46105
3782,24211;21,52564
3780,191;21,60258
3778,1399;21,66394
3776,08879;21,72887
3774,03768;21,79098
3771,98658;21,82975
3769,93547;21,87371
3767,88436;21,98181
3765,83325;22,15014
3763,78215;22,262
3761,73104;22,31356
3759,67993;22,3613
3757,62882;22,40543
3755,57772;22,42673
3753,52661;22,41829
3751,4755;22,4583
3749,42439;22,61483
3747,37329;22,87585
3745,32218;23,27774
3743,27107;23,60868
3741,21996;23,73313
3739,16886;23,8202
3737,11775;23,97452
3735,06664;24,26485
3733,01553;24,69011
3730,96443;25,07308
3728,91332;25,30458
3726,86221;25,4777
3724,8111;25,70584
3722,76;26,0438
3720,70889;26,4186
3718,65778;26,76354
3716,60667;27,05606
3714,55557;27,29193
3712,50446;27,56186
3710,45335;28,00454
3708,40224;28,61612
3706,35114;29,33624
3704,30003;30,3695
3702,24892;32,09908
3700,19781;34,49538
3698,14671;36,98731
3696,0956;39,09111
3694,04449;40,47007
3691,99338;40,96014
3689,94228;40,75018
3687,89117;40,31321
3685,84006;40,1272
3683,78896;40,38894
3681,73785;41,01178
3679,68674;41,7842
3677,63563;42,75865
3675,58453;44,19585
3673,53342;45,92124
3671,48231;47,93167
3669,4312;50,43392
3667,3801;52,95309
3665,32899;55,20842
3663,27788;57,43068
3661,22677;59,80196
3659,17567;62,47213
3657,12456;65,87022
3655,07345;70,05156
3653,02234;74,35391
3650,97124;79,73074
3648,92013;89,33289
3646,86902;103,58195
3644,81791;116,49306
3642,76681;122,87259
3640,7157;122,49225
3638,66459;118,13133
3636,61348;113,38757
3634,56238;110,61289
3632,51127;110,46951
3630,46016;112,98571
3628,40905;117,18947
3626,35795;120,92325
3624,30684;123,34021
3622,25573;124,94241
3620,20462;126,69939
3618,15352;130,26013
3616,10241;136,06583
3614,0513;141,61722
3612,00019;145,24263
3609,94909;148,53436
3607,89798;152,38617
3605,84687;155,62247
3603,79577;158,28624
3601,74466;161,86865
3599,69355;166,01967
3597,64244;169,07672
3595,59134;171,56534
3593,54023;175,31726
3591,48912;180,22581
3589,43801;184,33253
3587,38691;185,62642
3585,3358;184,54344
3583,28469;184,26718
3581,23358;186,56812
3579,18248;191,04327
3577,13137;196,47139
3575,08026;201,13631
3573,02915;203,03931
3570,97805;202,67172
3568,92694;203,69821
3566,87583;208,32263
3564,82472;214,18741
3562,77362;218,84239
3560,72251;222,91565
3558,6714;226,76056
3556,62029;230,38649
3554,56919;234,45927
3552,51808;238,4184
3550,46697;238,89357
3548,41586;232,9187
3546,36476;225,54662
3544,31365;226,03082
3542,26254;233,99634
3540,21143;241,71019
3538,16033;246,4957
3536,10922;251,02951
3534,05811;256,46451
3532,007;260,47073
3529,9559;259,90198
3527,90479;254,40182
3525,85368;249,22546
3523,80258;249,55376
3521,75147;252,68089
3519,70036;253,22594
3517,64925;252,45467
3515,59815;254,76213
3513,54704;260,08026
3511,49593;263,99411
3509,44482;262,23907
3507,39372;257,74219
3505,34261;256,43292
3503,2915;257,03122
3501,24039;257,41461
3499,18929;259,08502
3497,13818;259,93921
3495,08707;257,37552
3493,03596;254,30492
3490,98486;255,44685
3488,93375;260,92569
3486,88264;265,35123
3484,83153;264,24219
3482,78043;260,16919
3480,72932;259,70123
3478,67821;263,47379
3476,6271;266,30444
3474,576;266,81357
3472,52489;265,07928
3470,47378;259,3446
3468,42267;252,78918
3466,37157;251,75665
3464,32046;253,11887
3462,26935;251,77986
3460,21824;251,98006
3458,16714;253,53291
3456,11603;252,58037
3454,06492;253,38858
3452,01381;256,93539
3449,96271;257,49594
3447,9116;254,79904
3445,86049;250,07271
3443,80939;247,25017
3441,75828;250,09607
3439,70717;253,98561
3437,65606;253,81358
3435,60496;250,2457
3433,55385;248,92958
3431,50274;253,17776
3429,45163;258,61444
3427,40053;259,60928
3425,34942;257,4212
3423,29831;257,06265
3421,2472;256,09625
3419,1961;253,317
3417,14499;253,99678
3415,09388;256,22696
3413,04277;255,60463
3410,99167;255,55571
3408,94056;258,26584
3406,88945;261,43857
3404,83834;264,58087
3402,78724;269,85538
3400,73613;273,39456
3398,68502;265,19775
3396,63391;251,35732
3394,58281;245,76459
3392,5317;248,54538
3390,48059;252,90614
3388,42948;255,16837
3386,37838;254,84439
3384,32727;251,81851
3382,27616;247,45291
3380,22505;245,899
3378,17395;247,00941
3376,12284;246,93184
3374,07173;248,09517
3372,02062;251,45975
3369,96952;250,56235
3367,91841;244,0688
3365,8673;240,0181
3363,8162;243,38403
3361,76509;249,87933
3359,71398;253,79131
3357,66287;252,02974
3355,61177;245,24307
3353,56066;238,35442
3351,50955;235,25903
3349,45844;237,14264
3347,40734;240,88873
3345,35623;242,46002
3343,30512;243,1049
3341,25401;243,62781
3339,20291;242,17563
3337,1518;238,58528
3335,10069;236,95761
3333,04958;239,48157
3330,99848;241,35289
3328,94737;240,63535
3326,89626;240,71469
3324,84515;242,98199
3322,79405;244,49991
3320,74294;241,79935
3318,69183;236,44687
3316,64072;232,91425
3314,58962;232,22031
3312,53851;232,65796
3310,4874;233,48506
3308,43629;232,6382
3306,38519;230,07913
3304,33408;229,14093
3302,28297;230,05957
3300,23186;231,59178
3298,18076;231,17552
3296,12965;225,89479
3294,07854;218,61682
3292,02743;213,81483
3289,97633;213,42921
3287,92522;215,72195
3285,87411;218,83989
3283,82301;222,93094
3281,7719;222,86612
3279,72079;217,61531
3277,66968;214,94745
3275,61858;215,16353
3273,56747;214,18788
3271,51636;212,98567
3269,46525;212,89807
3267,41415;214,30609
3265,36304;216,9541
3263,31193;217,98755
3261,26082;216,04982
3259,20972;212,46516
3257,15861;208,34195
3255,1075;206,29614
3253,05639;206,47054
3251,00529;206,20444
3248,95418;205,99361
3246,90307;206,97285
3244,85196;209,10332
3242,80086;211,69772
3240,74975;212,12733
3238,69864;209,41922
3236,64753;206,20219
3234,59643;205,31808
3232,54532;205,78099
3230,49421;205,93144
3228,4431;206,16745
3226,392;204,73155
3224,34089;199,85143
3222,28978;195,64732
3220,23867;195,09851
3218,18757;196,46935
3216,13646;198,22125
3214,08535;198,83588
3212,03424;197,45598
3209,98314;195,88329
3207,93203;197,77498
3205,88092;202,81137
3203,82982;204,43047
3201,77871;201,15584
3199,7276;199,00664
3197,67649;198,89571
3195,62539;196,9949
3193,57428;193,52837
3191,52317;191,2673
3189,47206;191,3082
3187,42096;192,3465
3185,36985;192,18633
3183,31874;190,96098
3181,26763;190,19379
3179,21653;189,77574
3177,16542;189,59651
3175,11431;189,90901
3173,0632;189,40611
3171,0121;188,39534
3168,96099;188,48375
3166,90988;189,31332
3164,85877;189,89429
3162,80767;189,36807
3160,75656;187,61897
3158,70545;185,93245
3156,65434;185,04562
3154,60324;184,76265
3152,55213;185,21855
3150,50102;185,03546
3148,44991;183,37424
3146,39881;181,34668
3144,3477;179,4922
3142,29659;178,24101
3140,24548;177,55186
3138,19438;176,85724
3136,14327;176,45097
3134,09216;175,86723
3132,04105;174,85939
3129,98995;175,23389
3127,93884;176,66885
3125,88773;176,41602
3123,83663;175,96614
3121,78552;177,40091
3119,73441;177,47977
3117,6833;175,25394
3115,6322;173,72935
3113,58109;173,31841
3111,52998;172,58733
3109,47887;171,4109
3107,42777;170,97009
3105,37666;170,86746
3103,32555;169,97748
3101,27444;169,46066
3099,22334;169,56934
3097,17223;169,75308
3095,12112;171,45297
3093,07001;173,42004
3091,01891;172,71764
3088,9678;170,41339
3086,91669;169,22861
3084,86558;169,55745
3082,81448;169,54167
3080,76337;167,91435
3078,71226;165,85075
3076,66115;165,29327
3074,61005;165,88293
3072,55894;166,48227
3070,50783;166,17404
3068,45672;163,91978
3066,40562;161,52255
3064,35451;161,53528
3062,3034;163,28926
3060,25229;164,16835
3058,20119;163,06841
3056,15008;160,50751
3054,09897;157,86125
3052,04786;158,06444
3049,99676;160,41222
3047,94565;159,58517
3045,89454;156,08415
3043,84344;154,99377
3041,79233;156,67601
3039,74122;158,33749
3037,69011;158,31511
3035,63901;157,87389
3033,5879;159,28407
3031,53679;160,49837
3029,48568;158,04578
3027,43458;154,18124
3025,38347;151,57956
3023,33236;150,54282
3021,28125;151,3875
3019,23015;152,25235
3017,17904;151,97601
3015,12793;151,3119
3013,07682;150,09619
3011,02572;149,30533
3008,97461;149,90294
3006,9235;151,02643
3004,87239;151,82782
3002,82129;152,20491
3000,77018;152,64915
2998,71907;153,80922
2996,66796;155,9404
2994,61686;157,23576
2992,56575;157,37024
2990,51464;159,86635
2988,46353;162,81061
2986,41243;162,15512
2984,36132;161,20364
2982,31021;162,6701
2980,2591;165,00334
2978,208;165,97835
2976,15689;166,46716
2974,10578;167,9015
2972,05467;168,34795
2970,00357;166,89626
2967,95246;165,32497
2965,90135;165,63817
2963,85025;167,24101
2961,79914;167,47871
2959,74803;165,89571
2957,69692;163,80444
2955,64582;160,85994
2953,59471;157,42874
2951,5436;156,6364
2949,49249;158,33688
2947,44139;159,1214
2945,39028;158,43343
2943,33917;157,22298
2941,28806;156,04137
2939,23696;155,74663
2937,18585;155,37717
2935,13474;154,3631
2933,08363;154,30525
2931,03253;154,4256
2928,98142;152,88788
2926,93031;150,76889
2924,8792;149,77467
2922,8281;150,03969
2920,77699;150,16832
2918,72588;148,43796
2916,67477;145,61577
2914,62367;144,14784
2912,57256;143,78506
2910,52145;142,26109
2908,47034;140,11272
2906,41924;139,49591
2904,36813;139,88347
2902,31702;139,4906
2900,26591;138,1866
2898,21481;137,14603
2896,1637;137,06778
2894,11259;137,18759
2892,06148;137,21095
2890,01038;137,41014
2887,95927;137,00369
2885,90816;136,91873
2883,85706;138,65829
2881,80595;141,30699
2879,75484;143,95851
2877,70373;145,38774
2875,65263;145,32253
2873,60152;144,80811
2871,55041;142,67204
2869,4993;139,58041
2867,4482;137,61285
2865,39709;136,0687
2863,34598;133,87927
2861,29487;131,82832
2859,24377;130,94623
2857,19266;131,0928
2855,14155;130,76598
2853,09044;128,83603
2851,03934;126,37693
2848,98823;124,17273
2846,93712;122,61897
2844,88601;122,01961
2842,83491;120,85367
2840,7838;118,29482
2838,73269;115,30716
2836,68158;112,94767
2834,63048;111,36712
2832,57937;110,04232
2830,52826;108,66258
2828,47715;107,1761
2826,42605;105,75578
2824,37494;104,61301
2822,32383;103,68992
2820,27272;102,51997
2818,22162;101,27742
2816,17051;100,65526
2814,1194;100,59843
2812,06829;100,3735
2810,01719;99,41506
2807,96608;98,26196
2805,91497;97,5401
2803,86387;97,07781
2801,81276;96,63651
2799,76165;96,09505
2797,71054;95,36259
2795,65944;94,43548
2793,60833;93,48111
2791,55722;92,69514
2789,50611;92,03653
2787,45501;91,44243
2785,4039;91,02859
2783,35279;90,62741
2781,30168;89,98166
2779,25058;89,34624
2777,19947;88,95396
2775,14836;88,8752
2773,09725;88,9585
2771,04615;88,65828
2768,99504;88,00021
2766,94393;87,52757
2764,89282;87,33325
2762,84172;87,06873
2760,79061;86,40106
2758,7395;85,6939
2756,68839;85,39317
2754,63729;84,83932
2752,58618;83,99413
2750,53507;83,76711
2748,48396;83,70249
2746,43286;83,10634
2744,38175;82,49799
2742,33064;82,27941
2740,27953;82,29138
2738,22843;82,25983
2736,17732;81,92578
2734,12621;81,32694
2732,0751;80,88828
2730,024;80,90334
2727,97289;80,88316
2725,92178;80,20216
2723,87068;79,33967
2721,81957;79,04653
2719,76846;79,03972
2717,71735;78,78432
2715,66625;78,41615
2713,61514;78,1354
2711,56403;77,97403
2709,51292;77,83375
2707,46182;77,44177
2705,41071;76,84785
2703,3596;76,36253
2701,30849;76,16531
2699,25739;76,23935
2697,20628;76,28803
2695,15517;76,07182
2693,10406;75,65032
2691,05296;75,21893
2689,00185;75,06754
2686,95074;75,18445
2684,89963;75,25707
2682,84853;75,256
2680,79742;75,26332
2678,74631;74,94114
2676,6952;74,42351
2674,6441;74,20257
2672,59299;74,0598
2670,54188;73,95288
2668,49077;73,9466
2666,43967;73,80427
2664,38856;73,59634
2662,33745;73,65257
2660,28634;73,82314
2658,23524;73,63431
2656,18413;73,30946
2654,13302;73,10542
2652,08191;73,03722
2650,03081;73,15891
2647,9797;73,28587
2645,92859;73,35092
2643,87749;73,54589
2641,82638;74,01826
2639,77527;74,55608
2637,72416;75,03182
2635,67306;75,73648
2633,62195;76,42883
2631,57084;76,75833
2629,51973;77,1721
2627,46863;77,972
2625,41752;78,79605
2623,36641;79,27202
2621,3153;79,73016
2619,2642;80,68411
2617,21309;81,92908
2615,16198;82,79971
2613,11087;83,16249
2611,05977;83,769
2609,00866;84,98543
2606,95755;86,08283
2604,90644;86,5588
2602,85534;86,87491
2600,80423;87,41105
2598,75312;88,15501
2596,70201;88,95459
2594,65091;89,32685
2592,5998;89,02995
2590,54869;88,66934
2588,49758;88,71183
2586,44648;88,75204
2584,39537;88,74255
2582,34426;88,87074
2580,29315;88,79231
2578,24205;88,56866
2576,19094;88,52375
2574,13983;88,85346
2572,08872;89,42484
2570,03762;89,71561
2567,98651;89,57856
2565,9354;89,25242
2563,8843;89,11953
2561,83319;89,3782
2559,78208;89,8987
2557,73097;90,28978
2555,67987;90,39789
2553,62876;90,7306
2551,57765;91,20957
2549,52654;91,30671
2547,47544;91,4453
2545,42433;92,3323
2543,37322;93,56786
2541,32211;94,39503
2539,27101;95,5063
2537,2199;97,35987
2535,16879;98,97885
2533,11768;100,82097
2531,06658;103,8614
2529,01547;106,95905
2526,96436;109,18729
2524,91325;110,90011
2522,86215;112,32982
2520,81104;113,61607
2518,75993;114,42677
2516,70882;113,97749
2514,65772;112,71602
2512,60661;112,4102
2510,5555;113,20812
2508,50439;113,49728
2506,45329;112,49855
2504,40218;110,62579
2502,35107;108,42483
2500,29996;106,13387
2498,24886;104,03823
2496,19775;101,7852
2494,14664;98,84141
2492,09553;95,92794
2490,04443;93,34554
2487,99332;90,80456
2485,94221;88,68182
2483,89111;87,07507
2481,84;85,23981
2479,78889;83,01503
2477,73778;81,12423
2475,68668;79,64779
2473,63557;78,0905
2471,58446;76,44875
2469,53335;75,06797
2467,48225;73,90191
2465,43114;72,70816
2463,38003;71,6068
2461,32892;70,64034
2459,27782;69,67862
2457,22671;68,93122
2455,1756;68,38474
2453,12449;67,71851
2451,07339;67,14203
2449,02228;66,77878
2446,97117;66,33585
2444,92006;65,79832
2442,86896;65,18034
2440,81785;64,44573
2438,76674;63,94354
2436,71563;63,75635
2434,66453;63,52446
2432,61342;63,25505
2430,56231;62,94999
2428,5112;62,49894
2426,4601;62,16715
2424,40899;62,0883
2422,35788;61,94649
2420,30677;61,63919
2418,25567;61,42326
2416,20456;61,26859
2414,15345;61,02444
2412,10234;60,77147
2410,05124;60,70546
2408,00013;60,79089
2405,94902;60,61819
2403,89792;60,15748
2401,84681;59,87962
2399,7957;59,94458
2397,74459;60,09029
2395,69349;60,09181
2393,64238;59,94277
2391,59127;59,73822
2389,54016;59,54297
2387,48906;59,4992
2385,43795;59,68544
2383,38684;59,83786
2381,33573;59,803
2379,28463;59,82937
2377,23352;60,00628
2375,18241;60,10442
2373,1313;59,96188
2371,0802;59,75814
2369,02909;59,85189
2366,97798;60,20497
2364,92687;60,5649
2362,87577;60,87753
2360,82466;60,89112
2358,77355;60,53031
2356,72244;60,4678
2354,67134;61,03601
2352,62023;61,5276
2350,56912;61,4125
2348,51801;61,06252
2346,46691;60,91064
2344,4158;60,94545
2342,36469;61,03356
2340,31358;61,16454
2338,26248;61,10785
2336,21137;60,84737
2334,16026;60,84871
2332,10915;61,14854
2330,05805;61,45411
2328,00694;61,75018
2325,95583;61,92549
2323,90473;61,88963
2321,85362;61,89064
2319,80251;62,07859
2317,7514;62,30116
2315,7003;62,39315
2313,64919;62,37702
2311,59808;62,3325
2309,54697;62,27
2307,49587;62,12514
2305,44476;61,86455
2303,39365;61,73716
2301,34254;61,99704
2299,29144;62,41928
2297,24033;62,60109
2295,18922;62,53318
2293,13811;62,46278
2291,08701;62,43369
2289,0359;62,36668
2286,98479;62,29968
2284,93368;62,22206
2282,88258;62,1324
2280,83147;62,27447
2278,78036;62,6964
2276,72925;63,01515
2274,67815;63,10136
2272,62704;63,26955
2270,57593;63,62298
2268,52482;63,88604
2266,47372;63,91067
2264,42261;63,88564
2262,3715;63,92902
2260,32039;63,98691
2258,26929;64,155
2256,21818;64,50536
2254,16707;64,88661
2252,11596;65,2369
2250,06486;65,66243
2248,01375;66,10173
2245,96264;66,35471
2243,91154;66,51314
2241,86043;66,75125
2239,80932;67,07762
2237,75821;67,50378
2235,70711;67,84033
2233,656;67,96874
2231,60489;68,10794
2229,55378;68,28495
2227,50268;68,52166
2225,45157;68,92532
2223,40046;69,28671
2221,34935;69,46011
2219,29825;69,61186
2217,24714;69,87706
2215,19603;70,30966
2213,14492;70,70683
2211,09382;70,80376
2209,04271;70,84969
2206,9916;71,09354
2204,94049;71,45152
2202,88939;71,68847
2200,83828;71,84147
2198,78717;72,16589
2196,73606;72,26019
2194,68496;71,91537
2192,63385;71,8501
2190,58274;72,27444
2188,53163;72,63734
2186,48053;72,83425
2184,42942;73,16281
2182,37831;73,55457
2180,3272;73,87225
2178,2761;74,20294
2176,22499;74,55788
2174,17388;74,7806
2172,12277;74,82669
2170,07167;74,96208
2168,02056;75,33759
2165,96945;75,82395
2163,91835;76,27917
2161,86724;76,68027
2159,81613;77,22376
2157,76502;77,96153
2155,71392;78,66442
2153,66281;79,18107
2151,6117;79,6614
2149,56059;80,20157
2147,50949;80,6356
2145,45838;81,0211
2143,40727;81,42017
2141,35616;81,71564
2139,30506;81,9016
2137,25395;81,92046
2135,20284;81,71217
2133,15173;81,48486
2131,10063;81,33244
2129,04952;81,0213
2126,99841;80,57962
2124,9473;80,1554
2122,8962;79,50671
2120,84509;78,76517
2118,79398;78,45141
2116,74287;78,42857
2114,69177;78,13655
2112,64066;77,52769
2110,58955;77,10062
2108,53844;77,00336
2106,48734;77,07895
2104,43623;77,21585
2102,38512;77,26752
2100,33401;77,24012
2098,28291;77,14384
2096,2318;77,16039
2094,18069;77,32097
2092,12958;77,32431
2090,07848;77,2652
2088,02737;77,48892
2085,97626;77,86143
2083,92516;78,12284
2081,87405;78,27473
2079,82294;78,35757
2077,77183;78,47626
2075,72073;78,71655
2073,66962;78,89005
2071,61851;78,89783
2069,5674;78,94467
2067,5163;78,88628
2065,46519;78,52055
2063,41408;78,33571
2061,36297;78,57854
2059,31187;78,85993
2057,26076;78,97782
2055,20965;79,11902
2053,15854;79,53857
2051,10744;80,25994
2049,05633;80,83404
2047,00522;80,79207
2044,95411;80,44254
2042,90301;80,31511
2040,8519;80,49205
2038,80079;80,79398
2036,74968;80,99193
2034,69858;81,02967
2032,64747;81,11018
2030,59636;81,46161
2028,54525;82,0041
2026,49415;82,40632
2024,44304;82,37956
2022,39193;82,0976
2020,34082;82,16183
2018,28972;82,6545
2016,23861;83,07056
2014,1875;83,24568
2012,13639;83,40063
2010,08529;83,52604
2008,03418;83,40729
2005,98307;83,17113
2003,93197;83,31796
2001,88086;83,89036
1999,82975;84,31396
1997,77864;84,40812
1995,72754;84,47531
1993,67643;84,64263
1991,62532;84,88128
1989,57421;85,12162
1987,52311;85,27882
1985,472;85,36295
1983,42089;85,54174
1981,36978;85,75492
1979,31868;85,70553
1977,26757;85,62519
1975,21646;86,06692
1973,16535;86,84575
1971,11425;87,32094
1969,06314;87,35112
1967,01203;87,61295
1964,96092;88,86797
1962,90982;90,50124
1960,85871;91,22874
1958,8076;91,09659
1956,75649;90,87359
1954,70539;90,4905
1952,65428;89,85059
1950,60317;89,58264
1948,55206;89,77874
1946,50096;89,87799
1944,44985;89,90511
1942,39874;90,34702
1940,34763;91,21835
1938,29653;91,93587
1936,24542;92,10003
1934,19431;92,05508
1932,1432;92,0976
1930,0921;92,22317
1928,04099;92,4473
1925,98988;92,55088
1923,93878;92,65165
1921,88767;93,03011
1919,83656;93,2354
1917,78545;92,98888
1915,73435;93,07855
1913,68324;93,8612
1911,63213;94,68743
1909,58102;95,33779
1907,52992;95,97021
1905,47881;96,45826
1903,4277;96,87762
1901,37659;97,37912
1899,32549;97,639
1897,27438;97,67455
1895,22327;98,09857
1893,17216;99,02498
1891,12106;99,79066
1889,06995;99,93692
1887,01884;99,90162
1884,96773;100,23924
1882,91663;101,11018
1880,86552;102,32908
1878,81441;103,36581
1876,7633;103,92582
1874,7122;104,26784
1872,66109;104,68561
1870,60998;105,14346
1868,55887;105,45891
1866,50777;105,70535
1864,45666;106,26825
1862,40555;107,25513
1860,35444;108,35406
1858,30334;109,27313
1856,25223;109,95424
1854,20112;110,50365
1852,15001;111,16396
1850,09891;112,07522
1848,0478;113,12562
1845,99669;114,12296
1843,94559;114,952
1841,89448;115,72636
1839,84337;116,62391
1837,79226;117,79757
1835,74116;119,29227
1833,69005;120,70175
1831,63894;122,09218
1829,58783;123,7427
1827,53673;125,35066
1825,48562;127,44898
1823,43451;130,24826
1821,3834;132,59647
1819,3323;134,19768
1817,28119;136,02948
1815,23008;138,92268
1813,17897;142,93575
1811,12787;147,41113
1809,07676;151,95549
1807,02565;157,32411
1804,97454;164,05289
1802,92344;171,85782
1800,87233;179,67661
1798,82122;185,62314
1796,77011;189,54857
1794,71901;192,74097
1792,6679;194,30739
1790,61679;191,89919
1788,56568;186,41316
1786,51458;180,44376
1784,46347;175,75604
1782,41236;173,23843
1780,36125;172,01746
1778,31015;170,66919
1776,25904;169,05699
1774,20793;167,81888
1772,15682;167,30455
1770,10572;167,39197
1768,05461;167,91675
1766,0035;168,86674
1763,9524;170,37737
1761,90129;172,50183
1759,85018;175,81134
1757,79907;180,20798
1755,74797;183,73582
1753,69686;186,15314
1751,64575;189,0314
1749,59464;192,45882
1747,54354;195,4754
1745,49243;197,07433
1743,44132;197,21498
1741,39021;197,16351
1739,33911;197,62965
1737,288;199,28802
1735,23689;203,64647
1733,18578;209,58051
1731,13468;214,49771
1729,08357;218,69881
1727,03246;223,39711
1724,98135;229,91583
1722,93025;236,59303
1720,87914;241,12061
1718,82803;248,08521
1716,77692;260,50665
1714,72582;270,72217
1712,67471;275,67206
1710,6236;280,80774
1708,57249;291,30002
1706,52139;307,99225
1704,47028;327,06097
1702,41917;348,39615
1700,36806;373,16122
1698,31696;391,17242
1696,26585;403,08539
1694,21474;416,66464
1692,16363;427,03259
1690,11253;428,38416
1688,06142;418,84912
1686,01031;408,73453
1683,95921;404,85327
1681,9081;397,24435
1679,85699;384,87735
1677,80588;373,7179
1675,75478;360,22189
1673,70367;342,36826
1671,65256;329,37878
1669,60145;323,10129
1667,55035;314,29196
1665,49924;301,43506
1663,44813;289,88025
1661,39702;280,28854
1659,34592;269,52728
1657,29481;257,52777
1655,2437;245,3559
1653,19259;231,64642
1651,14149;220,21666
1649,09038;215,36884
1647,03927;212,10942
1644,98816;207,45331
1642,93706;204,57971
1640,88595;203,27042
1638,83484;201,36929
1636,78373;198,77756
1634,73263;196,0815
1632,68152;194,92513
1630,63041;196,0372
1628,5793;197,89906
1626,5282;199,00586
1624,47709;199,19482
1622,42598;198,58632
1620,37487;197,95541
1618,32377;198,54156
1616,27266;200,14453
1614,22155;201,83615
1612,17044;204,41679
1610,11934;208,48312
1608,06823;212,30954
1606,01712;215,32655
1603,96602;219,47523
1601,91491;224,84023
1599,8638;229,45177
1597,81269;232,49602
1595,76159;234,7527
1593,71048;237,57845
1591,65937;241,38327
1589,60826;245,46614
1587,55716;249,6143
1585,50605;252,49565
1583,45494;251,4648
1581,40383;247,47508
1579,35273;245,03409
1577,30162;246,43376
1575,25051;248,06422
1573,1994;245,18967
1571,1483;239,30229
1569,09719;234,11075
1567,04608;230,58888
1564,99497;226,11649
1562,94387;220,57254
1560,89276;215,56268
1558,84165;207,39674
1556,79054;195,95847
1554,73944;188,63252
1552,68833;184,19427
1550,63722;179,21681
1548,58611;173,1037
1546,53501;166,957
1544,4839;161,93037
1542,43279;158,93645
1540,38168;157,19978
1538,33058;154,21585
1536,27947;150,948
1534,22836;149,02567
1532,17725;148,05722
1530,12615;147,68221
1528,07504;147,72295
1526,02393;147,13446
1523,97283;146,23724
1521,92172;146,61494
1519,87061;146,7312
1517,8195;144,58459
1515,7684;141,54727
1513,71729;139,35268
1511,66618;137,52122
1509,61507;135,49529
1507,56397;134,68872
1505,51286;135,07721
1503,46175;134,89461
1501,41064;134,30899
1499,35954;133,47865
1497,30843;132,53192
1495,25732;131,63286
1493,20621;130,43568
1491,15511;129,65829
1489,104;130,15956
1487,05289;130,90721
1485,00178;131,25563
1482,95068;132,46541
1480,89957;134,65915
1478,84846;136,37894
1476,79735;137,33253
1474,74625;138,87721
1472,69514;142,13979
1470,64403;145,93913
1468,59292;149,20166
1466,54182;152,74663
1464,49071;155,99927
1462,4396;157,28903
1460,38849;156,98196
1458,33739;156,15495
1456,28628;155,79967
1454,23517;156,40254
1452,18406;156,83224
1450,13296;156,62753
1448,08185;156,52711
1446,03074;156,90489
1443,97964;157,34871
1441,92853;157,4837
1439,87742;157,67105
1437,82631;158,27824
1435,77521;158,03311
1433,7241;155,88976
1431,67299;153,49411
1429,62188;152,11012
1427,57078;151,02696
1425,51967;149,62656
1423,46856;148,53563
1421,41745;148,20213
1419,36635;147,64645
1417,31524;145,48163
1415,26413;142,26796
1413,21302;139,13942
1411,16192;136,20583
1409,11081;133,48106
1407,0597;131,74309
1405,00859;131,13635
1402,95749;130,49255
1400,90638;129,52834
1398,85527;129,20383
1396,80416;130,06783
1394,75306;131,53654
1392,70195;132,61009
1390,65084;133,22647
1388,59973;133,92336
1386,54863;134,80168
1384,49752;135,74779
1382,44641;136,74754
1380,3953;137,61446
1378,3442;138,37718
1376,29309;139,35298
1374,24198;140,30255
1372,19087;140,82674
1370,13977;141,30212
1368,08866;141,66592
1366,03755;141,65982
1363,98645;141,87218
1361,93534;142,46854
1359,88423;142,99448
1357,83312;143,61935
1355,78202;144,48187
1353,73091;145,30391
1351,6798;146,24028
1349,62869;147,22369
1347,57759;147,58319
1345,52648;147,45169
1343,47537;147,25935
1341,42426;146,88179
1339,37316;146,32443
1337,32205;145,80678
1335,27094;145,66812
1333,21983;145,73683
1331,16873;145,47388
1329,11762;145,69286
1327,06651;147,07246
1325,0154;148,28577
1322,9643;148,20984
1320,91319;147,59792
1318,86208;146,96683
1316,81097;145,81345
1314,75987;144,80652
1312,70876;145,00514
1310,65765;145,69006
1308,60654;145,43765
1306,55544;144,65491
1304,50433;144,07722
1302,45322;143,48373
1300,40211;143,05379
1298,35101;142,83121
1296,2999;142,96008
1294,24879;143,53841
1292,19768;143,76814
1290,14658;143,32628
1288,09547;143,12996
1286,04436;143,87413
1283,99326;144,8149
1281,94215;144,97147
1279,89104;144,91269
1277,83993;145,41515
1275,78883;145,75726
1273,73772;145,72729
1271,68661;146,03459
1269,6355;146,45018
1267,5844;146,88699
1265,53329;147,77911
1263,48218;148,69728
1261,43107;149,63756
1259,37997;150,7123
1257,32886;150,82423
1255,27775;149,80705
1253,22664;148,92805
1251,17554;149,01212
1249,12443;149,86678
1247,07332;150,93968
1245,02221;151,49922
1242,97111;151,69196
1240,92;152,78603
1238,86889;153,91487
1236,81778;153,26129
1234,76668;151,68045
1232,71557;150,23741
1230,66446;149,4064
1228,61335;149,4323
1226,56225;149,91666
1224,51114;150,10329
1222,46003;149,43071
1220,40892;148,56085
1218,35782;147,97697
1216,30671;147,62344
1214,2556;147,91074
1212,20449;149,37608
1210,15339;151,41574
1208,10228;152,46841
1206,05117;151,51956
1204,00006;149,25612
1201,94896;148,26955
1199,89785;149,72878
1197,84674;151,76884
1195,79564;152,83333
1193,74453;153,86986
1191,69342;154,03772
1189,64231;153,05388
1187,59121;153,50157
1185,5401;154,93307
1183,48899;155,32222
1181,43788;154,32071
1179,38678;153,76443
1177,33567;156,37898
1175,28456;160,35023
1173,23345;161,51768
1171,18235;160,31154
1169,13124;159,82994
1167,08013;161,27219
1165,02902;163,3123
1162,97792;164,29321
1160,92681;163,84641
1158,8757;162,56573
1156,82459;162,07104
1154,77349;163,23689
1152,72238;164,12286
1150,67127;163,30174
1148,62016;163,82748
1146,56906;165,85333
1144,51795;165,32187
1142,46684;164,06471
1140,41573;165,36729
1138,36463;166,56532
1136,31352;165,68562
1134,26241;164,70346
1132,2113;164,77538
1130,1602;165,41032
1128,10909;165,81407
1126,05798;165,83578
1124,00687;166,28708
1121,95577;167,42453
1119,90466;168,58514
1117,85355;170,4324
1115,80245;172,76929
1113,75134;173,41652
1111,70023;173,54033
1109,64912;173,90303
1107,59802;172,05298
1105,54691;169,73933
1103,4958;169,89806
1101,44469;170,3914
1099,39359;170,29887
1097,34248;172,18684
1095,29137;174,59656
1093,24026;173,87991
1091,18916;171,98497
1089,13805;172,1209
1087,08694;172,72304
1085,03583;172,53578
1082,98473;173,21397
1080,93362;174,83846
1078,88251;175,97142
1076,8314;175,04277
1074,7803;172,11621
1072,72919;169,53687
1070,67808;167,8661
1068,62697;166,74635
1066,57587;167,3452
1064,52476;168,96504
1062,47365;169,30069
1060,42254;168,84602
1058,37144;168,37062
1056,32033;167,28821
1054,26922;167,13763
1052,21811;169,23175
1050,16701;171,71034
1048,1159;172,66776
1046,06479;172,65482
1044,01368;171,87117
1041,96258;169,77336
1039,91147;167,4971
1037,86036;165,93134
1035,80926;165,58403
1033,75815;167,80824
1031,70704;172,30609
1029,65593;176,35591
1027,60483;178,20949
1025,55372;177,69035
1023,50261;176,0307
1021,4515;175,07188
1019,4004;173,80208
1017,34929;172,19771
1015,29818;173,10025
1013,24707;176,4221
1011,19597;178,44559
1009,14486;177,19806
1007,09375;175,46391
1005,04264;174,81857
1002,99154;173,69812
1000,94043;172,40691
998,88932;172,38539
996,83821;173,13478
994,78711;173,08173
992,736;172,19075
990,68489;171,25977
988,63378;170,48671
986,58268;169,61923
984,53157;167,86015
982,48046;166,54625
980,42935;167,69325
978,37825;169,06581
976,32714;167,59929
974,27603;165,03821
972,22492;165,2375
970,17382;167,89279
968,12271;167,937
966,0716;164,28914
964,02049;161,86526
961,96939;163,0213
959,91828;165,23485
957,86717;165,95021
955,81607;166,44162
953,76496;167,52704
951,71385;167,64751
949,66274;168,09784
947,61164;170,61473
945,56053;172,25313
943,50942;170,68559
941,45831;169,57756
939,40721;171,37236
937,3561;172,10728
935,30499;170,15134
933,25388;169,42813
931,20278;171,82684
929,15167;174,62384
927,10056;175,22005
925,04945;174,78828
922,99835;175,63177
920,94724;178,06595
918,89613;179,06352
916,84502;177,68008
914,79392;175,67198
912,74281;174,39093
910,6917;175,71065
908,64059;177,49446
906,58949;175,52287
904,53838;171,42752
902,48727;168,64781
900,43616;168,13606
898,38506;169,84396
896,33395;173,43019
894,28284;176,0723
892,23173;173,95795
890,18063;169,30458
888,12952;167,22981
886,07841;171,80466
884,0273;181,84187
881,9762;185,89085
879,92509;178,2697
877,87398;166,63603
875,82288;154,0461
873,77177;139,3741
871,72066;129,14906
869,66955;130,96478
867,61845;144,24403
865,56734;160,31891
863,51623;170,97643
861,46512;175,53256
859,41402;177,91438
857,36291;181,25381
855,3118;183,58694
853,26069;183,87643
851,20959;185,38696
849,15848;190,76529
847,10737;195,26897
845,05626;192,93625
843,00516;188,9077
840,95405;188,88803
838,90294;190,56146
836,85183;192,15297
834,80073;196,74396
832,74962;199,29602
830,69851;194,46425
828,6474;188,27742
826,5963;186,09433
824,54519;188,4684
822,49408;190,86914
820,44297;190,20839
818,39187;188,41003
816,34076;187,34613
814,28965;189,24965
812,23854;194,88644
810,18744;200,66617
808,13633;204,02763
806,08522;205,63872
804,03411;205,29048
801,98301;203,84447
799,9319;203,53201
797,88079;205,9328
795,82969;210,20772
793,77858;211,38229
791,72747;208,75125
789,67636;208,47784
787,62526;208,83702
785,57415;207,9445
783,52304;210,43166
781,47193;212,7934
779,42083;209,55707
777,36972;205,45457
775,31861;208,16417
773,2675;215,63524
771,2164;216,15987
769,16529;209,25566
767,11418;204,46812
765,06307;203,18427
763,01197;201,99231
760,96086;201,00008
758,90975;201,44281
756,85864;204,0647
754,80754;207,52173
752,75643;206,24413
750,70532;200,44934
748,65421;198,94286
746,60311;204,36754
744,552;212,78746
742,50089;215,01942
740,44978;206,91513
738,39868;198,53854
736,34757;195,92313
734,29646;193,03258
732,24535;189,09648
730,19425;190,31325
728,14314;194,45117
726,09203;198,71404
724,04092;205,86122
721,98982;214,91759
719,93871;222,79828
717,8876;226,5407
715,8365;226,71497
713,78539;225,29463
711,73428;220,99268
709,68317;211,81656
707,63207;200,93491
705,58096;195,12117
703,52985;194,43504
701,47874;193,45285
699,42764;194,42366
697,37653;200,69496
695,32542;205,63158
693,27431;206,12823
691,22321;205,29182
689,1721;200,93089
687,12099;192,15805
685,06988;185,03423
683,01878;182,62149
680,96767;181,78723
678,91656;180,53648
676,86545;178,55019
674,81435;175,75237
672,76324;174,24159
670,71213;173,74767
668,66102;174,03735
666,60992;177,17982
664,55881;181,25266
662,5077;184,84058
660,45659;187,04314
658,40549;185,13034
656,35438;179,10193
654,30327;174,12
652,25216;175,11552
650,20106;178,35664
648,14995;176,77477
646,09884;171,75693
644,04773;167,51834
641,99663;163,6562
639,94552;159,36133
637,89441;156,30054
635,84331;156,28104
633,7922;159,80081
631,74109;165,10155
629,68998;169,08638
627,63888;169,1124
625,58777;166,48586
623,53666;166,29962
621,48555;170,2081
619,43445;174,34212
617,38334;173,9827
615,33223;170,481
613,28112;168,1259
611,23002;168,39235
609,17891;167,50989
607,1278;162,04897
605,07669;156,9295
603,02559;159,14291
600,97448;166,90833
598,92337;171,22423
596,87226;169,3073
594,82116;162,14795
592,77005;151,7787
590,71894;147,44649
588,66783;151,27328
586,61673;156,05359
584,56562;159,34227
582,51451;161,55556
580,4634;162,14499
578,4123;161,20161
576,36119;158,68967
574,31008;156,90575
572,25897;153,03035
570,20787;146,79991
568,15676;144,24246
566,10565;142,55119
564,05454;140,44588
562,00344;143,70171
559,95233;149,59268
557,90122;152,30353
555,85012;154,4653
553,79901;159,48264
551,7479;164,68816
549,69679;167,51712
547,64569;169,97684
545,59458;170,53976
543,54347;165,9229
541,49236;161,93327
539,44126;160,50331
537,39015;154,95158
535,33904;147,59242
533,28793;144,59444
531,23683;146,52095
529,18572;151,18784
527,13461;154,98439
525,0835;156,2843
523,0324;158,57286
520,98129;162,50291
518,93018;162,0994
516,87907;158,75598
514,82797;156,0116
512,77686;153,39603
510,72575;153,29977
508,67464;154,24074
506,62354;149,03441
504,57243;140,12209
502,52132;138,93457
500,47021;147,78665
498,41911;153,48244
496,368;148,69238
494,31689;144,56828
492,26578;147,96689
490,21468;152,60857
488,16357;151,03502
486,11246;144,60785
484,06135;138,83757
482,01025;139,59479
479,95914;145,99556
477,90803;149,44051
475,85693;148,79491
473,80582;151,47734
471,75471;152,6075
469,7036;142,75906
467,6525;134,78358
465,60139;137,35779
463,55028;142,71999
461,49917;142,48848
459,44807;137,86082
457,39696;137,224
455,34585;145,3567
453,29474;153,23219
451,24364;148,8268
449,19253;137,98558
447,14142;135,15114
445,09031;135,59724
443,03921;130,28537
440,9881;128,44576
438,93699;131,47198
436,88588;131,07327
434,83478;132,71916
432,78367;136,8345
430,73256;132,24126
428,68145;128,04956
426,63035;134,24626
424,57924;136,46629
422,52813;127,43296
420,47702;123,89008
418,42592;127,76266
416,37481;130,07333
414,3237;129,05362
412,27259;125,23866
410,22149;123,06672
408,17038;122,89188
406,11927;116,40768
404,06816;107,43563
402,01706;107,0826
399,96595;115,86592
