5997,43814;12,56038
5995,38704;12,49634
5993,33593;12,58387
5991,28482;12,70277
5989,23371;12,68103
5987,18261;12,62533
5985,1315;12,64824
5983,08039;12,70009
5981,02928;12,69358
5978,97818;12,65942
5976,92707;12,65862
5974,87596;12,64568
5972,82485;12,5906
5970,77375;12,48072
5968,72264;12,41254
5966,67153;12,48742
5964,62042;12,63997
5962,56932;12,78345
5960,51821;12,88164
5958,4671;12,87408
5956,41599;12,74544
5954,36489;12,62786
5952,31378;12,59691
5950,26267;12,58181
5948,21156;12,5637
5946,16046;12,58577
5944,10935;12,63147
5942,05824;12,70476
5940,00713;12,77038
5937,95603;12,7516
5935,90492;12,73582
5933,85381;12,77201
5931,80271;12,78021
5929,7516;12,76764
5927,70049;12,72284
5925,64938;12,61714
5923,59828;12,58507
5921,54717;12,62732
5919,49606;12,62519
5917,44495;12,65592
5915,39385;12,71809
5913,34274;12,70091
5911,29163;12,65206
5909,24052;12,61793
5907,18942;12,61108
5905,13831;12,63995
5903,0872;12,67616
5901,03609;12,68896
5898,98499;12,66794
5896,93388;12,65605
5894,88277;12,68427
5892,83166;12,72575
5890,78056;12,68572
5888,72945;12,59766
5886,67834;12,61158
5884,62723;12,70867
5882,57613;12,77197
5880,52502;12,73047
5878,47391;12,69186
5876,4228;12,74702
5874,3717;12,76642
5872,32059;12,73351
5870,26948;12,73603
5868,21837;12,70583
5866,16727;12,61625
5864,11616;12,56628
5862,06505;12,54914
5860,01394;12,54125
5857,96284;12,60443
5855,91173;12,70058
5853,86062;12,72873
5851,80952;12,72054
5849,75841;12,73189
5847,7073;12,7115
5845,65619;12,64384
5843,60509;12,61686
5841,55398;12,68988
5839,50287;12,82221
5837,45176;12,86178
5835,40066;12,75903
5833,34955;12,68716
5831,29844;12,7429
5829,24733;12,8666
5827,19623;12,92365
5825,14512;12,87002
5823,09401;12,83524
5821,0429;12,84359
5818,9918;12,85377
5816,94069;12,89347
5814,88958;12,90532
5812,83847;12,85168
5810,78737;12,76892
5808,73626;12,65948
5806,68515;12,62797
5804,63404;12,69811
5802,58294;12,73028
5800,53183;12,70372
5798,48072;12,6812
5796,42961;12,70085
5794,37851;12,73072
5792,3274;12,73193
5790,27629;12,72875
5788,22518;12,73883
5786,17408;12,77642
5784,12297;12,81752
5782,07186;12,81834
5780,02075;12,79683
5777,96965;12,76292
5775,91854;12,68436
5773,86743;12,61099
5771,81633;12,64318
5769,76522;12,7451
5767,71411;12,82032
5765,663;12,92405
5763,6119;13,01639
5761,56079;12,97013
5759,50968;12,88194
5757,45857;12,86157
5755,40747;12,8713
5753,35636;12,87753
5751,30525;12,89488
5749,25414;12,86756
5747,20304;12,79295
5745,15193;12,75988
5743,10082;12,74293
5741,04971;12,7076
5738,99861;12,69399
5736,9475;12,76032
5734,89639;12,86869
5732,84528;12,88047
5730,79418;12,83334
5728,74307;12,86792
5726,69196;12,96462
5724,64085;12,98749
5722,58975;12,88336
5720,53864;12,77576
5718,48753;12,74877
5716,43642;12,80028
5714,38532;12,91205
5712,33421;12,94257
5710,2831;12,8563
5708,23199;12,79745
5706,18089;12,7859
5704,12978;12,81327
5702,07867;12,85169
5700,02756;12,7821
5697,97646;12,64326
5695,92535;12,5932
5693,87424;12,69621
5691,82314;12,85847
5689,77203;12,94501
5687,72092;12,95125
5685,66981;12,89784
5683,61871;12,81729
5681,5676;12,75554
5679,51649;12,72966
5677,46538;12,78181
5675,41428;12,83081
5673,36317;12,79571
5671,31206;12,75226
5669,26095;12,72687
5667,20985;12,73564
5665,15874;12,78528
5663,10763;12,81723
5661,05652;12,81546
5659,00542;12,82454
5656,95431;12,81054
5654,9032;12,76381
5652,85209;12,79342
5650,80099;12,82228
5648,74988;12,76773
5646,69877;12,74041
5644,64766;12,73156
5642,59656;12,71437
5640,54545;12,72759
5638,49434;12,76541
5636,44323;12,82722
5634,39213;12,85932
5632,34102;12,83593
5630,28991;12,82654
5628,2388;12,82652
5626,1877;12,77539
5624,13659;12,68817
5622,08548;12,63444
5620,03437;12,65059
5617,98327;12,69803
5615,93216;12,74315
5613,88105;12,80389
5611,82995;12,81526
5609,77884;12,7463
5607,72773;12,72147
5605,67662;12,75671
5603,62552;12,76225
5601,57441;12,71279
5599,5233;12,65872
5597,47219;12,67414
5595,42109;12,73733
5593,36998;12,75092
5591,31887;12,72359
5589,26776;12,74389
5587,21666;12,7939
5585,16555;12,80503
5583,11444;12,80142
5581,06333;12,79273
5579,01223;12,73892
5576,96112;12,67058
5574,91001;12,64289
5572,8589;12,66474
5570,8078;12,72988
5568,75669;12,80812
5566,70558;12,83607
5564,65447;12,82789
5562,60337;12,84284
5560,55226;12,82875
5558,50115;12,77253
5556,45004;12,76051
5554,39894;12,77355
5552,34783;12,73995
5550,29672;12,72306
5548,24561;12,79079
5546,19451;12,87648
5544,1434;12,90347
5542,09229;12,85039
5540,04118;12,79289
5537,99008;12,83692
5535,93897;12,90052
5533,88786;12,85085
5531,83676;12,76355
5529,78565;12,78454
5527,73454;12,87762
5525,68343;12,90109
5523,63233;12,8709
5521,58122;12,87293
5519,53011;12,88303
5517,479;12,85211
5515,4279;12,80207
5513,37679;12,77671
5511,32568;12,79734
5509,27457;12,866
5507,22347;12,93655
5505,17236;12,93265
5503,12125;12,86064
5501,07014;12,78854
5499,01904;12,78211
5496,96793;12,88243
5494,91682;12,99194
5492,86571;13,04698
5490,81461;13,06077
5488,7635;13,01421
5486,71239;12,96046
5484,66128;12,90379
5482,61018;12,82371
5480,55907;12,78621
5478,50796;12,84699
5476,45685;12,93363
5474,40575;12,95092
5472,35464;12,88188
5470,30353;12,80932
5468,25242;12,82397
5466,20132;12,88057
5464,15021;12,93427
5462,0991;12,97077
5460,04799;12,95975
5457,99689;12,90682
5455,94578;12,83476
5453,89467;12,80203
5451,84357;12,83932
5449,79246;12,91438
5447,74135;12,96321
5445,69024;12,95443
5443,63914;12,89974
5441,58803;12,8088
5439,53692;12,79678
5437,48581;12,84482
5435,43471;12,83968
5433,3836;12,85599
5431,33249;12,93167
5429,28138;13,02524
5427,23028;13,11158
5425,17917;13,1214
5423,12806;13,07498
5421,07695;13,00953
5419,02585;12,92724
5416,97474;12,882
5414,92363;12,90764
5412,87252;13,00789
5410,82142;13,09228
5408,77031;13,09429
5406,7192;13,04257
5404,66809;12,98444
5402,61699;12,96969
5400,56588;12,95702
5398,51477;12,90351
5396,46366;12,86794
5394,41256;12,89569
5392,36145;12,97004
5390,31034;13,02665
5388,25923;13,0329
5386,20813;13,07376
5384,15702;13,18596
5382,10591;13,25477
5380,0548;13,24761
5378,0037;13,20294
5375,95259;13,17909
5373,90148;13,19235
5371,85038;13,1681
5369,79927;13,13204
5367,74816;13,14241
5365,69705;13,16601
5363,64595;13,20588
5361,59484;13,2712
5359,54373;13,31526
5357,49262;13,36889
5355,44152;13,40252
5353,39041;13,37545
5351,3393;13,38534
5349,28819;13,44956
5347,23709;13,5204
5345,18598;13,56942
5343,13487;13,632
5341,08376;13,6286
5339,03266;13,49999
5336,98155;13,42598
5334,93044;13,46629
5332,87933;13,54413
5330,82823;13,61579
5328,77712;13,64439
5326,72601;13,68188
5324,6749;13,71736
5322,6238;13,69449
5320,57269;13,6877
5318,52158;13,72043
5316,47047;13,77007
5314,41937;13,81905
5312,36826;13,82664
5310,31715;13,8012
5308,26604;13,80388
5306,21494;13,88909
5304,16383;13,99576
5302,11272;14,02929
5300,06161;14,01415
5298,01051;14,02403
5295,9594;14,0817
5293,90829;14,15911
5291,85719;14,23107
5289,80608;14,33493
5287,75497;14,43863
5285,70386;14,47936
5283,65276;14,53368
5281,60165;14,60075
5279,55054;14,65721
5277,49943;14,71302
5275,44833;14,75132
5273,39722;14,82898
5271,34611;14,95677
5269,295;15,10932
5267,2439;15,33194
5265,19279;15,51941
5263,14168;15,52651
5261,09057;15,47406
5259,03947;15,53657
5256,98836;15,62405
5254,93725;15,64471
5252,88614;15,72945
5250,83504;15,83093
5248,78393;15,8431
5246,73282;15,8935
5244,68171;16,00288
5242,63061;16,10538
5240,5795;16,18263
5238,52839;16,23569
5236,47728;16,29662
5234,42618;16,36106
5232,37507;16,43759
5230,32396;16,48754
5228,27285;16,46351
5226,22175;16,48222
5224,17064;16,6423
5222,11953;16,78738
5220,06842;16,8026
5218,01732;16,75062
5215,96621;16,71457
5213,9151;16,73895
5211,864;16,86758
5209,81289;17,06046
5207,76178;17,17966
5205,71067;17,22656
5203,65957;17,27681
5201,60846;17,31931
5199,55735;17,33628
5197,50624;17,31124
5195,45514;17,33397
5193,40403;17,41227
5191,35292;17,46049
5189,30181;17,52992
5187,25071;17,62418
5185,1996;17,65114
5183,14849;17,65214
5181,09738;17,68544
5179,04628;17,76504
5176,99517;17,82166
5174,94406;17,77308
5172,89295;17,70391
5170,84185;17,70651
5168,79074;17,80296
5166,73963;17,94411
5164,68852;18,01658
5162,63742;18,01424
5160,58631;18,03517
5158,5352;18,08668
5156,48409;18,08347
5154,43299;18,01654
5152,38188;17,95119
5150,33077;17,96054
5148,27966;18,03123
5146,22856;18,0669
5144,17745;18,06779
5142,12634;18,03109
5140,07523;17,92391
5138,02413;17,83483
5135,97302;17,8443
5133,92191;17,91023
5131,87081;17,94959
5129,8197;17,89098
5127,76859;17,79134
5125,71748;17,78326
5123,66638;17,85149
5121,61527;17,89219
5119,56416;17,90174
5117,51305;17,89573
5115,46195;17,8256
5113,41084;17,74413
5111,35973;17,7409
5109,30862;17,81514
5107,25752;17,89749
5105,20641;17,8863
5103,1553;17,79385
5101,10419;17,7023
5099,05309;17,65434
5097,00198;17,66727
5094,95087;17,69411
5092,89976;17,67935
5090,84866;17,64453
5088,79755;17,66563
5086,74644;17,72559
5084,69533;17,70361
5082,64423;17,63111
5080,59312;17,637
5078,54201;17,693
5076,4909;17,70658
5074,4398;17,66616
5072,38869;17,60567
5070,33758;17,55354
5068,28647;17,46987
5066,23537;17,35232
5064,18426;17,2922
5062,13315;17,31332
5060,08204;17,36884
5058,03094;17,42424
5055,97983;17,45128
5053,92872;17,46034
5051,87762;17,49171
5049,82651;17,49215
5047,7754;17,41362
5045,72429;17,33944
5043,67319;17,30807
5041,62208;17,31339
5039,57097;17,35032
5037,51986;17,33004
5035,46876;17,24244
5033,41765;17,18926
5031,36654;17,17768
5029,31543;17,1736
5027,26433;17,18709
5025,21322;17,19827
5023,16211;17,21703
5021,111;17,27
5019,0599;17,31028
5017,00879;17,30978
5014,95768;17,2418
5012,90657;17,12602
5010,85547;17,06659
5008,80436;17,07254
5006,75325;17,10875
5004,70214;17,15997
5002,65104;17,17267
5000,59993;17,12305
4998,54882;17,05755
4996,49771;16,99527
4994,44661;16,9478
4992,3955;16,97897
4990,34439;17,02184
4988,29328;16,99546
4986,24218;16,94585
4984,19107;16,91516
4982,13996;16,89672
4980,08885;16,87985
4978,03775;16,86133
4975,98664;16,80388
4973,93553;16,7338
4971,88443;16,7244
4969,83332;16,74428
4967,78221;16,7069
4965,7311;16,63549
4963,68;16,60357
4961,62889;16,60898
4959,57778;16,66284
4957,52667;16,71028
4955,47557;16,65092
4953,42446;16,52704
4951,37335;16,44325
4949,32224;16,44319
4947,27114;16,50263
4945,22003;16,58249
4943,16892;16,61538
4941,11781;16,59807
4939,06671;16,61881
4937,0156;16,61796
4934,96449;16,51698
4932,91338;16,41092
4930,86228;16,41939
4928,81117;16,52638
4926,76006;16,55842
4924,70895;16,48817
4922,65785;16,4432
4920,60674;16,41893
4918,55563;16,39067
4916,50452;16,37244
4914,45342;16,33849
4912,40231;16,30344
4910,3512;16,32058
4908,30009;16,37109
4906,24899;16,42888
4904,19788;16,46301
4902,14677;16,42242
4900,09566;16,36827
4898,04456;16,34074
4895,99345;16,31376
4893,94234;16,29676
4891,89124;16,31258
4889,84013;16,3548
4887,78902;16,37591
4885,73791;16,37144
4883,68681;16,35407
4881,6357;16,33233
4879,58459;16,35525
4877,53348;16,41143
4875,48238;16,44628
4873,43127;16,47573
4871,38016;16,48325
4869,32905;16,4289
4867,27795;16,35886
4865,22684;16,30193
4863,17573;16,27922
4861,12462;16,31221
4859,07352;16,34112
4857,02241;16,33375
4854,9713;16,31913
4852,92019;16,33561
4850,86909;16,36115
4848,81798;16,31112
4846,76687;16,2256
4844,71576;16,17922
4842,66466;16,13786
4840,61355;16,08016
4838,56244;16,05017
4836,51133;16,07154
4834,46023;16,09355
4832,40912;16,09232
4830,35801;16,07916
4828,3069;16,06728
4826,2558;16,09157
4824,20469;16,09757
4822,15358;16,01686
4820,10247;15,92714
4818,05137;15,90448
4816,00026;15,92581
4813,94915;15,94841
4811,89805;15,93711
4809,84694;15,88493
4807,79583;15,84482
4805,74472;15,85784
4803,69362;15,87654
4801,64251;15,8336
4799,5914;15,75909
4797,54029;15,74111
4795,48919;15,77766
4793,43808;15,78973
4791,38697;15,74839
4789,33586;15,72651
4787,28476;15,76608
4785,23365;15,78956
4783,18254;15,75506
4781,13143;15,7036
4779,08033;15,66413
4777,02922;15,62096
4774,97811;15,59243
4772,927;15,58967
4770,8759;15,56062
4768,82479;15,53444
4766,77368;15,55355
4764,72257;15,58274
4762,67147;15,59744
4760,62036;15,61191
4758,56925;15,64377
4756,51814;15,66871
4754,46704;15,67484
4752,41593;15,68158
4750,36482;15,67019
4748,31371;15,66717
4746,26261;15,69645
4744,2115;15,67355
4742,16039;15,59492
4740,10928;15,54139
4738,05818;15,54722
4736,00707;15,56909
4733,95596;15,55257
4731,90486;15,55282
4729,85375;15,6023
4727,80264;15,63881
4725,75153;15,64867
4723,70043;15,6684
4721,64932;15,69428
4719,59821;15,72687
4717,5471;15,78191
4715,496;15,8178
4713,44489;15,77283
4711,39378;15,67789
4709,34267;15,65502
4707,29157;15,69492
4705,24046;15,68849
4703,18935;15,65536
4701,13824;15,63763
4699,08714;15,64633
4697,03603;15,6829
4694,98492;15,70103
4692,93381;15,71653
4690,88271;15,75329
4688,8316;15,77464
4686,78049;15,76617
4684,72938;15,73011
4682,67828;15,69431
4680,62717;15,71638
4678,57606;15,79757
4676,52495;15,859
4674,47385;15,86308
4672,42274;15,854
4670,37163;15,86057
4668,32052;15,89023
4666,26942;15,92981
4664,21831;15,9482
4662,1672;15,96213
4660,11609;16,00682
4658,06499;16,05138
4656,01388;16,0455
4653,96277;16,02978
4651,91167;16,03588
4649,86056;16,01641
4647,80945;15,98699
4645,75834;15,99812
4643,70724;16,02089
4641,65613;16,04338
4639,60502;16,08843
4637,55391;16,13725
4635,50281;16,1731
4633,4517;16,17817
4631,40059;16,16362
4629,34948;16,15918
4627,29838;16,13771
4625,24727;16,09575
4623,19616;16,09863
4621,14505;16,15576
4619,09395;16,17955
4617,04284;16,14556
4614,99173;16,1211
4612,94062;16,12489
4610,88952;16,12927
4608,83841;16,15901
4606,7873;16,21687
4604,73619;16,26189
4602,68509;16,29582
4600,63398;16,29506
4598,58287;16,22045
4596,53176;16,13722
4594,48066;16,14416
4592,42955;16,20287
4590,37844;16,23398
4588,32733;16,23928
4586,27623;16,24278
4584,22512;16,24633
4582,17401;16,24734
4580,1229;16,26401
4578,0718;16,27798
4576,02069;16,28484
4573,96958;16,29805
4571,91848;16,28622
4569,86737;16,25054
4567,81626;16,2286
4565,76515;16,22812
4563,71405;16,21838
4561,66294;16,19726
4559,61183;16,19242
4557,56072;16,20199
4555,50962;16,20655
4553,45851;16,17443
4551,4074;16,12966
4549,35629;16,15558
4547,30519;16,22728
4545,25408;16,23999
4543,20297;16,20484
4541,15186;16,22036
4539,10076;16,28592
4537,04965;16,32785
4534,99854;16,33837
4532,94743;16,33724
4530,89633;16,32288
4528,84522;16,30402
4526,79411;16,28303
4524,743;16,24488
4522,6919;16,22493
4520,64079;16,28055
4518,58968;16,38258
4516,53857;16,4282
4514,48747;16,38943
4512,43636;16,34115
4510,38525;16,34415
4508,33414;16,39955
4506,28304;16,42997
4504,23193;16,40023
4502,18082;16,38518
4500,12971;16,40441
4498,07861;16,43074
4496,0275;16,47349
4493,97639;16,49996
4491,92529;16,49196
4489,87418;16,49914
4487,82307;16,52487
4485,77196;16,56051
4483,72086;16,61771
4481,66975;16,67668
4479,61864;16,72243
4477,56753;16,75571
4475,51643;16,769
4473,46532;16,75399
4471,41421;16,73002
4469,3631;16,75179
4467,312;16,83964
4465,26089;16,91685
4463,20978;16,94383
4461,15867;16,99082
4459,10757;17,05951
4457,05646;17,14114
4455,00535;17,28639
4452,95424;17,41125
4450,90314;17,44057
4448,85203;17,46232
4446,80092;17,51326
4444,74981;17,56468
4442,69871;17,61917
4440,6476;17,72202
4438,59649;17,88581
4436,54538;18,00442
4434,49428;18,04936
4432,44317;18,12458
4430,39206;18,24315
4428,34095;18,32882
4426,28985;18,37377
4424,23874;18,44736
4422,18763;18,55632
4420,13652;18,64431
4418,08542;18,67533
4416,03431;18,67407
4413,9832;18,70748
4411,9321;18,78633
4409,88099;18,86241
4407,82988;18,92125
4405,77877;18,96612
4403,72767;18,94306
4401,67656;18,86904
4399,62545;18,84124
4397,57434;18,86224
4395,52324;18,88612
4393,47213;18,91219
4391,42102;18,94013
4389,36991;18,99747
4387,31881;19,10082
4385,2677;19,16268
4383,21659;19,16111
4381,16548;19,14036
4379,11438;19,13114
4377,06327;19,18992
4375,01216;19,2906
4372,96105;19,35773
4370,90995;19,40708
4368,85884;19,46523
4366,80773;19,48501
4364,75662;19,48211
4362,70552;19,5308
4360,65441;19,64672
4358,6033;19,77492
4356,55219;19,82831
4354,50109;19,80107
4352,44998;19,78571
4350,39887;19,85318
4348,34776;19,95407
4346,29666;19,98518
4344,24555;19,94468
4342,19444;19,92177
4340,14333;19,94786
4338,09223;19,97023
4336,04112;19,95001
4333,99001;19,93619
4331,93891;19,99179
4329,8878;20,06604
4327,83669;20,0899
4325,78558;20,08024
4323,73448;20,06063
4321,68337;20,06934
4319,63226;20,14034
4317,58115;20,2227
4315,53005;20,2666
4313,47894;20,26204
4311,42783;20,23011
4309,37672;20,24059
4307,32562;20,32411
4305,27451;20,39292
4303,2234;20,36994
4301,17229;20,33469
4299,12119;20,3507
4297,07008;20,37076
4295,01897;20,39519
4292,96786;20,42753
4290,91676;20,42294
4288,86565;20,45611
4286,81454;20,56703
4284,76343;20,64458
4282,71233;20,66296
4280,66122;20,66828
4278,61011;20,68741
4276,559;20,72767
4274,5079;20,7516
4272,45679;20,75639
4270,40568;20,76213
4268,35457;20,75513
4266,30347;20,76186
4264,25236;20,80586
4262,20125;20,84013
4260,15014;20,79893
4258,09904;20,69132
4256,04793;20,62309
4253,99682;20,60798
4251,94572;20,56297
4249,89461;20,47254
4247,8435;20,35536
4245,79239;20,24537
4243,74129;20,21263
4241,69018;20,2658
4239,63907;20,30547
4237,58796;20,23932
4235,53686;20,11183
4233,48575;20,02918
4231,43464;20,00755
4229,38353;19,98961
4227,33243;19,93552
4225,28132;19,87809
4223,23021;19,84989
4221,1791;19,82677
4219,128;19,80627
4217,07689;19,84348
4215,02578;19,92375
4212,97467;19,93742
4210,92357;19,89526
4208,87246;19,85399
4206,82135;19,807
4204,77024;19,80141
4202,71914;19,84794
4200,66803;19,88638
4198,61692;19,90281
4196,56581;19,92334
4194,51471;19,94747
4192,4636;19,94839
4190,41249;19,89623
4188,36138;19,82999
4186,31028;19,86208
4184,25917;19,95863
4182,20806;19,98765
4180,15695;19,96564
4178,10585;19,98174
4176,05474;20,04562
4174,00363;20,08547
4171,95253;20,06087
4169,90142;20,01724
4167,85031;19,99484
4165,7992;19,99065
4163,7481;19,98698
4161,69699;19,97067
4159,64588;19,97813
4157,59477;20,01549
4155,54367;19,99946
4153,49256;19,9378
4151,44145;19,90921
4149,39034;19,92513
4147,33924;19,97575
4145,28813;20,02438
4143,23702;20,02841
4141,18591;20,01401
4139,13481;19,99626
4137,0837;19,99404
4135,03259;20,0567
4132,98148;20,12836
4130,93038;20,16651
4128,87927;20,2077
4126,82816;20,25787
4124,77705;20,30832
4122,72595;20,34759
4120,67484;20,37447
4118,62373;20,39092
4116,57262;20,42491
4114,52152;20,48185
4112,47041;20,52436
4110,4193;20,52302
4108,36819;20,47076
4106,31709;20,44291
4104,26598;20,51079
4102,21487;20,61758
4100,16376;20,67606
4098,11266;20,71622
4096,06155;20,79198
4094,01044;20,89885
4091,95934;20,99485
4089,90823;21,0394
4087,85712;21,08977
4085,80601;21,18308
4083,75491;21,29214
4081,7038;21,37864
4079,65269;21,39998
4077,60158;21,4318
4075,55048;21,55088
4073,49937;21,69689
4071,44826;21,79343
4069,39715;21,82103
4067,34605;21,82402
4065,29494;21,86037
4063,24383;21,94232
4061,19272;22,05139
4059,14162;22,16236
4057,09051;22,26501
4055,0394;22,36472
4052,98829;22,46986
4050,93719;22,55487
4048,88608;22,61635
4046,83497;22,70172
4044,78386;22,80936
4042,73276;22,90964
4040,68165;22,99106
4038,63054;23,09804
4036,57943;23,25346
4034,52833;23,33882
4032,47722;23,33047
4030,42611;23,3777
4028,375;23,52243
4026,3239;23,66743
4024,27279;23,73383
4022,22168;23,72783
4020,17057;23,73694
4018,11947;23,82779
4016,06836;23,91154
4014,01725;23,91188
4011,96615;23,92881
4009,91504;24,04604
4007,86393;24,20003
4005,81282;24,27968
4003,76172;24,32512
4001,71061;24,40541
3999,6595;24,46104
3997,60839;24,49478
3995,55729;24,56162
3993,50618;24,67764
3991,45507;24,78955
3989,40396;24,87347
3987,35286;24,93111
3985,30175;24,94939
3983,25064;24,95534
3981,19953;25,00135
3979,14843;25,10024
3977,09732;25,22256
3975,04621;25,34546
3972,9951;25,43406
3970,944;25,4813
3968,89289;25,5309
3966,84178;25,58236
3964,79067;25,57368
3962,73957;25,53253
3960,68846;25,58789
3958,63735;25,74126
3956,58624;25,92346
3954,53514;26,12732
3952,48403;26,29152
3950,43292;26,33356
3948,38181;26,33606
3946,33071;26,40912
3944,2796;26,44617
3942,22849;26,40068
3940,17738;26,32965
3938,12628;26,24677
3936,07517;26,18976
3934,02406;26,12075
3931,97296;26,05458
3929,92185;26,01385
3927,87074;25,88553
3925,81963;25,64676
3923,76853;25,48048
3921,71742;25,39808
3919,66631;25,22056
3917,6152;24,97243
3915,5641;24,83747
3913,51299;24,78202
3911,46188;24,69602
3909,41077;24,6601
3907,35967;24,64223
3905,30856;24,54394
3903,25745;24,47301
3901,20634;24,42607
3899,15524;24,3306
3897,10413;24,30723
3895,05302;24,2864
3893,00191;24,17443
3890,95081;24,14989
3888,8997;24,22528
3886,84859;24,14967
3884,79748;24,14976
3882,74638;24,22106
3880,69527;24,13681
3878,64416;24,15814
3876,59305;24,21324
3874,54195;24,23226
3872,49084;24,3066
3870,43973;24,30094
3868,38862;24,38346
3866,33752;24,39914
3864,28641;24,22518
3862,2353;24,11372
3860,18419;24,1439
3858,13309;24,2079
3856,08198;24,0546
3854,03087;23,81307
3851,97977;23,9714
3849,92866;24,14796
3847,87755;24,0081
3845,82644;23,80536
3843,77534;23,79893
3841,72423;23,96869
3839,67312;24,03378
3837,62201;24,00956
3835,57091;24,03707
3833,5198;24,00086
3831,46869;23,93962
3829,41758;23,93928
3827,36648;23,94903
3825,31537;24,03895
3823,26426;24,06249
3821,21315;24,07126
3819,16205;24,28128
3817,11094;24,24441
3815,05983;24,11913
3813,00872;24,17498
3810,95762;24,20214
3808,90651;24,1619
3806,8554;24,26845
3804,80429;24,58025
3802,75319;24,6447
3800,70208;24,64045
3798,65097;24,72034
3796,59986;24,65255
3794,54876;24,64559
3792,49765;24,70333
3790,44654;24,76912
3788,39543;24,87962
3786,34433;24,97999
3784,29322;25,07151
3782,24211;25,1335
3780,191;25,13146
3778,1399;25,23695
3776,08879;25,42016
3774,03768;25,56771
3771,98658;25,64155
3769,93547;25,68937
3767,88436;25,86438
3765,83325;26,10377
3763,78215;26,3565
3761,73104;26,46492
3759,67993;26,51697
3757,62882;26,7462
3755,57772;26,97235
3753,52661;27,00416
3751,4755;27,13936
3749,42439;27,70155
3747,37329;28,12715
3745,32218;28,03463
3743,27107;28,26998
3741,21996;28,85617
3739,16886;29,16303
3737,11775;29,33875
3735,06664;29,68743
3733,01553;30,02674
3730,96443;30,2063
3728,91332;30,38852
3726,86221;30,61333
3724,8111;30,94294
3722,76;31,30223
3720,70889;31,67293
3718,65778;32,06106
3716,60667;32,48943
3714,55557;33,00829
3712,50446;33,68188
3710,45335;34,49829
3708,40224;35,23401
3706,35114;35,91869
3704,30003;36,8443
3702,24892;38,40742
3700,19781;40,78083
3698,14671;43,38641
3696,0956;45,74284
3694,04449;47,72979
3691,99338;49,12015
3689,94228;49,70607
3687,89117;49,63937
3685,84006;49,64639
3683,78896;50,15187
3681,73785;51,36006
3679,68674;53,18886
3677,63563;55,18136
3675,58453;57,55489
3673,53342;60,63506
3671,48231;63,13108
3669,4312;65,93195
3667,3801;69,73677
3665,32899;73,12406
3663,27788;76,4084
3661,22677;80,43601
3659,17567;84,97787
3657,12456;89,89652
3655,07345;95,90341
3653,02234;102,4489
3650,97124;109,9351
3648,92013;120,92944
3646,86902;133,1926
3644,81791;141,45805
3642,76681;145,96432
3640,7157;149,62015
3638,66459;152,92484
3636,61348;156,96318
3634,56238;163,79669
3632,51127;171,87895
3630,46016;177,48808
3628,40905;182,40939
3626,35795;189,62413
3624,30684;198,16978
3622,25573;206,81895
3620,20462;214,49048
3618,15352;224,09933
3616,10241;234,43898
3614,0513;240,5135
3612,00019;244,9003
3609,94909;248,72768
3607,89798;250,64551
3605,84687;252,06427
3603,79577;251,82364
3601,74466;253,7187
3599,69355;264,70847
3597,64244;280,40524
3595,59134;288,5
3593,54023;288,95587
3591,48912;292,82867
3589,43801;301,87006
3587,38691;310,94766
3585,3358;318,68542
3583,28469;325,56195
3581,23358;330,07254
3579,18248;333,89435
3577,13137;339,74249
3575,08026;348,61682
3573,02915;361,85327
3570,97805;375,44272
3568,92694;379,34113
3566,87583;375,98572
3564,82472;380,89767
3562,77362;391,69318
3560,72251;392,07648
3558,6714;382,75793
3556,62029;378,96939
3554,56919;381,46341
3552,51808;379,53058
3550,46697;377,4794
3548,41586;388,05316
3546,36476;410,25977
3544,31365;428,36166
3542,26254;430,38831
3540,21143;426,68835
3538,16033;430,81491
3536,10922;436,86829
3534,05811;435,62772
3532,007;432,90652
3529,9559;437,32434
3527,90479;446,17517
3525,85368;443,1969
3523,80258;427,80676
3521,75147;426,20013
3519,70036;441,45245
3517,64925;446,18826
3515,59815;432,94229
3513,54704;419,69946
3511,49593;416,86295
3509,44482;428,05521
3507,39372;448,67462
3505,34261;459,00516
3503,2915;449,71271
3501,24039;434,44028
3499,18929;429,20306
3497,13818;434,9985
3495,08707;443,2066
3493,03596;449,63242
3490,98486;453,92502
3488,93375;455,22318
3486,88264;459,28354
3484,83153;468,59412
3482,78043;468,28159
3480,72932;456,31302
3478,67821;439,46729
3476,6271;424,19394
3474,576;427,23483
3472,52489;446,29681
3470,47378;455,18707
3468,42267;443,24054
3466,37157;427,17212
3464,32046;416,96994
3462,26935;411,29019
3460,21824;409,25653
3458,16714;412,09641
3456,11603;418,95706
3454,06492;424,36697
3452,01381;427,14612
3449,96271;429,14258
3447,9116;431,39984
3445,86049;433,18277
3443,80939;429,89975
3441,75828;427,24957
3439,70717;431,76279
3437,65606;433,4819
3435,60496;428,7999
3433,55385;423,71704
3431,50274;423,75208
3429,45163;436,99176
3427,40053;453,29422
3425,34942;453,34824
3423,29831;444,90048
3421,2472;442,32166
3419,1961;436,19476
3417,14499;415,97058
3415,09388;398,91074
3413,04277;397,43369
3410,99167;403,28162
3408,94056;408,74161
3406,88945;408,93118
3404,83834;403,01904
3402,78724;406,55325
3400,73613;427,2821
3398,68502;439,08282
3396,63391;425,19016
3394,58281;410,30536
3392,5317;407,29456
3390,48059;401,79163
3388,42948;393,08295
3386,37838;397,13211
3384,32727;409,06876
3382,27616;409,57785
3380,22505;402,25528
3378,17395;396,06891
3376,12284;390,51865
3374,07173;383,98312
3372,02062;378,64847
3369,96952;384,30231
3367,91841;401,69128
3365,8673;418,9538
3363,8162;417,38156
3361,76509;398,84454
3359,71398;387,81213
3357,66287;395,42111
3355,61177;409,67682
3353,56066;409,94415
3351,50955;398,43954
3349,45844;390,75989
3347,40734;392,24335
3345,35623;399,74875
3343,30512;398,84753
3341,25401;383,04495
3339,20291;372,30954
3337,1518;383,70346
3335,10069;403,74664
3333,04958;404,93961
3330,99848;389,17477
3328,94737;373,10535
3326,89626;369,29587
3324,84515;378,05246
3322,79405;379,64938
3320,74294;369,86963
3318,69183;366,98065
3316,64072;372,59225
3314,58962;375,33142
3312,53851;375,17404
3310,4874;378,54599
3308,43629;382,32809
3306,38519;380,85638
3304,33408;375,97253
3302,28297;367,61041
3300,23186;357,13547
3298,18076;351,31403
3296,12965;350,66534
3294,07854;353,71649
3292,02743;359,18054
3289,97633;362,29514
3287,92522;361,3717
3285,87411;359,02036
3283,82301;356,17389
3281,7719;353,99411
3279,72079;348,41425
3277,66968;344,01285
3275,61858;352,2207
3273,56747;364,70959
3271,51636;369,64163
3269,46525;367,18744
3267,41415;358,98407
3265,36304;352,7868
3263,31193;351,05859
3261,26082;345,03821
3259,20972;339,02353
3257,15861;340,85834
3255,1075;341,94601
3253,05639;336,05511
3251,00529;331,55908
3248,95418;334,27664
3246,90307;338,2529
3244,85196;336,80051
3242,80086;332,151
3240,74975;330,15884
3238,69864;326,44931
3236,64753;318,65768
3234,59643;316,87103
3232,54532;322,20737
3230,49421;328,51474
3228,4431;330,38416
3226,392;324,37296
3224,34089;319,53683
3222,28978;322,93857
3220,23867;325,73331
3218,18757;325,13235
3216,13646;329,65842
3214,08535;338,91174
3212,03424;344,4689
3209,98314;340,8421
3207,93203;333,0932
3205,88092;328,86063
3203,82982;327,99442
3201,77871;326,97906
3199,7276;323,65741
3197,67649;318,83112
3195,62539;316,98499
3193,57428;318,00204
3191,52317;316,5209
3189,47206;312,35257
3187,42096;311,47046
3185,36985;314,74231
3183,31874;315,91364
3181,26763;315,54922
3179,21653;319,2005
3177,16542;319,73553
3175,11431;310,26666
3173,0632;304,44205
3171,0121;308,20593
3168,96099;309,01205
3166,90988;302,92044
3164,85877;297,85175
3162,80767;298,18109
3160,75656;301,60983
3158,70545;303,18472
3156,65434;301,17798
3154,60324;300,0675
3152,55213;302,50009
3150,50102;306,44421
3148,44991;307,09738
3146,39881;300,20667
3144,3477;290,70071
3142,29659;285,98068
3140,24548;288,44272
3138,19438;294,73941
3136,14327;298,98923
3134,09216;296,55536
3132,04105;288,41116
3129,98995;284,90125
3127,93884;288,1843
3125,88773;289,0871
3123,83663;285,8909
3121,78552;283,77078
3119,73441;287,08502
3117,6833;295,39032
3115,6322;300,94495
3113,58109;299,98853
3111,52998;297,94305
3109,47887;298,37622
3107,42777;298,93927
3105,37666;297,55933
3103,32555;293,75238
3101,27444;289,5574
3099,22334;286,04004
3097,17223;281,7829
3095,12112;279,32199
3093,07001;281,03497
3091,01891;285,91739
3088,9678;287,98886
3086,91669;280,3428
3084,86558;270,30438
3082,81448;268,27533
3080,76337;271,59338
3078,71226;274,39093
3076,66115;275,7009
3074,61005;274,56079
3072,55894;271,23801
3070,50783;268,76065
3068,45672;270,05634
3066,40562;273,80841
3064,35451;276,4093
3062,3034;276,6987
3060,25229;275,56332
3058,20119;273,41052
3056,15008;271,22775
3054,09897;272,10251
3052,04786;274,12958
3049,99676;273,11517
3047,94565;271,08295
3045,89454;271,51077
3043,84344;271,16537
3041,79233;266,32053
3039,74122;261,82077
3037,69011;261,56577
3035,63901;261,16754
3033,5879;257,93027
3031,53679;254,29581
3029,48568;252,81912
3027,43458;253,83607
3025,38347;255,98628
3023,33236;257,41299
3021,28125;256,23215
3019,23015;253,9192
3017,17904;253,12262
3015,12793;254,45789
3013,07682;256,93057
3011,02572;258,67819
3008,97461;259,76746
3006,9235;258,70203
3004,87239;254,06493
3002,82129;250,16832
3000,77018;250,35097
2998,71907;252,0612
2996,66796;253,18861
2994,61686;255,62419
2992,56575;259,58936
2990,51464;265,03442
2988,46353;269,42767
2986,41243;267,65839
2984,36132;261,04282
2982,31021;255,11403
2980,2591;255,55145
2978,208;263,57483
2976,15689;270,92273
2974,10578;270,73975
2972,05467;264,96991
2970,00357;258,83243
2967,95246;256,43768
2965,90135;256,7941
2963,85025;256,86835
2961,79914;254,48059
2959,74803;249,26685
2957,69692;243,4946
2955,64582;240,33879
2953,59471;242,85013
2951,5436;247,37906
2949,49249;244,49971
2947,44139;235,98372
2945,39028;232,35583
2943,33917;233,73662
2941,28806;236,32057
2939,23696;239,81914
2937,18585;239,36655
2935,13474;234,87842
2933,08363;232,60551
2931,03253;232,42039
2928,98142;231,92862
2926,93031;229,50458
2924,8792;224,23576
2922,8281;220,22733
2920,77699;220,66539
2918,72588;221,26271
2916,67477;218,70488
2914,62367;217,45786
2912,57256;219,29349
2910,52145;219,49611
2908,47034;215,96735
2906,41924;211,19916
2904,36813;209,43221
2902,31702;212,39339
2900,26591;213,54138
2898,21481;209,85344
2896,1637;207,8979
2894,11259;208,79459
2892,06148;208,18713
2890,01038;206,50494
2887,95927;206,66106
2885,90816;208,22812
2883,85706;208,48785
2881,80595;207,18109
2879,75484;206,0479
2877,70373;207,3185
2875,65263;210,00272
2873,60152;209,04366
2871,55041;204,44601
2869,4993;201,16231
2867,4482;199,00636
2865,39709;195,97897
2863,34598;194,35144
2861,29487;193,85072
2859,24377;192,15077
2857,19266;191,41644
2855,14155;192,19955
2853,09044;191,12857
2851,03934;187,82784
2848,98823;184,33656
2846,93712;180,07143
2844,88601;176,231
2842,83491;175,68617
2840,7838;176,43069
2838,73269;174,92403
2836,68158;171,6893
2834,63048;168,95535
2832,57937;168,08417
2830,52826;167,79231
2828,47715;166,09448
2826,42605;163,22127
2824,37494;161,02069
2822,32383;159,33748
2820,27272;157,15359
2818,22162;154,84244
2816,17051;152,71245
2814,1194;152,35431
2812,06829;153,44591
2810,01719;152,50606
2807,96608;149,9697
2805,91497;148,03777
2803,86387;146,82599
2801,81276;146,94196
2799,76165;147,95787
2797,71054;147,65839
2795,65944;146,21953
2793,60833;145,10225
2791,55722;143,58286
2789,50611;141,23901
2787,45501;139,58009
2785,4039;139,39529
2783,35279;139,15753
2781,30168;137,30324
2779,25058;135,30922
2777,19947;134,58295
2775,14836;133,93764
2773,09725;132,92865
2771,04615;131,87711
2768,99504;130,5916
2766,94393;129,76288
2764,89282;129,83205
2762,84172;130,04652
2760,79061;129,399
2758,7395;127,60207
2756,68839;125,6814
2754,63729;124,12913
2752,58618;122,90232
2750,53507;122,46745
2748,48396;122,50504
2746,43286;121,94327
2744,38175;120,45135
2742,33064;118,97276
2740,27953;118,36991
2738,22843;118,53976
2736,17732;118,66858
2734,12621;118,22607
2732,0751;117,40518
2730,024;116,41862
2727,97289;115,3519
2725,92178;114,37087
2723,87068;113,67974
2721,81957;112,97878
2719,76846;112,1127
2717,71735;111,37611
2715,66625;110,54422
2713,61514;109,40874
2711,56403;108,38995
2709,51292;107,62639
2707,46182;107,03532
2705,41071;106,65968
2703,3596;106,24052
2701,30849;105,89188
2699,25739;105,81571
2697,20628;105,52938
2695,15517;104,72678
2693,10406;103,83813
2691,05296;103,15623
2689,00185;102,40394
2686,95074;101,74821
2684,89963;101,77026
2682,84853;102,034
2680,79742;101,97649
2678,74631;101,76261
2676,6952;101,12834
2674,6441;100,15533
2672,59299;99,53354
2670,54188;99,30357
2668,49077;98,71255
2666,43967;97,68807
2664,38856;96,98034
2662,33745;96,63183
2660,28634;96,16949
2658,23524;95,42144
2656,18413;94,94093
2654,13302;95,16139
2652,08191;95,65469
2650,03081;95,95302
2647,9797;95,87962
2645,92859;95,34833
2643,87749;94,50195
2641,82638;93,79196
2639,77527;93,75708
2637,72416;94,42141
2635,67306;95,45947
2633,62195;96,662
2631,57084;97,49548
2629,51973;97,69844
2627,46863;98,00739
2625,41752;98,69012
2623,36641;98,9315
2621,3153;98,69733
2619,2642;98,81858
2617,21309;99,67455
2615,16198;100,87342
2613,11087;101,52486
2611,05977;101,42969
2609,00866;101,25829
2606,95755;101,71015
2604,90644;102,38321
2602,85534;102,49947
2600,80423;102,31371
2598,75312;101,99339
2596,70201;101,72366
2594,65091;101,86541
2592,5998;102,18546
2590,54869;102,21509
2588,49758;102,03809
2586,44648;102,23044
2584,39537;102,54573
2582,34426;102,36356
2580,29315;102,08196
2578,24205;101,99766
2576,19094;102,02412
2574,13983;102,25262
2572,08872;102,48902
2570,03762;102,64876
2567,98651;102,58649
2565,9354;102,15584
2563,8843;101,67504
2561,83319;101,44151
2559,78208;101,50374
2557,73097;101,62341
2555,67987;101,84786
2553,62876;102,16866
2551,57765;102,24908
2549,52654;102,56671
2547,47544;103,26934
2545,42433;103,61918
2543,37322;103,46779
2541,32211;103,48613
2539,27101;104,20439
2537,2199;105,03911
2535,16879;105,41544
2533,11768;106,27312
2531,06658;108,05488
2529,01547;109,68888
2526,96436;110,71335
2524,91325;111,58658
2522,86215;112,78552
2520,81104;114,19382
2518,75993;114,98698
2516,70882;114,98376
2514,65772;115,06631
2512,60661;115,57906
2510,5555;115,80603
2508,50439;115,60819
2506,45329;115,21568
2504,40218;114,74302
2502,35107;114,03526
2500,29996;112,34693
2498,24886;109,98317
2496,19775;108,14437
2494,14664;106,70424
2492,09553;105,18938
2490,04443;104,04214
2487,99332;102,7588
2485,94221;100,96201
2483,89111;99,46104
2481,84;98,19248
2479,78889;96,95954
2477,73778;96,10737
2475,68668;95,16768
2473,63557;93,55363
2471,58446;91,62463
2469,53335;90,06918
2467,48225;89,35928
2465,43114;88,92607
2463,38003;87,82461
2461,32892;86,66418
2459,27782;86,17889
2457,22671;85,85754
2455,1756;85,18478
2453,12449;84,19914
2451,07339;83,29859
2449,02228;82,78262
2446,97117;82,43816
2444,92006;82,1304
2442,86896;82,05362
2440,81785;82,24387
2438,76674;82,22841
2436,71563;81,6455
2434,66453;80,95345
2432,61342;80,59258
2430,56231;80,35629
2428,5112;80,11989
2426,4601;79,94295
2424,40899;79,6614
2422,35788;79,26569
2420,30677;78,78501
2418,25567;78,2997
2416,20456;78,21774
2414,15345;78,33241
2412,10234;78,09052
2410,05124;77,64328
2408,00013;77,10191
2405,94902;76,50943
2403,89792;76,32313
2401,84681;76,54496
2399,7957;76,80345
2397,74459;77,00506
2395,69349;77,0569
2393,64238;76,92881
2391,59127;76,78004
2389,54016;76,58974
2387,48906;76,32417
2385,43795;76,21387
2383,38684;76,41848
2381,33573;76,8982
2379,28463;77,29982
2377,23352;77,3173
2375,18241;77,19598
2373,1313;77,14657
2371,0802;77,38082
2369,02909;78,09253
2366,97798;78,60956
2364,92687;78,59177
2362,87577;78,86726
2360,82466;79,71157
2358,77355;80,29492
2356,72244;80,08599
2354,67134;79,60501
2352,62023;79,53259
2350,56912;79,85611
2348,51801;80,13956
2346,46691;80,16412
2344,4158;79,97118
2342,36469;79,67278
2340,31358;79,41117
2338,26248;79,41478
2336,21137;79,85155
2334,16026;80,51334
2332,10915;81,18076
2330,05805;81,79848
2328,00694;82,01907
2325,95583;81,70851
2323,90473;81,31917
2321,85362;81,30604
2319,80251;81,87873
2317,7514;82,61794
2315,7003;82,79491
2313,64919;82,60496
2311,59808;82,61514
2309,54697;82,70654
2307,49587;82,66608
2305,44476;82,65111
2303,39365;82,70858
2301,34254;82,74598
2299,29144;82,76698
2297,24033;82,70701
2295,18922;82,61587
2293,13811;82,63322
2291,08701;82,68523
2289,0359;82,88648
2286,98479;83,3732
2284,93368;83,71776
2282,88258;83,61503
2280,83147;83,51524
2278,78036;83,74092
2276,72925;84,05885
2274,67815;84,39393
2272,62704;84,89565
2270,57593;85,39037
2268,52482;85,61363
2266,47372;85,76279
2264,42261;86,02942
2262,3715;86,33528
2260,32039;86,78657
2258,26929;87,3397
2256,21818;87,66073
2254,16707;87,93697
2252,11596;88,51941
2250,06486;88,99819
2248,01375;89,08157
2245,96264;89,2021
2243,91154;89,42037
2241,86043;89,77662
2239,80932;90,71813
2237,75821;91,76485
2235,70711;92,2988
2233,656;92,55754
2231,60489;92,91364
2229,55378;93,41074
2227,50268;93,75206
2225,45157;94,10157
2223,40046;94,81351
2221,34935;95,57509
2219,29825;95,99451
2217,24714;96,03283
2215,19603;95,82303
2213,14492;95,96915
2211,09382;96,7576
2209,04271;97,46864
2206,9916;97,79337
2204,94049;98,23889
2202,88939;99,08244
2200,83828;99,89615
2198,78717;100,23018
2196,73606;100,25783
2194,68496;100,36653
2192,63385;100,80309
2190,58274;101,49375
2188,53163;102,1254
2186,48053;102,444
2184,42942;102,65379
2182,37831;102,93573
2180,3272;102,82129
2178,2761;102,42466
2176,22499;102,5162
2174,17388;102,91672
2172,12277;103,20036
2170,07167;103,93572
2168,02056;105,11782
2165,96945;105,74395
2163,91835;105,92429
2161,86724;106,44255
2159,81613;107,12361
2157,76502;107,51466
2155,71392;107,77173
2153,66281;108,35087
2151,6117;109,4522
2149,56059;110,63668
2147,50949;111,46939
2145,45838;111,98362
2143,40727;112,15314
2141,35616;112,33591
2139,30506;112,74844
2137,25395;112,77462
2135,20284;112,24283
2133,15173;111,80725
2131,10063;111,7069
2129,04952;111,6084
2126,99841;111,60696
2124,9473;111,60696
2122,8962;110,9099
2120,84509;109,53843
2118,79398;108,38245
2116,74287;108,1242
2114,69177;108,61452
2112,64066;108,88676
2110,58955;108,22898
2108,53844;107,42117
2106,48734;107,3385
2104,43623;107,38596
2102,38512;106,95258
2100,33401;106,66441
2098,28291;107,06788
2096,2318;107,72752
2094,18069;108,12486
2092,12958;107,94283
2090,07848;107,1374
2088,02737;106,4994
2085,97626;106,52859
2083,92516;106,70135
2081,87405;106,72813
2079,82294;106,84531
2077,77183;106,99203
2075,72073;107,02634
2073,66962;107,26935
2071,61851;107,75343
2069,5674;107,87542
2067,5163;107,51582
2065,46519;107,07491
2063,41408;106,8878
2061,36297;107,20476
2059,31187;107,81425
2057,26076;108,05496
2055,20965;107,80342
2053,15854;107,70024
2051,10744;108,03513
2049,05633;108,38006
2047,00522;108,42966
2044,95411;108,23771
2042,90301;107,8578
2040,8519;107,68967
2038,80079;108,20162
2036,74968;109,00622
2034,69858;109,5246
2032,64747;109,55435
2030,59636;109,17843
2028,54525;108,70731
2026,49415;108,50716
2024,44304;108,88957
2022,39193;109,54959
2020,34082;109,73648
2018,28972;109,48132
2016,23861;109,60652
2014,1875;110,01491
2012,13639;109,97106
2010,08529;109,69429
2008,03418;109,78464
2005,98307;110,26818
2003,93197;110,53413
2001,88086;110,13728
1999,82975;109,32034
1997,77864;108,75964
1995,72754;109,01186
1993,67643;109,71796
1991,62532;110,18276
1989,57421;110,1925
1987,52311;109,99333
1985,472;109,90879
1983,42089;109,86914
1981,36978;109,83949
1979,31868;109,57323
1977,26757;109,31171
1975,21646;109,70664
1973,16535;110,47305
1971,11425;111,46793
1969,06314;112,71514
1967,01203;113,98456
1964,96092;115,45746
1962,90982;116,59956
1960,85871;116,64572
1958,8076;115,61674
1956,75649;114,20062
1954,70539;113,33536
1952,65428;112,99102
1950,60317;112,49847
1948,55206;112,16336
1946,50096;112,85622
1944,44985;114,21673
1942,39874;114,97513
1940,34763;115,14378
1938,29653;115,24393
1936,24542;115,23016
1934,19431;114,60419
1932,1432;113,42039
1930,0921;112,95123
1928,04099;113,83801
1925,98988;115,04957
1923,93878;115,75188
1921,88767;116,31142
1919,83656;116,35617
1917,78545;116,03986
1915,73435;116,35335
1913,68324;116,6697
1911,63213;116,69525
1909,58102;116,92384
1907,52992;117,29192
1905,47881;117,33004
1903,4277;117,6813
1901,37659;118,84132
1899,32549;119,97751
1897,27438;120,41167
1895,22327;120,31149
1893,17216;120,45308
1891,12106;121,06266
1889,06995;121,78751
1887,01884;122,22393
1884,96773;122,43182
1882,91663;122,98711
1880,86552;123,62391
1878,81441;124,08214
1876,7633;124,58448
1874,7122;125,25867
1872,66109;126,21308
1870,60998;126,98329
1868,55887;127,47907
1866,50777;128,24623
1864,45666;129,01302
1862,40555;129,62341
1860,35444;130,6134
1858,30334;132,17165
1856,25223;133,5139
1854,20112;134,15666
1852,15001;134,34593
1850,09891;134,56572
1848,0478;135,84962
1845,99669;138,02348
1843,94559;140,03914
1841,89448;141,98006
1839,84337;143,32864
1837,79226;143,87163
1835,74116;144,17082
1833,69005;144,72603
1831,63894;145,60509
1829,58783;147,24886
1827,53673;149,96416
1825,48562;152,75291
1823,43451;155,30458
1821,3834;157,42226
1819,3323;159,50929
1817,28119;162,21597
1815,23008;165,21674
1813,17897;168,04655
1811,12787;171,61539
1809,07676;177,06206
1807,02565;183,54347
1804,97454;189,45996
1802,92344;193,76219
1800,87233;197,3889
1798,82122;202,40103
1796,77011;208,11919
1794,71901;211,17506
1792,6679;209,72009
1790,61679;207,18002
1788,56568;205,6257
1786,51458;203,39481
1784,46347;200,99158
1782,41236;199,72179
1780,36125;199,72371
1778,31015;200,79875
1776,25904;201,77011
1774,20793;201,655
1772,15682;201,11996
1770,10572;201,40256
1768,05461;202,21169
1766,0035;203,78986
1763,9524;205,03539
1761,90129;206,06227
1759,85018;207,75394
1757,79907;208,73271
1755,74797;211,31973
1753,69686;216,09064
1751,64575;219,22041
1749,59464;221,37024
1747,54354;225,65941
1745,49243;231,65608
1743,44132;236,94566
1741,39021;241,19521
1739,33911;246,76173
1737,288;252,63553
1735,23689;255,62051
1733,18578;260,74359
1731,13468;267,26569
1729,08357;270,14453
1727,03246;272,71744
1724,98135;277,28625
1722,93025;285,38916
1720,87914;297,11554
1718,82803;310,30579
1716,77692;323,92291
1714,72582;333,96341
1712,67471;341,44113
1710,6236;353,21436
1708,57249;372,31311
1706,52139;392,65518
1704,47028;405,17746
1702,41917;412,07144
1700,36806;432,05505
1698,31696;475,80731
1696,26585;521,01501
1694,21474;550,48938
1692,16363;558,54193
1690,11253;560,28821
1688,06142;567,20831
1686,01031;571,59778
1683,95921;571,80072
1681,9081;570,19159
1679,85699;566,47253
1677,80588;566,09106
1675,75478;571,45526
1673,70367;578,70557
1671,65256;573,17334
1669,60145;555,93701
1667,55035;542,5697
1665,49924;532,37659
1663,44813;517,77289
1661,39702;502,68909
1659,34592;495,95612
1657,29481;495,25745
1655,2437;485,63373
1653,19259;468,13412
1651,14149;464,25082
1649,09038;462,06699
1647,03927;450,13312
1644,98816;436,78345
1642,93706;424,51447
1640,88595;414,61023
1638,83484;407,48224
1636,78373;399,60382
1634,73263;395,45245
1632,68152;395,80713
1630,63041;394,44833
1628,5793;397,77283
1626,5282;411,33969
1624,47709;424,14511
1622,42598;430,60089
1620,37487;436,11746
1618,32377;440,23804
1616,27266;446,56848
1614,22155;454,66989
1612,17044;457,95013
1610,11934;463,44107
1608,06823;481,6514
1606,01712;506,84341
1603,96602;521,31909
1601,91491;526,52094
1599,8638;538,36334
1597,81269;555,82501
1595,76159;568,35968
1593,71048;571,992
1591,65937;570,25653
1589,60826;569,65063
1587,55716;573,51251
1585,50605;576,25952
1583,45494;574,70703
1581,40383;586,51544
1579,35273;619,33289
1577,30162;637,26666
1575,25051;615,04797
1573,1994;587,1474
1571,1483;568,09479
1569,09719;552,59375
1567,04608;542,27753
1564,99497;534,034
1562,94387;521,08759
1560,89276;497,03915
1558,84165;469,40591
1556,79054;449,91522
1554,73944;428,23886
1552,68833;406,03851
1550,63722;387,6524
1548,58611;373,2807
1546,53501;362,95898
1544,4839;354,3649
1542,43279;341,0647
1540,38168;323,53363
1538,33058;320,80783
1536,27947;329,78738
1534,22836;333,09955
1532,17725;328,83569
1530,12615;324,68057
1528,07504;327,64194
1526,02393;337,13013
1523,97283;339,41971
1521,92172;328,78775
1519,87061;317,56857
1517,8195;309,60788
1515,7684;305,02689
1513,71729;303,98978
1511,66618;303,17929
1509,61507;302,02359
1507,56397;301,68723
1505,51286;307,36102
1503,46175;313,14728
1501,41064;313,0567
1499,35954;313,14905
1497,30843;316,41412
1495,25732;320,14313
1493,20621;321,75635
1491,15511;321,93619
1489,104;323,02457
1487,05289;321,28113
1485,00178;318,83029
1482,95068;322,23886
1480,89957;332,24652
1478,84846;344,34058
1476,79735;353,44467
1474,74625;360,38657
1472,69514;367,18008
1470,64403;370,65085
1468,59292;367,3793
1466,54182;362,34357
1464,49071;365,00629
1462,4396;373,85504
1460,38849;378,19623
1458,33739;378,72726
1456,28628;384,69223
1454,23517;392,45734
1452,18406;394,74124
1450,13296;395,97052
1448,08185;399,47827
1446,03074;404,38403
1443,97964;409,13275
1441,92853;413,37967
1439,87742;414,45312
1437,82631;410,71936
1435,77521;410,43851
1433,7241;413,30527
1431,67299;409,90903
1429,62188;403,05396
1427,57078;401,42297
1425,51967;402,99942
1423,46856;401,29315
1421,41745;395,19684
1419,36635;386,62921
1417,31524;377,59686
1415,26413;365,36853
1413,21302;349,3735
1411,16192;334,08026
1409,11081;323,71051
1407,0597;315,88962
1405,00859;307,10345
1402,95749;301,29626
1400,90638;299,78955
1398,85527;299,37256
1396,80416;297,98727
1394,75306;294,37466
1392,70195;289,28159
1390,65084;284,35068
1388,59973;282,26877
1386,54863;284,02908
1384,49752;285,66974
1382,44641;285,10086
1380,3953;284,73376
1378,3442;285,63403
1376,29309;286,81668
1374,24198;287,35858
1372,19087;287,33896
1370,13977;286,3772
1368,08866;285,01932
1366,03755;284,1954
1363,98645;284,10266
1361,93534;285,64429
1359,88423;288,34595
1357,83312;290,19934
1355,78202;290,67297
1353,73091;291,85425
1351,6798;295,06039
1349,62869;297,02832
1347,57759;295,36218
1345,52648;293,40033
1343,47537;292,29773
1341,42426;287,14664
1339,37316;279,31815
1337,32205;275,42667
1335,27094;272,80746
1333,21983;268,06702
1331,16873;265,20245
1329,11762;265,80435
1327,06651;266,9975
1325,0154;267,29678
1322,9643;264,39261
1320,91319;257,80365
1318,86208;252,72925
1316,81097;250,60988
1314,75987;248,01462
1312,70876;245,07629
1310,65765;243,33362
1308,60654;241,8844
1306,55544;240,37915
1304,50433;238,64539
1302,45322;235,82352
1300,40211;232,88821
1298,35101;230,7458
1296,2999;228,9325
1294,24879;227,58452
1292,19768;226,89563
1290,14658;226,4342
1288,09547;226,24879
1286,04436;226,12543
1283,99326;225,30042
1281,94215;225,04002
1279,89104;226,21133
1277,83993;226,78357
1275,78883;225,71857
1273,73772;223,32567
1271,68661;220,54214
1269,6355;220,32466
1267,5844;223,46774
1265,53329;226,81049
1263,48218;229,13077
1261,43107;231,09355
1259,37997;230,99037
1257,32886;229,01398
1255,27775;226,73929
1253,22664;225,34753
1251,17554;227,69322
1249,12443;232,84834
1247,07332;235,62547
1245,02221;234,8862
1242,97111;234,52309
1240,92;235,77838
1238,86889;236,08131
1236,81778;234,79788
1234,76668;233,93773
1232,71557;234,12766
1230,66446;233,97739
1228,61335;234,51205
1226,56225;235,27744
1224,51114;233,49013
1222,46003;230,68965
1220,40892;227,83791
1218,35782;224,73599
1216,30671;223,25153
1214,2556;224,22485
1212,20449;225,19128
1210,15339;223,47124
1208,10228;222,64937
1206,05117;225,09952
1204,00006;225,85434
1201,94896;224,25507
1199,89785;225,06213
1197,84674;227,55905
1195,79564;227,3166
1193,74453;225,0482
1191,69342;225,61803
1189,64231;230,42542
1187,59121;235,64778
1185,5401;239,11835
1183,48899;240,41562
1181,43788;239,04953
1179,38678;240,2242
1177,33567;246,19696
1175,28456;249,52193
1173,23345;247,05347
1171,18235;244,91142
1169,13124;246,17123
1167,08013;249,56261
1165,02902;253,44328
1162,97792;257,10712
1160,92681;259,28918
1158,8757;259,06223
1156,82459;258,46985
1154,77349;258,86432
1152,72238;258,60477
1150,67127;257,91449
1148,62016;257,65298
1146,56906;257,83011
1144,51795;260,04541
1142,46684;263,4668
1140,41573;265,37064
1138,36463;266,60492
1136,31352;270,20416
1134,26241;276,03159
1132,2113;280,69949
1130,1602;283,2034
1128,10909;285,73984
1126,05798;287,7005
1124,00687;285,92685
1121,95577;284,05319
1119,90466;286,52075
1117,85355;289,4173
1115,80245;291,27289
1113,75134;296,22406
1111,70023;301,51801
1109,64912;305,39279
1107,59802;310,57776
1105,54691;312,19958
1103,4958;309,26126
1101,44469;307,17133
1099,39359;310,53778
1097,34248;317,6481
1095,29137;321,58945
1093,24026;324,64026
1091,18916;331,95465
1089,13805;337,94272
1087,08694;336,923
1085,03583;333,07675
1082,98473;330,68164
1080,93362;331,92795
1078,88251;333,42944
1076,8314;330,01102
1074,7803;326,4068
1072,72919;327,62265
1070,67808;329,31229
1068,62697;328,13885
1066,57587;328,98804
1064,52476;332,0462
1062,47365;335,14023
1060,42254;340,12943
1058,37144;348,03955
1056,32033;359,54346
1054,26922;370,91373
1052,21811;375,53793
1050,16701;374,03772
1048,1159;371,68549
1046,06479;367,43219
1044,01368;360,59595
1041,96258;355,45581
1039,91147;353,02945
1037,86036;357,06284
1035,80926;370,61374
1033,75815;381,21991
1031,70704;386,34686
1029,65593;389,85217
1027,60483;384,55972
1025,55372;381,4639
1023,50261;386,44009
1021,4515;383,29926
1019,4004;370,81668
1017,34929;362,25412
1015,29818;355,27783
1013,24707;348,01266
1011,19597;349,69617
1009,14486;359,30148
1007,09375;362,9671
1005,04264;357,96649
1002,99154;353,99765
1000,94043;351,20139
998,88932;344,65527
996,83821;340,1304
994,78711;346,10065
992,736;357,73254
990,68489;361,50146
988,63378;361,61496
986,58268;365,55716
984,53157;366,63135
982,48046;366,74954
980,42935;374,27567
978,37825;386,69397
976,32714;393,25916
974,27603;380,91653
972,22492;363,646
970,17382;364,48508
968,12271;371,19553
966,0716;366,2612
964,02049;367,46393
961,96939;378,42218
959,91828;377,37363
957,86717;371,44107
955,81607;375,55942
953,76496;385,87213
951,71385;392,48413
949,66274;394,10443
947,61164;399,84396
945,56053;412,11456
943,50942;413,58698
941,45831;404,0351
939,40721;403,09656
937,3561;406,95209
935,30499;408,42178
933,25388;405,89371
931,20278;397,8905
929,15167;399,10587
927,10056;410,49091
925,04945;411,58652
922,99835;401,3952
920,94724;396,18204
918,89613;402,54568
916,84502;412,13614
914,79392;418,24942
912,74281;418,3396
910,6917;408,74225
908,64059;403,47873
906,58949;406,9057
904,53838;412,57358
902,48727;427,05685
900,43616;432,68054
898,38506;418,42636
896,33395;408,91339
894,28284;403,49902
892,23173;388,77756
890,18063;366,53354
888,12952;346,70703
886,07841;347,59329
884,0273;373,80096
881,9762;409,1207
879,92509;433,30307
877,87398;434,05045
875,82288;417,99216
873,77177;397,3035
871,72066;386,09973
869,66955;395,65921
867,61845;417,01236
865,56734;434,29346
863,51623;442,69434
861,46512;446,91522
859,41402;449,18243
857,36291;442,1239
855,3118;438,72705
853,26069;454,5434
851,20959;463,55093
849,15848;452,39853
847,10737;439,10397
845,05626;438,03622
843,00516;446,70737
840,95405;442,64819
838,90294;443,63065
836,85183;458,31143
834,80073;450,40887
832,74962;425,69092
830,69851;415,71255
828,6474;437,32663
826,5963;459,92673
824,54519;446,92303
822,49408;451,53436
820,44297;488,33926
818,39187;507,21423
816,34076;494,27972
814,28965;475,09781
812,23854;464,5639
810,18744;456,93118
808,13633;455,43832
806,08522;455,9808
804,03411;445,43951
801,98301;431,9549
799,9319;428,43808
797,88079;427,31418
795,82969;427,8006
793,77858;428,7569
791,72747;428,83844
789,67636;430,09149
787,62526;431,09988
785,57415;425,10962
783,52304;414,50977
781,47193;412,99643
779,42083;419,34149
777,36972;412,49908
775,31861;398,93307
773,2675;402,94412
771,2164;414,84177
769,16529;414,33414
767,11418;409,23212
765,06307;413,20209
763,01197;421,55804
760,96086;422,44321
758,90975;428,68402
756,85864;444,54718
754,80754;452,72461
752,75643;449,43542
750,70532;447,22543
748,65421;440,38092
746,60311;416,97852
744,552;387,99182
742,50089;395,14166
740,44978;430,15814
738,39868;427,89929
736,34757;402,95963
734,29646;398,76175
732,24535;407,26782
730,19425;427,0726
728,14314;445,07706
726,09203;437,78876
724,04092;421,7941
721,98982;414,63004
719,93871;406,68698
717,8876;395,59674
715,8365;397,99188
713,78539;414,7662
711,73428;430,22736
709,68317;438,79105
707,63207;437,07028
705,58096;420,08224
703,52985;408,55377
701,47874;420,67572
699,42764;436,68091
697,37653;421,77063
695,32542;395,13022
693,27431;386,52655
691,22321;392,31775
689,1721;406,47665
687,12099;427,43188
685,06988;435,14804
683,01878;413,26874
680,96767;378,33041
678,91656;361,7663
676,86545;368,05499
674,81435;374,41022
672,76324;368,10291
670,71213;357,88446
668,66102;363,33597
666,60992;401,1658
664,55881;448,6041
662,5077;452,88898
660,45659;408,43881
658,40549;363,99399
656,35438;341,42279
654,30327;330,7547
652,25216;328,72314
650,20106;340,29947
648,14995;351,61462
646,09884;340,17972
644,04773;316,08322
641,99663;302,39932
639,94552;303,68411
637,89441;311,52975
635,84331;325,0625
633,7922;350,87839
631,74109;381,70303
629,68998;394,51852
627,63888;385,30923
625,58777;375,85959
623,53666;367,60721
621,48555;366,51233
619,43445;380,79227
617,38334;379,83984
615,33223;358,35733
613,28112;345,53754
611,23002;336,71988
609,17891;332,36517
607,1278;351,97305
605,07669;394,84644
603,02559;427,95386
600,97448;418,80139
598,92337;399,1102
596,87226;395,56006
594,82116;388,91791
592,77005;363,2406
590,71894;342,91617
588,66783;349,34265
586,61673;358,52161
584,56562;351,60812
582,51451;354,39008
580,4634;371,67493
578,4123;369,13919
576,36119;346,00571
574,31008;329,10449
572,25897;327,32404
570,20787;328,61563
568,15676;328,13174
566,10565;353,51724
564,05454;399,13904
562,00344;431,25226
559,95233;445,24594
557,90122;455,08752
555,85012;463,16245
553,79901;442,20969
551,7479;385,21744
549,69679;361,29678
547,64569;396,34122
545,59458;424,51389
543,54347;398,05923
541,49236;366,94403
539,44126;365,33014
537,39015;374,79141
535,33904;379,08139
533,28793;383,12277
531,23683;400,1723
529,18572;405,72354
527,13461;362,78946
525,0835;313,65671
523,0324;317,12628
520,98129;346,09714
518,93018;342,12317
516,87907;316,25415
514,82797;317,42139
512,77686;356,75729
510,72575;395,13446
508,67464;389,49002
506,62354;357,15619
504,57243;330,81851
502,52132;326,44473
500,47021;338,31198
498,41911;332,08047
496,368;296,85526
494,31689;264,5314
492,26578;265,82596
490,21468;288,728
488,16357;292,3446
486,11246;279,6362
484,06135;268,93979
482,01025;259,23575
479,95914;254,76508
477,90803;258,77728
475,85693;259,64835
473,80582;252,63422
471,75471;252,75409
469,7036;252,48312
467,6525;236,51855
465,60139;220,55725
463,55028;218,72659
461,49917;229,76846
459,44807;244,60812
457,39696;238,56892
455,34585;218,73676
453,29474;212,46654
451,24364;212,73254
449,19253;205,96278
447,14142;194,9343
445,09031;193,78989
443,03921;205,18896
440,9881;210,86945
438,93699;196,14807
436,88588;173,78748
434,83478;161,5143
432,78367;158,44344
430,73256;162,70361
428,68145;184,84241
426,63035;223,89201
424,57924;240,96486
422,52813;216,69919
420,47702;195,32851
418,42592;195,72636
416,37481;192,63855
414,3237;176,80417
412,27259;162,15178
410,22149;154,78647
408,17038;150,85909
406,11927;146,55977
404,06816;149,41447
402,01706;172,68867
399,96595;228,99055
