5997,43814;12,54565
5995,38704;12,5676
5993,33593;12,53355
5991,28482;12,45774
5989,23371;12,36739
5987,18261;12,29156
5985,1315;12,27382
5983,08039;12,36296
5981,02928;12,47237
5978,97818;12,46291
5976,92707;12,44489
5974,87596;12,51891
5972,82485;12,55758
5970,77375;12,5068
5968,72264;12,49362
5966,67153;12,53789
5964,62042;12,52595
5962,56932;12,45481
5960,51821;12,41272
5958,4671;12,42146
5956,41599;12,5011
5954,36489;12,65908
5952,31378;12,77686
5950,26267;12,78413
5948,21156;12,70409
5946,16046;12,61937
5944,10935;12,56291
5942,05824;12,48374
5940,00713;12,52493
5937,95603;12,69027
5935,90492;12,73866
5933,85381;12,68675
5931,80271;12,65961
5929,7516;12,65798
5927,70049;12,67441
5925,64938;12,69232
5923,59828;12,68872
5921,54717;12,67388
5919,49606;12,69317
5917,44495;12,75336
5915,39385;12,75863
5913,34274;12,7234
5911,29163;12,76615
5909,24052;12,84499
5907,18942;12,90638
5905,13831;12,97255
5903,0872;13,02444
5901,03609;13,03685
5898,98499;12,94447
5896,93388;12,82396
5894,88277;12,79182
5892,83166;12,73494
5890,78056;12,65514
5888,72945;12,69403
5886,67834;12,8029
5884,62723;12,89945
5882,57613;13,00619
5880,52502;13,04582
5878,47391;13,00866
5876,4228;13,01011
5874,3717;13,02621
5872,32059;13,03419
5870,26948;13,0394
5868,21837;13,06854
5866,16727;13,16374
5864,11616;13,26225
5862,06505;13,3069
5860,01394;13,27432
5857,96284;13,18785
5855,91173;13,12387
5853,86062;13,15414
5851,80952;13,27141
5849,75841;13,36073
5847,7073;13,38419
5845,65619;13,4466
5843,60509;13,45105
5841,55398;13,29458
5839,50287;13,20089
5837,45176;13,24205
5835,40066;13,32486
5833,34955;13,48871
5831,29844;13,63483
5829,24733;13,58879
5827,19623;13,52045
5825,14512;13,63026
5823,09401;13,78807
5821,0429;13,87248
5818,9918;13,88841
5816,94069;13,76652
5814,88958;13,62735
5812,83847;13,6489
5810,78737;13,69261
5808,73626;13,62915
5806,68515;13,49456
5804,63404;13,40961
5802,58294;13,51213
5800,53183;13,63879
5798,48072;13,55972
5796,42961;13,42395
5794,37851;13,44889
5792,3274;13,61471
5790,27629;13,70186
5788,22518;13,61609
5786,17408;13,5577
5784,12297;13,63035
5782,07186;13,71135
5780,02075;13,67502
5777,96965;13,62211
5775,91854;13,6944
5773,86743;13,73629
5771,81633;13,60379
5769,76522;13,44148
5767,71411;13,35675
5765,663;13,29603
5763,6119;13,29583
5761,56079;13,37616
5759,50968;13,40211
5757,45857;13,33041
5755,40747;13,25455
5753,35636;13,21042
5751,30525;13,20299
5749,25414;13,27534
5747,20304;13,35867
5745,15193;13,32106
5743,10082;13,18505
5741,04971;13,08271
5738,99861;13,07021
5736,9475;13,13435
5734,89639;13,21781
5732,84528;13,22978
5730,79418;13,1893
5728,74307;13,19995
5726,69196;13,26568
5724,64085;13,30239
5722,58975;13,2829
5720,53864;13,26725
5718,48753;13,31168
5716,43642;13,3278
5714,38532;13,251
5712,33421;13,22995
5710,2831;13,31375
5708,23199;13,32778
5706,18089;13,20363
5704,12978;13,13893
5702,07867;13,2264
5700,02756;13,31245
5697,97646;13,35695
5695,92535;13,36942
5693,87424;13,30187
5691,82314;13,25968
5689,77203;13,31736
5687,72092;13,37791
5685,66981;13,38562
5683,61871;13,3686
5681,5676;13,34998
5679,51649;13,35247
5677,46538;13,3702
5675,41428;13,34507
5673,36317;13,27932
5671,31206;13,21359
5669,26095;13,14267
5667,20985;13,12022
5665,15874;13,1746
5663,10763;13,21668
5661,05652;13,22375
5659,00542;13,23287
5656,95431;13,25732
5654,9032;13,24567
5652,85209;13,15167
5650,80099;13,05271
5648,74988;13,00484
5646,69877;13,02652
5644,64766;13,06921
5642,59656;13,04218
5640,54545;13,03177
5638,49434;13,0994
5636,44323;13,15369
5634,39213;13,18129
5632,34102;13,21364
5630,28991;13,23323
5628,2388;13,21436
5626,1877;13,13011
5624,13659;13,01432
5622,08548;12,98932
5620,03437;13,10168
5617,98327;13,17856
5615,93216;13,13352
5613,88105;13,07487
5611,82995;13,01446
5609,77884;12,94269
5607,72773;12,90409
5605,67662;12,91264
5603,62552;12,9298
5601,57441;12,96621
5599,5233;13,01034
5597,47219;12,97726
5595,42109;12,9316
5593,36998;12,98152
5591,31887;13,06283
5589,26776;13,08726
5587,21666;13,08697
5585,16555;13,07963
5583,11444;13,04076
5581,06333;12,97748
5579,01223;12,89826
5576,96112;12,87567
5574,91001;12,98207
5572,8589;13,05299
5570,8078;12,949
5568,75669;12,85673
5566,70558;12,87381
5564,65447;12,93101
5562,60337;13,01072
5560,55226;13,04133
5558,50115;13,00474
5556,45004;12,98379
5554,39894;12,99297
5552,34783;13,00296
5550,29672;12,9979
5548,24561;12,97365
5546,19451;12,91958
5544,1434;12,86569
5542,09229;12,91048
5540,04118;13,00587
5537,99008;12,99865
5535,93897;12,94084
5533,88786;12,94802
5531,83676;12,98395
5529,78565;12,97518
5527,73454;12,95818
5525,68343;13,01468
5523,63233;13,06874
5521,58122;13,04011
5519,53011;13,00844
5517,479;12,9956
5515,4279;12,97332
5513,37679;12,97198
5511,32568;12,98221
5509,27457;12,95744
5507,22347;12,94512
5505,17236;12,99371
5503,12125;13,02436
5501,07014;12,9765
5499,01904;12,92546
5496,96793;12,98003
5494,91682;13,05708
5492,86571;13,0192
5490,81461;12,93971
5488,7635;12,96049
5486,71239;13,05674
5484,66128;13,07852
5482,61018;13,00755
5480,55907;12,93191
5478,50796;12,88123
5476,45685;12,85589
5474,40575;12,91026
5472,35464;12,9859
5470,30353;12,99893
5468,25242;13,02589
5466,20132;13,06391
5464,15021;13,04202
5462,0991;12,99731
5460,04799;12,99412
5457,99689;12,99931
5455,94578;12,96843
5453,89467;12,96051
5451,84357;13,00306
5449,79246;13,07549
5447,74135;13,12946
5445,69024;13,0842
5443,63914;12,98936
5441,58803;12,97372
5439,53692;13,05392
5437,48581;13,07637
5435,43471;12,9917
5433,3836;12,9347
5431,33249;12,91542
5429,28138;12,8927
5427,23028;12,9149
5425,17917;12,96352
5423,12806;12,98856
5421,07695;12,99209
5419,02585;13,00765
5416,97474;13,01204
5414,92363;12,98398
5412,87252;13,04778
5410,82142;13,18492
5408,77031;13,22108
5406,7192;13,16068
5404,66809;13,09469
5402,61699;13,06798
5400,56588;13,08825
5398,51477;13,12782
5396,46366;13,14246
5394,41256;13,11037
5392,36145;13,0692
5390,31034;13,05394
5388,25923;13,05307
5386,20813;13,05225
5384,15702;13,05397
5382,10591;13,03807
5380,0548;12,99728
5378,0037;12,99404
5375,95259;13,0775
5373,90148;13,17035
5371,85038;13,19872
5369,79927;13,19178
5367,74816;13,15886
5365,69705;13,07981
5363,64595;13,01449
5361,59484;13,03031
5359,54373;13,08095
5357,49262;13,12286
5355,44152;13,16186
5353,39041;13,20554
5351,3393;13,25657
5349,28819;13,32147
5347,23709;13,37106
5345,18598;13,35676
5343,13487;13,37308
5341,08376;13,42002
5339,03266;13,40667
5336,98155;13,41262
5334,93044;13,44101
5332,87933;13,41883
5330,82823;13,40565
5328,77712;13,42948
5326,72601;13,49451
5324,6749;13,58767
5322,6238;13,60435
5320,57269;13,56274
5318,52158;13,55227
5316,47047;13,57462
5314,41937;13,61161
5312,36826;13,644
5310,31715;13,6258
5308,26604;13,59322
5306,21494;13,64791
5304,16383;13,73829
5302,11272;13,74064
5300,06161;13,67892
5298,01051;13,68781
5295,9594;13,81409
5293,90829;13,95429
5291,85719;14,03301
5289,80608;14,10708
5287,75497;14,17784
5285,70386;14,18182
5283,65276;14,17669
5281,60165;14,20575
5279,55054;14,26031
5277,49943;14,33242
5275,44833;14,40455
5273,39722;14,48642
5271,34611;14,56933
5269,295;14,64082
5267,2439;14,74751
5265,19279;14,85904
5263,14168;14,8843
5261,09057;14,85729
5259,03947;14,87097
5256,98836;14,93403
5254,93725;15,02176
5252,88614;15,11773
5250,83504;15,1563
5248,78393;15,148
5246,73282;15,21455
5244,68171;15,36465
5242,63061;15,52278
5240,5795;15,62627
5238,52839;15,66416
5236,47728;15,69765
5234,42618;15,7544
5232,37507;15,7994
5230,32396;15,84232
5228,27285;15,92691
5226,22175;16,00377
5224,17064;16,03522
5222,11953;16,05386
5220,06842;16,08332
5218,01732;16,11177
5215,96621;16,1308
5213,9151;16,14859
5211,864;16,19906
5209,81289;16,30688
5207,76178;16,4009
5205,71067;16,41139
5203,65957;16,41251
5201,60846;16,47662
5199,55735;16,54677
5197,50624;16,57619
5195,45514;16,61417
5193,40403;16,64217
5191,35292;16,62693
5189,30181;16,61476
5187,25071;16,64845
5185,1996;16,71562
5183,14849;16,80754
5181,09738;16,89952
5179,04628;16,95498
5176,99517;16,99402
5174,94406;17,03941
5172,89295;17,06081
5170,84185;17,05692
5168,79074;17,07032
5166,73963;17,12227
5164,68852;17,19676
5162,63742;17,22439
5160,58631;17,16112
5158,5352;17,10122
5156,48409;17,15825
5154,43299;17,24996
5152,38188;17,25452
5150,33077;17,23753
5148,27966;17,22044
5146,22856;17,16021
5144,17745;17,14205
5142,12634;17,20468
5140,07523;17,25175
5138,02413;17,22483
5135,97302;17,16504
5133,92191;17,12446
5131,87081;17,09904
5129,8197;17,07683
5127,76859;17,10092
5125,71748;17,15378
5123,66638;17,15549
5121,61527;17,07062
5119,56416;16,94582
5117,51305;16,89807
5115,46195;16,97492
5113,41084;17,10581
5111,35973;17,16416
5109,30862;17,11354
5107,25752;17,05563
5105,20641;17,05037
5103,1553;17,05927
5101,10419;17,04257
5099,05309;17,00601
5097,00198;16,95907
5094,95087;16,90443
5092,89976;16,84513
5090,84866;16,81756
5088,79755;16,91198
5086,74644;17,07049
5084,69533;17,09117
5082,64423;16,98995
5080,59312;16,92722
5078,54201;16,93324
5076,4909;16,93654
5074,4398;16,90673
5072,38869;16,89718
5070,33758;16,89791
5068,28647;16,87052
5066,23537;16,84407
5064,18426;16,81212
5062,13315;16,75603
5060,08204;16,7213
5058,03094;16,73416
5055,97983;16,76657
5053,92872;16,82675
5051,87762;16,91424
5049,82651;16,94532
5047,7754;16,88603
5045,72429;16,7987
5043,67319;16,71274
5041,62208;16,66385
5039,57097;16,68867
5037,51986;16,71319
5035,46876;16,68841
5033,41765;16,65
5031,36654;16,59857
5029,31543;16,5518
5027,26433;16,57936
5025,21322;16,63101
5023,16211;16,63789
5021,111;16,66209
5019,0599;16,69775
5017,00879;16,69251
5014,95768;16,62953
5012,90657;16,54525
5010,85547;16,51437
5008,80436;16,51823
5006,75325;16,50818
5004,70214;16,47778
5002,65104;16,46042
5000,59993;16,48721
4998,54882;16,50123
4996,49771;16,4588
4994,44661;16,43392
4992,3955;16,4247
4990,34439;16,36453
4988,29328;16,30014
4986,24218;16,26519
4984,19107;16,23343
4982,13996;16,22616
4980,08885;16,25657
4978,03775;16,28579
4975,98664;16,27052
4973,93553;16,23522
4971,88443;16,23052
4969,83332;16,21397
4967,78221;16,14142
4965,7311;16,05029
4963,68;16,00536
4961,62889;16,0201
4959,57778;16,0158
4957,52667;15,97785
4955,47557;15,97242
4953,42446;15,98252
4951,37335;15,98004
4949,32224;16,00735
4947,27114;16,03727
4945,22003;16,01169
4943,16892;16,00235
4941,11781;16,077
4939,06671;16,12517
4937,0156;16,0509
4934,96449;15,94062
4932,91338;15,88848
4930,86228;15,91825
4928,81117;16,00018
4926,76006;16,0629
4924,70895;16,06752
4922,65785;16,03297
4920,60674;16,00835
4918,55563;15,98775
4916,50452;15,93925
4914,45342;15,90834
4912,40231;15,90545
4910,3512;15,87852
4908,30009;15,85238
4906,24899;15,86044
4904,19788;15,85773
4902,14677;15,85424
4900,09566;15,90141
4898,04456;15,97109
4895,99345;16,03149
4893,94234;16,05064
4891,89124;16,02419
4889,84013;16,01826
4887,78902;16,01856
4885,73791;16,01068
4883,68681;16,02455
4881,6357;16,00942
4879,58459;15,96178
4877,53348;15,95781
4875,48238;15,98706
4873,43127;15,96983
4871,38016;15,9122
4869,32905;15,91835
4867,27795;15,99251
4865,22684;16,03037
4863,17573;16,00491
4861,12462;15,95793
4859,07352;15,92737
4857,02241;15,90278
4854,9713;15,88688
4852,92019;15,91574
4850,86909;15,94483
4848,81798;15,92244
4846,76687;15,87881
4844,71576;15,86612
4842,66466;15,86834
4840,61355;15,85439
4838,56244;15,8158
4836,51133;15,71619
4834,46023;15,62781
4832,40912;15,6382
4830,35801;15,66208
4828,3069;15,63387
4826,2558;15,58954
4824,20469;15,53697
4822,15358;15,52122
4820,10247;15,57757
4818,05137;15,61899
4816,00026;15,61264
4813,94915;15,58997
4811,89805;15,55875
4809,84694;15,53411
4807,79583;15,51393
4805,74472;15,51947
4803,69362;15,57565
4801,64251;15,62063
4799,5914;15,59188
4797,54029;15,54713
4795,48919;15,53662
4793,43808;15,51875
4791,38697;15,48414
4789,33586;15,44149
4787,28476;15,38693
4785,23365;15,3717
4783,18254;15,41414
4781,13143;15,43295
4779,08033;15,39667
4777,02922;15,35744
4774,97811;15,33648
4772,927;15,34065
4770,8759;15,38653
4768,82479;15,44055
4766,77368;15,45049
4764,72257;15,43606
4762,67147;15,41726
4760,62036;15,38216
4758,56925;15,3708
4756,51814;15,37145
4754,46704;15,36264
4752,41593;15,39984
4750,36482;15,4575
4748,31371;15,48057
4746,26261;15,45421
4744,2115;15,38116
4742,16039;15,3387
4740,10928;15,38637
4738,05818;15,46289
4736,00707;15,48919
4733,95596;15,483
4731,90486;15,45822
4729,85375;15,41391
4727,80264;15,41836
4725,75153;15,46688
4723,70043;15,4885
4721,64932;15,50817
4719,59821;15,54353
4717,5471;15,54831
4715,496;15,5612
4713,44489;15,61706
4711,39378;15,63232
4709,34267;15,61841
4707,29157;15,66253
4705,24046;15,72375
4703,18935;15,7442
4701,13824;15,74557
4699,08714;15,74075
4697,03603;15,7063
4694,98492;15,66177
4692,93381;15,6629
4690,88271;15,69642
4688,8316;15,71692
4686,78049;15,73491
4684,72938;15,74841
4682,67828;15,74018
4680,62717;15,7194
4678,57606;15,66643
4676,52495;15,64597
4674,47385;15,71097
4672,42274;15,77316
4670,37163;15,83936
4668,32052;15,9299
4666,26942;15,96251
4664,21831;15,94851
4662,1672;15,96388
4660,11609;15,98008
4658,06499;15,96144
4656,01388;15,97117
4653,96277;16,0052
4651,91167;16,00015
4649,86056;15,95823
4647,80945;15,92306
4645,75834;15,95348
4643,70724;16,03699
4641,65613;16,08291
4639,60502;16,07746
4637,55391;16,03734
4635,50281;15,96923
4633,4517;15,96426
4631,40059;16,02979
4629,34948;16,09668
4627,29838;16,14824
4625,24727;16,14238
4623,19616;16,09125
4621,14505;16,04982
4619,09395;16,02938
4617,04284;16,04796
4614,99173;16,10582
4612,94062;16,15031
4610,88952;16,12083
4608,83841;16,03845
4606,7873;15,97876
4604,73619;15,95897
4602,68509;15,97665
4600,63398;16,02603
4598,58287;16,05657
4596,53176;16,04819
4594,48066;16,02882
4592,42955;16,02963
4590,37844;16,03729
4588,32733;16,02624
4586,27623;16,03765
4584,22512;16,08415
4582,17401;16,11874
4580,1229;16,1374
4578,0718;16,14436
4576,02069;16,12824
4573,96958;16,13085
4571,91848;16,14406
4569,86737;16,13115
4567,81626;16,16163
4565,76515;16,2086
4563,71405;16,16424
4561,66294;16,09245
4559,61183;16,08152
4557,56072;16,13792
4555,50962;16,23206
4553,45851;16,26221
4551,4074;16,20185
4549,35629;16,15924
4547,30519;16,18701
4545,25408;16,23814
4543,20297;16,28497
4541,15186;16,34024
4539,10076;16,37263
4537,04965;16,35276
4534,99854;16,34193
4532,94743;16,38134
4530,89633;16,41198
4528,84522;16,40044
4526,79411;16,36668
4524,743;16,35974
4522,6919;16,42028
4520,64079;16,50106
4518,58968;16,58216
4516,53857;16,65277
4514,48747;16,63435
4512,43636;16,56614
4510,38525;16,55559
4508,33414;16,58006
4506,28304;16,59456
4504,23193;16,61971
4502,18082;16,66677
4500,12971;16,72363
4498,07861;16,76653
4496,0275;16,79984
4493,97639;16,83542
4491,92529;16,84669
4489,87418;16,85969
4487,82307;16,91822
4485,77196;16,97515
4483,72086;16,99583
4481,66975;17,01267
4479,61864;17,06102
4477,56753;17,17047
4475,51643;17,30947
4473,46532;17,39207
4471,41421;17,41789
4469,3631;17,45811
4467,312;17,53666
4465,26089;17,62681
4463,20978;17,70104
4461,15867;17,76053
4459,10757;17,82715
4457,05646;17,91986
4455,00535;18,05387
4452,95424;18,21118
4450,90314;18,33637
4448,85203;18,45329
4446,80092;18,61706
4444,74981;18,77642
4442,69871;18,90469
4440,6476;19,05406
4438,59649;19,20034
4436,54538;19,26389
4434,49428;19,31204
4432,44317;19,44623
4430,39206;19,58244
4428,34095;19,6622
4426,28985;19,74827
4424,23874;19,84023
4422,18763;19,89923
4420,13652;19,95896
4418,08542;20,05784
4416,03431;20,18066
4413,9832;20,30647
4411,9321;20,37624
4409,88099;20,38207
4407,82988;20,44111
4405,77877;20,57317
4403,72767;20,69896
4401,67656;20,80863
4399,62545;20,88398
4397,57434;20,88542
4395,52324;20,85637
4393,47213;20,89287
4391,42102;21,01182
4389,36991;21,14466
4387,31881;21,25004
4385,2677;21,34323
4383,21659;21,48055
4381,16548;21,67044
4379,11438;21,80453
4377,06327;21,82972
4375,01216;21,87834
4372,96105;22,06557
4370,90995;22,34269
4368,85884;22,53582
4366,80773;22,53994
4364,75662;22,54787
4362,70552;22,72536
4360,65441;22,92311
4358,6033;23,04048
4356,55219;23,18273
4354,50109;23,40491
4352,44998;23,64997
4350,39887;23,8276
4348,34776;23,94294
4346,29666;24,12415
4344,24555;24,39597
4342,19444;24,65756
4340,14333;24,9444
4338,09223;25,29645
4336,04112;25,56724
4333,99001;25,69312
4331,93891;25,72389
4329,8878;25,64983
4327,83669;25,50087
4325,78558;25,32528
4323,73448;25,05923
4321,68337;24,72687
4319,63226;24,46878
4317,58115;24,27727
4315,53005;24,03369
4313,47894;23,74186
4311,42783;23,53941
4309,37672;23,44953
4307,32562;23,42881
4305,27451;23,45728
4303,2234;23,48281
4301,17229;23,4857
4299,12119;23,4736
4297,07008;23,48453
4295,01897;23,48254
4292,96786;23,41595
4290,91676;23,41017
4288,86565;23,54853
4286,81454;23,74653
4284,76343;23,90028
4282,71233;23,98959
4280,66122;24,04011
4278,61011;24,04046
4276,559;24,08656
4274,5079;24,2942
4272,45679;24,56023
4270,40568;24,76249
4268,35457;24,91435
4266,30347;25,0968
4264,25236;25,35243
4262,20125;25,60929
4260,15014;25,7108
4258,09904;25,63573
4256,04793;25,56249
4253,99682;25,44031
4251,94572;25,10733
4249,89461;24,67869
4247,8435;24,30436
4245,79239;24,06438
4243,74129;23,96002
4241,69018;23,80739
4239,63907;23,56027
4237,58796;23,42283
4235,53686;23,39135
4233,48575;23,31992
4231,43464;23,24721
4229,38353;23,22932
4227,33243;23,24583
4225,28132;23,24294
4223,23021;23,15201
4221,1791;23,03796
4219,128;23,05096
4217,07689;23,1588
4215,02578;23,20806
4212,97467;23,20471
4210,92357;23,24684
4208,87246;23,33503
4206,82135;23,34874
4204,77024;23,25839
4202,71914;23,19145
4200,66803;23,17047
4198,61692;23,16656
4196,56581;23,27586
4194,51471;23,49325
4192,4636;23,63075
4190,41249;23,66868
4188,36138;23,69133
4186,31028;23,67278
4184,25917;23,62959
4182,20806;23,62428
4180,15695;23,64589
4178,10585;23,66874
4176,05474;23,73625
4174,00363;23,82364
4171,95253;23,82607
4169,90142;23,75711
4167,85031;23,70512
4165,7992;23,68416
4163,7481;23,68201
4161,69699;23,6916
4159,64588;23,69044
4157,59477;23,68034
4155,54367;23,64667
4153,49256;23,59022
4151,44145;23,55059
4149,39034;23,50551
4147,33924;23,43575
4145,28813;23,40589
4143,23702;23,41819
4141,18591;23,44101
4139,13481;23,49137
4137,0837;23,52674
4135,03259;23,51607
4132,98148;23,45526
4130,93038;23,36195
4128,87927;23,3231
4126,82816;23,35825
4124,77705;23,39729
4122,72595;23,40843
4120,67484;23,45024
4118,62373;23,50542
4116,57262;23,48724
4114,52152;23,47459
4112,47041;23,52533
4110,4193;23,55484
4108,36819;23,56115
4106,31709;23,56627
4104,26598;23,57749
4102,21487;23,65553
4100,16376;23,74189
4098,11266;23,72264
4096,06155;23,67984
4094,01044;23,75022
4091,95934;23,87264
4089,90823;23,89064
4087,85712;23,84446
4085,80601;23,88321
4083,75491;23,97601
4081,7038;24,03281
4079,65269;24,06397
4077,60158;24,11915
4075,55048;24,20645
4073,49937;24,2783
4071,44826;24,36109
4069,39715;24,49586
4067,34605;24,62084
4065,29494;24,66881
4063,24383;24,65428
4061,19272;24,6851
4059,14162;24,87511
4057,09051;25,1315
4055,0394;25,26505
4052,98829;25,29441
4050,93719;25,334
4048,88608;25,40682
4046,83497;25,44325
4044,78386;25,45067
4042,73276;25,55158
4040,68165;25,71647
4038,63054;25,80078
4036,57943;25,8326
4034,52833;25,90921
4032,47722;25,96999
4030,42611;25,98586
4028,375;26,05767
4026,3239;26,18898
4024,27279;26,2584
4022,22168;26,27979
4020,17057;26,3341
4018,11947;26,37032
4016,06836;26,37397
4014,01725;26,41113
4011,96615;26,51828
4009,91504;26,61726
4007,86393;26,63841
4005,81282;26,65459
4003,76172;26,71577
4001,71061;26,7988
3999,6595;26,84024
3997,60839;26,83446
3995,55729;26,87454
3993,50618;27,01294
3991,45507;27,14834
3989,40396;27,22616
3987,35286;27,31318
3985,30175;27,3894
3983,25064;27,40559
3981,19953;27,41544
3979,14843;27,44192
3977,09732;27,46353
3975,04621;27,5331
3972,9951;27,69974
3970,944;27,89136
3968,89289;27,96661
3966,84178;27,91268
3964,79067;27,84125
3962,73957;27,85037
3960,68846;27,96796
3958,63735;28,08051
3956,58624;28,11397
3954,53514;28,16999
3952,48403;28,31261
3950,43292;28,45154
3948,38181;28,52882
3946,33071;28,59624
3944,2796;28,6155
3942,22849;28,56845
3940,17738;28,49358
3938,12628;28,38883
3936,07517;28,29287
3934,02406;28,17984
3931,97296;28,02776
3929,92185;27,91124
3927,87074;27,81532
3925,81963;27,62831
3923,76853;27,3763
3921,71742;27,08479
3919,66631;26,73875
3917,6152;26,43118
3915,5641;26,23873
3913,51299;26,11758
3911,46188;26,02188
3909,41077;25,99367
3907,35967;26,01919
3905,30856;26,03318
3903,25745;25,99109
3901,20634;25,80687
3899,15524;25,57447
3897,10413;25,51978
3895,05302;25,56888
3893,00191;25,53756
3890,95081;25,45994
3888,8997;25,42254
3886,84859;25,37628
3884,79748;25,43966
3882,74638;25,49947
3880,69527;25,39087
3878,64416;25,39019
3876,59305;25,44896
3874,54195;25,43563
3872,49084;25,44017
3870,43973;25,41822
3868,38862;25,46803
3866,33752;25,4654
3864,28641;25,30474
3862,2353;25,1642
3860,18419;25,1132
3858,13309;25,08756
3856,08198;24,89012
3854,03087;24,57332
3851,97977;24,55433
3849,92866;24,67468
3847,87755;24,63322
3845,82644;24,54837
3843,77534;24,61513
3841,72423;24,78037
3839,67312;24,7914
3837,62201;24,68444
3835,57091;24,63571
3833,5198;24,58024
3831,46869;24,54661
3829,41758;24,60693
3827,36648;24,66145
3825,31537;24,71238
3823,26426;24,68272
3821,21315;24,61662
3819,16205;24,71321
3817,11094;24,7219
3815,05983;24,69654
3813,00872;24,75701
3810,95762;24,74812
3808,90651;24,70275
3806,8554;24,79654
3804,80429;24,97626
3802,75319;24,95769
3800,70208;24,968
3798,65097;25,04997
3796,59986;25,00148
3794,54876;25,02699
3792,49765;25,11395
3790,44654;25,1584
3788,39543;25,20041
3786,34433;25,26228
3784,29322;25,36787
3782,24211;25,47841
3780,191;25,52281
3778,1399;25,59442
3776,08879;25,70403
3774,03768;25,78503
3771,98658;25,81591
3769,93547;25,84203
3767,88436;25,91413
3765,83325;25,98518
3763,78215;26,16246
3761,73104;26,37229
3759,67993;26,50656
3757,62882;26,69059
3755,57772;26,90026
3753,52661;26,94321
3751,4755;26,96419
3749,42439;27,32627
3747,37329;27,67914
3745,32218;27,65721
3743,27107;27,86675
3741,21996;28,39065
3739,16886;28,73717
3737,11775;28,92213
3735,06664;29,14889
3733,01553;29,47766
3730,96443;29,93127
3728,91332;30,32636
3726,86221;30,457
3724,8111;30,55587
3722,76;30,83176
3720,70889;31,21005
3718,65778;31,57332
3716,60667;31,98116
3714,55557;32,37262
3712,50446;32,66968
3710,45335;33,18456
3708,40224;34,05741
3706,35114;34,99068
3704,30003;35,9725
3702,24892;37,61645
3700,19781;40,40603
3698,14671;43,80539
3696,0956;47,07827
3694,04449;49,59786
3691,99338;50,55965
3689,94228;49,93406
3687,89117;48,99788
3685,84006;48,66599
3683,78896;48,73891
3681,73785;49,19248
3679,68674;50,03165
3677,63563;51,09464
3675,58453;52,95488
3673,53342;56,07129
3671,48231;59,12627
3669,4312;61,8785
3667,3801;64,51289
3665,32899;66,72118
3663,27788;69,16689
3661,22677;72,22375
3659,17567;75,4549
3657,12456;79,27314
3655,07345;84,60816
3653,02234;89,88848
3650,97124;94,80874
3648,92013;103,87045
3646,86902;117,9345
3644,81791;129,61615
3642,76681;134,10234
3640,7157;133,10152
3638,66459;130,19998
3636,61348;128,57677
3634,56238;129,29305
3632,51127;130,98714
3630,46016;132,4391
3628,40905;134,92181
3626,35795;139,02811
3624,30684;143,12585
3622,25573;146,73723
3620,20462;149,89578
3618,15352;153,14731
3616,10241;156,33675
3614,0513;158,51938
3612,00019;160,72505
3609,94909;163,04279
3607,89798;163,82788
3605,84687;163,674
3603,79577;164,23627
3601,74466;166,62315
3599,69355;171,04733
3597,64244;175,51411
3595,59134;177,29196
3593,54023;176,28398
3591,48912;174,81622
3589,43801;175,64279
3587,38691;180,04411
3585,3358;185,02623
3583,28469;186,93375
3581,23358;186,83064
3579,18248;187,69101
3577,13137;189,59845
3575,08026;189,49669
3573,02915;187,80807
3570,97805;188,66565
3568,92694;192,7234
3566,87583;196,26852
3564,82472;196,19772
3562,77362;194,21643
3560,72251;193,2431
3558,6714;194,48547
3556,62029;198,18095
3554,56919;202,37091
3552,51808;203,72032
3550,46697;201,79607
3548,41586;198,01546
3546,36476;194,15669
3544,31365;193,31769
3542,26254;197,22899
3540,21143;203,08772
3538,16033;205,99478
3536,10922;204,73839
3534,05811;202,58699
3532,007;202,26823
3529,9559;203,35429
3527,90479;204,03938
3525,85368;203,63057
3523,80258;203,3495
3521,75147;204,24022
3519,70036;205,58827
3517,64925;206,06587
3515,59815;204,85928
3513,54704;203,79822
3511,49593;204,18436
3509,44482;204,46434
3507,39372;203,63342
3505,34261;202,35753
3503,2915;202,48627
3501,24039;203,80128
3499,18929;203,10341
3497,13818;200,05022
3495,08707;198,87184
3493,03596;201,91611
3490,98486;205,35765
3488,93375;204,46123
3486,88264;201,00078
3484,83153;200,44951
3482,78043;203,52824
3480,72932;205,66505
3478,67821;204,75465
3476,6271;204,12277
3474,576;203,90053
3472,52489;200,61484
3470,47378;197,33107
3468,42267;197,99504
3466,37157;199,5136
3464,32046;199,36502
3462,26935;199,04095
3460,21824;199,71062
3458,16714;200,6806
3456,11603;201,10457
3454,06492;201,88071
3452,01381;203,23296
3449,96271;203,17439
3447,9116;201,3221
3445,86049;199,97227
3443,80939;199,46696
3441,75828;199,8338
3439,70717;201,25806
3437,65606;200,77917
3435,60496;197,9662
3433,55385;196,10962
3431,50274;196,49454
3429,45163;197,2655
3427,40053;196,28934
3425,34942;195,83131
3423,29831;197,57974
3421,2472;197,23253
3419,1961;194,68806
3417,14499;194,78545
3415,09388;197,2049
3413,04277;198,55289
3410,99167;196,95091
3408,94056;193,94652
3406,88945;192,86075
3404,83834;194,14062
3402,78724;196,89917
3400,73613;200,15654
3398,68502;198,60912
3396,63391;192,38669
3394,58281;189,74861
3392,5317;193,09329
3390,48059;196,33868
3388,42948;195,78029
3386,37838;195,1707
3384,32727;197,14091
3382,27616;200,13206
3380,22505;199,79703
3378,17395;195,80162
3376,12284;194,90347
3374,07173;196,2975
3372,02062;194,50287
3369,96952;192,46854
3367,91841;193,91187
3365,8673;195,97874
3363,8162;194,94626
3361,76509;192,79779
3359,71398;192,69748
3357,66287;193,70135
3355,61177;194,83633
3353,56066;196,92079
3351,50955;198,73793
3349,45844;198,92014
3347,40734;198,26938
3345,35623;196,99261
3343,30512;195,25182
3341,25401;192,92702
3339,20291;190,73151
3337,1518;190,91556
3335,10069;192,32388
3333,04958;193,83987
3330,99848;195,75511
3328,94737;194,94391
3326,89626;191,65387
3324,84515;190,74919
3322,79405;192,99271
3320,74294;195,62759
3318,69183;195,8735
3316,64072;193,88937
3314,58962;192,74431
3312,53851;192,29161
3310,4874;191,13814
3308,43629;189,89339
3306,38519;188,2484
3304,33408;186,07018
3302,28297;185,53932
3300,23186;187,51172
3298,18076;189,88109
3296,12965;192,01289
3294,07854;191,64079
3292,02743;186,00243
3289,97633;180,75467
3287,92522;179,95113
3285,87411;180,73648
3283,82301;181,54207
3281,7719;181,79274
3279,72079;180,50941
3277,66968;179,79611
3275,61858;180,60262
3273,56747;181,36653
3271,51636;181,72757
3269,46525;181,36852
3267,41415;180,57921
3265,36304;181,4503
3263,31193;183,11296
3261,26082;182,23106
3259,20972;178,7614
3257,15861;176,09352
3255,1075;175,31763
3253,05639;173,6656
3251,00529;171,35414
3248,95418;171,67126
3246,90307;173,34837
3244,85196;174,04893
3242,80086;173,52171
3240,74975;170,65091
3238,69864;168,94395
3236,64753;171,34892
3234,59643;174,14955
3232,54532;175,19006
3230,49421;175,22282
3228,4431;174,06598
3226,392;172,43706
3224,34089;172,01369
3222,28978;172,73087
3220,23867;172,92337
3218,18757;172,90111
3216,13646;174,81195
3214,08535;177,62317
3212,03424;177,61481
3209,98314;174,95183
3207,93203;173,49895
3205,88092;173,9288
3203,82982;173,49622
3201,77871;172,27969
3199,7276;173,04047
3197,67649;176,38228
3195,62539;178,97598
3193,57428;177,36928
3191,52317;173,31721
3189,47206;170,80066
3187,42096;171,18002
3185,36985;173,17497
3183,31874;175,40123
3181,26763;177,19487
3179,21653;177,33047
3177,16542;175,43449
3175,11431;172,52286
3173,0632;169,8858
3171,0121;168,93646
3168,96099;169,50983
3166,90988;170,9558
3164,85877;173,0071
3162,80767;174,06772
3160,75656;172,71655
3158,70545;170,43738
3156,65434;170,50317
3154,60324;171,97118
3152,55213;171,50417
3150,50102;169,56732
3148,44991;167,73038
3146,39881;167,60051
3144,3477;170,00403
3142,29659;171,96237
3140,24548;171,68121
3138,19438;171,93518
3136,14327;173,18716
3134,09216;172,54451
3132,04105;170,50208
3129,98995;170,12061
3127,93884;170,98476
3125,88773;170,43674
3123,83663;168,54463
3121,78552;167,74138
3119,73441;168,2384
3117,6833;168,21289
3115,6322;168,07378
3113,58109;169,28162
3111,52998;171,14888
3109,47887;172,08607
3107,42777;171,59048
3105,37666;169,68121
3103,32555;167,90529
3101,27444;167,87488
3099,22334;168,5273
3097,17223;168,53581
3095,12112;168,67334
3093,07001;169,38841
3091,01891;168,51617
3088,9678;166,65652
3086,91669;167,88971
3084,86558;171,23885
3082,81448;171,93553
3080,76337;169,93346
3078,71226;168,69844
3076,66115;169,22894
3074,61005;169,55705
3072,55894;169,38275
3070,50783;170,25259
3068,45672;170,59491
3066,40562;168,98726
3064,35451;168,39
3062,3034;169,55086
3060,25229;169,67361
3058,20119;168,71494
3056,15008;168,84407
3054,09897;170,26712
3052,04786;170,5531
3049,99676;169,30582
3047,94565;168,62927
3045,89454;168,22198
3043,84344;167,63943
3041,79233;167,39169
3039,74122;167,16542
3037,69011;167,09596
3035,63901;167,55174
3033,5879;168,30681
3031,53679;168,38849
3029,48568;167,90976
3027,43458;167,98174
3025,38347;168,38852
3023,33236;168,58391
3021,28125;168,47137
3019,23015;168,27646
3017,17904;169,06615
3015,12793;171,08366
3013,07682;172,19284
3011,02572;171,38109
3008,97461;171,29271
3006,9235;173,20326
3004,87239;174,79454
3002,82129;174,8701
3000,77018;174,79672
2998,71907;175,67064
2996,66796;177,35405
2994,61686;177,39404
2992,56575;175,12738
2990,51464;174,73004
2988,46353;177,7502
2986,41243;180,42566
2984,36132;180,17422
2982,31021;179,64447
2980,2591;182,31801
2978,208;186,76952
2976,15689;188,00037
2974,10578;185,99319
2972,05467;186,1615
2970,00357;190,19012
2967,95246;192,22618
2965,90135;190,05876
2963,85025;189,85434
2961,79914;192,81013
2959,74803;194,67949
2957,69692;193,01112
2955,64582;189,94475
2953,59471;188,12227
2951,5436;187,86769
2949,49249;190,06108
2947,44139;193,32211
2945,39028;194,30513
2943,33917;192,32629
2941,28806;190,35603
2939,23696;191,44191
2937,18585;193,91241
2935,13474;194,6447
2933,08363;192,50076
2931,03253;186,03026
2928,98142;177,98134
2926,93031;172,21005
2924,8792;167,85272
2922,8281;164,60655
2920,77699;162,26888
2918,72588;159,89032
2916,67477;157,60277
2914,62367;156,10187
2912,57256;156,8322
2910,52145;158,7881
2908,47034;160,03629
2906,41924;161,16884
2904,36813;161,74803
2902,31702;161,61122
2900,26591;162,13094
2898,21481;162,87819
2896,1637;161,28094
2894,11259;157,79166
2892,06148;156,25217
2890,01038;157,33934
2887,95927;158,85962
2885,90816;159,25989
2883,85706;158,60474
2881,80595;158,68182
2879,75484;160,08347
2877,70373;161,34789
2875,65263;161,4985
2873,60152;162,01164
2871,55041;163,71124
2869,4993;164,83099
2867,4482;165,25865
2865,39709;166,22101
2863,34598;167,45378
2861,29487;168,23039
2859,24377;168,028
2857,19266;165,9003
2855,14155;161,99187
2853,09044;158,48621
2851,03934;156,89854
2848,98823;155,94547
2846,93712;154,43356
2844,88601;152,92265
2842,83491;151,51669
2840,7838;149,58406
2838,73269;146,91621
2836,68158;144,88907
2834,63048;143,88409
2832,57937;142,38771
2830,52826;140,70525
2828,47715;140,27299
2826,42605;140,04001
2824,37494;138,29257
2822,32383;135,91051
2820,27272;134,29166
2818,22162;133,75964
2816,17051;133,42863
2814,1194;131,91461
2812,06829;129,98412
2810,01719;129,14917
2807,96608;128,58728
2805,91497;127,68961
2803,86387;127,33708
2801,81276;127,42278
2799,76165;127,15636
2797,71054;125,71887
2795,65944;123,51805
2793,60833;122,73992
2791,55722;123,62321
2789,50611;123,58088
2787,45501;122,20005
2785,4039;121,24865
2783,35279;120,57048
2781,30168;119,40743
2779,25058;118,03482
2777,19947;117,13918
2775,14836;117,10532
2773,09725;117,29555
2771,04615;116,9933
2768,99504;116,59657
2766,94393;116,487
2764,89282;116,19476
2762,84172;115,41788
2760,79061;114,8106
2758,7395;114,79586
2756,68839;114,4788
2754,63729;113,62304
2752,58618;113,32621
2750,53507;113,61116
2748,48396;113,26254
2746,43286;112,12328
2744,38175;111,12235
2742,33064;110,59466
2740,27953;110,43161
2738,22843;110,16077
2736,17732;109,42174
2734,12621;108,72614
2732,0751;108,37176
2730,024;108,15571
2727,97289;107,90518
2725,92178;107,80954
2723,87068;107,83272
2721,81957;107,18426
2719,76846;105,78387
2717,71735;104,79849
2715,66625;104,89252
2713,61514;105,18814
2711,56403;104,74878
2709,51292;103,86747
2707,46182;103,27515
2705,41071;103,12707
2703,3596;103,13303
2701,30849;102,95889
2699,25739;102,54825
2697,20628;102,25048
2695,15517;102,17464
2693,10406;101,93777
2691,05296;101,34123
2689,00185;100,76186
2686,95074;100,26404
2684,89963;99,97617
2682,84853;100,24926
2680,79742;100,47394
2678,74631;100,11539
2676,6952;99,69785
2674,6441;99,50251
2672,59299;99,08689
2670,54188;98,85429
2668,49077;98,96415
2666,43967;98,22742
2664,38856;96,77076
2662,33745;96,07251
2660,28634;96,42592
2658,23524;96,76941
2656,18413;96,63266
2654,13302;96,33584
2652,08191;96,11031
2650,03081;96,10335
2647,9797;95,98715
2645,92859;95,66489
2643,87749;95,93221
2641,82638;96,81361
2639,77527;96,99323
2637,72416;96,61172
2635,67306;97,0662
2633,62195;98,17213
2631,57084;99,14058
2629,51973;99,77338
2627,46863;99,95779
2625,41752;99,89098
2623,36641;100,06938
2621,3153;100,58292
2619,2642;101,09977
2617,21309;101,44703
2615,16198;101,5779
2613,11087;101,45519
2611,05977;101,39798
2609,00866;101,95812
2606,95755;103,0088
2604,90644;104,27134
2602,85534;105,67184
2600,80423;106,42513
2598,75312;106,06796
2596,70201;105,68687
2594,65091;106,04951
2592,5998;106,36761
2590,54869;106,28725
2588,49758;106,26562
2586,44648;106,46453
2584,39537;106,53234
2582,34426;106,00788
2580,29315;105,66304
2578,24205;105,85851
2576,19094;105,85218
2574,13983;105,82592
2572,08872;106,21186
2570,03762;106,76585
2567,98651;106,9323
2565,9354;106,49052
2563,8843;106,03886
2561,83319;106,07098
2559,78208;106,39629
2557,73097;106,5314
2555,67987;106,38789
2553,62876;106,57732
2551,57765;107,11003
2549,52654;107,48071
2547,47544;107,85481
2545,42433;108,0697
2543,37322;108,29076
2541,32211;108,99421
2539,27101;109,71746
2537,2199;110,76205
2535,16879;112,4403
2533,11768;114,01608
2531,06658;115,64272
2529,01547;117,89349
2526,96436;120,02793
2524,91325;121,09292
2522,86215;121,85734
2520,81104;123,08533
2518,75993;123,929
2516,70882;124,39187
2514,65772;125,50106
2512,60661;126,27572
2510,5555;125,23675
2508,50439;123,73579
2506,45329;123,24606
2504,40218;122,10097
2502,35107;119,52517
2500,29996;117,59141
2498,24886;116,18485
2496,19775;113,70402
2494,14664;110,77952
2492,09553;108,64376
2490,04443;107,23422
2487,99332;105,82301
2485,94221;103,80733
2483,89111;101,55746
2481,84;100,1642
2479,78889;99,35345
2477,73778;97,81586
2475,68668;95,54447
2473,63557;93,62301
2471,58446;92,41753
2469,53335;91,42179
2467,48225;90,47016
2465,43114;89,23852
2463,38003;87,53583
2461,32892;86,35983
2459,27782;85,8258
2457,22671;85,06354
2455,1756;84,08125
2453,12449;83,18803
2451,07339;82,52274
2449,02228;81,999
2446,97117;81,35936
2444,92006;80,7105
2442,86896;80,30653
2440,81785;80,05363
2438,76674;79,47935
2436,71563;78,62855
2434,66453;78,17182
2432,61342;78,13889
2430,56231;77,92773
2428,5112;77,52863
2426,4601;77,2811
2424,40899;76,92757
2422,35788;76,38526
2420,30677;75,99202
2418,25567;75,6374
2416,20456;75,23398
2414,15345;75,00537
2412,10234;74,85825
2410,05124;74,6673
2408,00013;74,66482
2405,94902;74,87465
2403,89792;74,99424
2401,84681;75,06036
2399,7957;75,13857
2397,74459;75,16293
2395,69349;75,15601
2393,64238;75,08942
2391,59127;74,94785
2389,54016;74,76123
2387,48906;74,52825
2385,43795;74,45267
2383,38684;74,71053
2381,33573;74,98502
2379,28463;74,93246
2377,23352;74,79036
2375,18241;74,82887
2373,1313;74,92307
2371,0802;75,10846
2369,02909;75,88411
2366,97798;77,37953
2364,92687;78,25244
2362,87577;77,33976
2360,82466;75,99194
2358,77355;75,60966
2356,72244;75,70806
2354,67134;75,8987
2352,62023;76,32636
2350,56912;76,70597
2348,51801;76,71294
2346,46691;76,44852
2344,4158;76,40314
2342,36469;76,75744
2340,31358;77,08543
2338,26248;77,24959
2336,21137;77,31399
2334,16026;76,94789
2332,10915;76,36206
2330,05805;76,4749
2328,00694;77,26562
2325,95583;77,78018
2323,90473;77,68214
2321,85362;77,34778
2319,80251;77,15604
2317,7514;77,17178
2315,7003;77,17302
2313,64919;77,20164
2311,59808;77,51518
2309,54697;77,8751
2307,49587;77,92603
2305,44476;77,81041
2303,39365;77,7134
2301,34254;77,63908
2299,29144;77,49737
2297,24033;77,16406
2295,18922;76,81229
2293,13811;76,78075
2291,08701;77,04748
2289,0359;77,34083
2286,98479;77,52597
2284,93368;77,60337
2282,88258;77,6376
2280,83147;77,73655
2278,78036;77,969
2276,72925;78,2103
2274,67815;78,32385
2272,62704;78,46549
2270,57593;78,65083
2268,52482;78,74982
2266,47372;78,80204
2264,42261;78,86423
2262,3715;79,15323
2260,32039;79,73299
2258,26929;80,07912
2256,21818;79,85168
2254,16707;79,63642
2252,11596;79,9269
2250,06486;80,36324
2248,01375;80,66066
2245,96264;80,9452
2243,91154;81,29688
2241,86043;81,61018
2239,80932;81,65411
2237,75821;81,73795
2235,70711;82,21842
2233,656;82,63879
2231,60489;82,84813
2229,55378;83,16136
2227,50268;83,40449
2225,45157;83,52127
2223,40046;83,86176
2221,34935;84,45645
2219,29825;84,80744
2217,24714;84,55219
2215,19603;84,19452
2213,14492;84,44285
2211,09382;85,16789
2209,04271;85,74614
2206,9916;86,04391
2204,94049;86,19789
2202,88939;86,08229
2200,83828;85,9949
2198,78717;86,27937
2196,73606;86,64608
2194,68496;86,99776
2192,63385;87,27538
2190,58274;87,24899
2188,53163;87,19118
2186,48053;87,34484
2184,42942;87,48161
2182,37831;87,62748
2180,3272;87,95425
2178,2761;88,22609
2176,22499;88,3191
2174,17388;88,44886
2172,12277;88,79993
2170,07167;89,36747
2168,02056;89,92661
2165,96945;90,40142
2163,91835;91,02075
2161,86724;91,61894
2159,81613;91,97781
2157,76502;92,44129
2155,71392;93,09418
2153,66281;93,76405
2151,6117;94,52474
2149,56059;95,35763
2147,50949;95,92754
2145,45838;95,97321
2143,40727;95,88969
2141,35616;96,03915
2139,30506;96,17898
2137,25395;96,24467
2135,20284;96,2451
2133,15173;96,0239
2131,10063;95,66825
2129,04952;95,15662
2126,99841;94,43079
2124,9473;93,77866
2122,8962;93,26152
2120,84509;92,74818
2118,79398;92,45437
2116,74287;92,17989
2114,69177;91,62726
2112,64066;91,27695
2110,58955;91,1983
2108,53844;91,12614
2106,48734;91,20681
2104,43623;91,406
2102,38512;91,57951
2100,33401;91,7748
2098,28291;92,05981
2096,2318;92,33641
2094,18069;92,22596
2092,12958;91,61307
2090,07848;91,27752
2088,02737;91,71995
2085,97626;92,24097
2083,92516;92,32897
2081,87405;92,18938
2079,82294;91,99818
2077,77183;92,0731
2075,72073;92,48078
2073,66962;92,45167
2071,61851;91,83385
2069,5674;91,62072
2067,5163;92,14257
2065,46519;92,59465
2063,41408;92,43878
2061,36297;92,0564
2059,31187;92,01115
2057,26076;92,65463
2055,20965;93,86093
2053,15854;94,65321
2051,10744;94,52832
2049,05633;94,28398
2047,00522;94,21693
2044,95411;93,87197
2042,90301;93,4553
2040,8519;93,57214
2038,80079;94,0852
2036,74968;94,33467
2034,69858;94,31317
2032,64747;94,47906
2030,59636;95,01222
2028,54525;95,56998
2026,49415;95,75513
2024,44304;95,72774
2022,39193;95,59487
2020,34082;95,47192
2018,28972;95,50609
2016,23861;95,26696
2014,1875;94,73159
2012,13639;94,58809
2010,08529;94,85302
2008,03418;95,17702
2005,98307;95,67398
2003,93197;96,06501
2001,88086;95,8002
1999,82975;95,26025
1997,77864;95,1116
1995,72754;95,25833
1993,67643;95,42075
1991,62532;95,7953
1989,57421;96,33226
1987,52311;96,41975
1985,472;96,24441
1983,42089;96,55472
1981,36978;97,17168
1979,31868;97,6387
1977,26757;98,06878
1975,21646;98,2456
1973,16535;98,1204
1971,11425;98,24632
1969,06314;98,56472
1967,01203;98,93806
1964,96092;99,60974
1962,90982;100,2081
1960,85871;100,451
1958,8076;100,52947
1956,75649;100,33806
1954,70539;99,6092
1952,65428;98,83337
1950,60317;98,80782
1948,55206;99,42957
1946,50096;100,00809
1944,44985;100,20276
1942,39874;100,38651
1940,34763;100,84843
1938,29653;101,05058
1936,24542;100,86493
1934,19431;100,56467
1932,1432;100,35023
1930,0921;100,49586
1928,04099;100,98109
1925,98988;101,48688
1923,93878;101,83391
1921,88767;102,24058
1919,83656;102,51861
1917,78545;102,45592
1915,73435;102,49355
1913,68324;102,80691
1911,63213;103,21755
1909,58102;103,37682
1907,52992;103,45202
1905,47881;103,67834
1903,4277;103,83129
1901,37659;103,90106
1899,32549;104,11781
1897,27438;104,44668
1895,22327;104,78558
1893,17216;105,262
1891,12106;105,84405
1889,06995;106,43556
1887,01884;106,7663
1884,96773;106,84593
1882,91663;107,18584
1880,86552;107,59705
1878,81441;107,82348
1876,7633;108,06319
1874,7122;108,4621
1872,66109;109,36277
1870,60998;110,80995
1868,55887;112,21549
1866,50777;112,80023
1864,45666;112,49056
1862,40555;112,14072
1860,35444;112,41523
1858,30334;113,38587
1856,25223;114,43905
1854,20112;114,90673
1852,15001;115,23689
1850,09891;115,95885
1848,0478;116,83386
1845,99669;117,70577
1843,94559;118,87346
1841,89448;120,19254
1839,84337;120,83073
1837,79226;121,08102
1835,74116;122,00102
1833,69005;123,73322
1831,63894;125,67056
1829,58783;128,0032
1827,53673;130,56416
1825,48562;132,01877
1823,43451;132,2814
1821,3834;132,29784
1819,3323;133,11049
1817,28119;135,02725
1815,23008;137,59851
1813,17897;140,47151
1811,12787;143,59039
1809,07676;146,92654
1807,02565;150,29492
1804,97454;154,04494
1802,92344;158,81598
1800,87233;164,77716
1798,82122;171,14729
1796,77011;175,86908
1794,71901;177,43077
1792,6679;176,73004
1790,61679;175,81387
1788,56568;174,66096
1786,51458;172,49939
1784,46347;170,25746
1782,41236;169,01355
1780,36125;168,87152
1778,31015;170,00011
1776,25904;172,62141
1774,20793;176,00603
1772,15682;179,22688
1770,10572;181,82869
1768,05461;183,62582
1766,0035;187,14474
1763,9524;194,70212
1761,90129;206,64032
1759,85018;219,50598
1757,79907;227,99562
1755,74797;232,98079
1753,69686;236,7767
1751,64575;238,47908
1749,59464;236,32835
1747,54354;229,79195
1745,49243;220,82274
1743,44132;211,29431
1741,39021;202,75343
1739,33911;196,93646
1737,288;193,81033
1735,23689;191,01064
1733,18578;189,25737
1731,13468;188,71585
1729,08357;187,29378
1727,03246;185,79294
1724,98135;185,93341
1722,93025;188,99893
1720,87914;193,15388
1718,82803;194,95758
1716,77692;195,47623
1714,72582;197,15358
1712,67471;199,34103
1710,6236;200,30212
1708,57249;199,96071
1706,52139;201,31194
1704,47028;206,67606
1702,41917;212,1375
1700,36806;214,705
1698,31696;216,46602
1696,26585;217,06137
1694,21474;218,52213
1692,16363;220,80833
1690,11253;222,55679
1688,06142;224,95871
1686,01031;226,97659
1683,95921;226,37955
1681,9081;223,72543
1679,85699;221,50375
1677,80588;220,98572
1675,75478;221,55554
1673,70367;222,66602
1671,65256;221,08685
1669,60145;216,09396
1667,55035;212,21404
1665,49924;209,49142
1663,44813;205,96855
1661,39702;202,49841
1659,34592;199,06622
1657,29481;195,22972
1655,2437;189,84621
1653,19259;182,96335
1651,14149;179,39166
1649,09038;178,14984
1647,03927;177,0174
1644,98816;176,15721
1642,93706;173,76207
1640,88595;169,96867
1638,83484;166,13657
1636,78373;162,20175
1634,73263;159,63518
1632,68152;158,94966
1630,63041;157,58894
1628,5793;155,18059
1626,5282;153,4297
1624,47709;152,60626
1622,42598;151,62134
1620,37487;149,74637
1618,32377;147,46188
1616,27266;147,438
1614,22155;150,18134
1612,17044;152,71793
1610,11934;154,33299
1608,06823;155,79808
1606,01712;157,23929
1603,96602;158,46413
1601,91491;159,59407
1599,8638;160,74907
1597,81269;162,28799
1595,76159;164,92851
1593,71048;168,53889
1591,65937;171,72792
1589,60826;172,9281
1587,55716;172,11517
1585,50605;170,91287
1583,45494;170,67358
1581,40383;171,65643
1579,35273;173,11023
1577,30162;173,89435
1575,25051;174,74554
1573,1994;175,61757
1571,1483;174,55821
1569,09719;172,32054
1567,04608;170,22781
1564,99497;168,51431
1562,94387;168,37561
1560,89276;169,30182
1558,84165;169,28223
1556,79054;166,18336
1554,73944;161,59781
1552,68833;159,19958
1550,63722;158,58257
1548,58611;157,59793
1546,53501;155,36136
1544,4839;152,57094
1542,43279;150,51039
1540,38168;148,90295
1538,33058;147,52193
1536,27947;145,55699
1534,22836;143,25697
1532,17725;142,84251
1530,12615;143,17067
1528,07504;142,15482
1526,02393;141,57353
1523,97283;142,69278
1521,92172;143,18503
1519,87061;142,05225
1517,8195;140,75249
1515,7684;140,81117
1513,71729;141,80458
1511,66618;141,74103
1509,61507;139,70076
1507,56397;137,42076
1505,51286;138,36139
1503,46175;140,61143
1501,41064;141,27206
1499,35954;140,52188
1497,30843;139,92535
1495,25732;141,36943
1493,20621;143,77945
1491,15511;144,86034
1489,104;145,58348
1487,05289;147,50182
1485,00178;149,58473
1482,95068;150,5583
1480,89957;150,99117
1478,84846;151,95679
1476,79735;153,37474
1474,74625;155,364
1472,69514;158,85228
1470,64403;163,17967
1468,59292;165,05438
1466,54182;163,3643
1464,49071;160,54707
1462,4396;159,56499
1460,38849;159,95963
1458,33739;159,61903
1456,28628;158,2511
1454,23517;156,9689
1452,18406;156,272
1450,13296;156,47293
1448,08185;156,91357
1446,03074;156,87802
1443,97964;156,35895
1441,92853;155,87456
1439,87742;155,38206
1437,82631;154,52818
1435,77521;154,7057
1433,7241;155,57794
1431,67299;155,27063
1429,62188;154,65881
1427,57078;155,05449
1425,51967;156,27042
1423,46856;157,36407
1421,41745;156,63722
1419,36635;153,96378
1417,31524;152,01297
1415,26413;151,62828
1413,21302;151,97116
1411,16192;152,81889
1409,11081;153,74185
1407,0597;153,51868
1405,00859;151,93314
1402,95749;150,49083
1400,90638;149,78848
1398,85527;149,50522
1396,80416;149,49591
1394,75306;149,61108
1392,70195;149,82147
1390,65084;149,51527
1388,59973;148,36787
1386,54863;147,10042
1384,49752;146,75758
1382,44641;147,55934
1380,3953;148,78293
1378,3442;149,69745
1376,29309;150,14778
1374,24198;150,43137
1372,19087;150,68701
1370,13977;150,1698
1368,08866;149,31128
1366,03755;149,05597
1363,98645;148,83177
1361,93534;148,37462
1359,88423;148,43015
1357,83312;149,01718
1355,78202;149,65071
1353,73091;150,07091
1351,6798;150,16536
1349,62869;150,05293
1347,57759;150,05884
1345,52648;150,53751
1343,47537;151,34924
1341,42426;151,63023
1339,37316;151,39214
1337,32205;151,86143
1335,27094;153,05373
1333,21983;153,49525
1331,16873;152,33218
1329,11762;150,80016
1327,06651;150,42369
1325,0154;150,73723
1322,9643;150,94118
1320,91319;151,40924
1318,86208;152,14708
1316,81097;152,19687
1314,75987;151,57884
1312,70876;151,24283
1310,65765;150,94034
1308,60654;150,18315
1306,55544;149,52446
1304,50433;149,2133
1302,45322;149,38484
1300,40211;150,52905
1298,35101;152,09363
1296,2999;153,10674
1294,24879;153,32568
1292,19768;152,76944
1290,14658;151,93967
1288,09547;151,7554
1286,04436;152,53889
1283,99326;153,4747
1281,94215;153,69325
1279,89104;153,39049
1277,83993;153,44942
1275,78883;153,57504
1273,73772;153,59161
1271,68661;154,78018
1269,6355;156,41573
1267,5844;157,22594
1265,53329;157,58412
1263,48218;157,30788
1261,43107;157,23129
1259,37997;158,19948
1257,32886;158,96388
1255,27775;158,71953
1253,22664;158,33571
1251,17554;158,56487
1249,12443;158,50345
1247,07332;157,63591
1245,02221;156,44316
1242,97111;154,63458
1240,92;152,96617
1238,86889;152,77431
1236,81778;153,16406
1234,76668;152,80377
1232,71557;151,6637
1230,66446;150,35445
1228,61335;149,05132
1226,56225;147,5526
1224,51114;146,28001
1222,46003;145,1203
1220,40892;144,13112
1218,35782;143,96071
1216,30671;144,54778
1214,2556;145,58138
1212,20449;146,55583
1210,15339;147,36209
1208,10228;148,29579
1206,05117;149,15565
1204,00006;149,68974
1201,94896;149,64209
1199,89785;148,75867
1197,84674;148,10027
1195,79564;148,81879
1193,74453;150,06992
1191,69342;150,55164
1189,64231;150,34924
1187,59121;150,74863
1185,5401;152,19238
1183,48899;154,06573
1181,43788;155,6311
1179,38678;155,69121
1177,33567;153,72289
1175,28456;152,06839
1173,23345;152,76781
1171,18235;154,72015
1169,13124;155,86876
1167,08013;155,05589
1165,02902;153,22502
1162,97792;151,71825
1160,92681;150,92296
1158,8757;150,37773
1156,82459;148,6532
1154,77349;146,80212
1152,72238;146,54933
1150,67127;146,6886
1148,62016;146,06137
1146,56906;145,18927
1144,51795;144,56012
1142,46684;143,97649
1140,41573;143,17331
1138,36463;142,7915
1136,31352;143,90414
1134,26241;145,58833
1132,2113;146,74995
1130,1602;148,26682
1128,10909;150,01953
1126,05798;151,16254
1124,00687;152,29544
1121,95577;154,07166
1119,90466;155,03436
1117,85355;154,19444
1115,80245;152,97337
1113,75134;152,54552
1111,70023;152,489
1109,64912;151,53796
1107,59802;150,20975
1105,54691;150,02145
1103,4958;150,68893
1101,44469;150,56827
1099,39359;149,06134
1097,34248;146,88341
1095,29137;145,44807
1093,24026;144,77412
1091,18916;143,38443
1089,13805;141,67845
1087,08694;140,32478
1085,03583;139,25757
1082,98473;138,55243
1080,93362;138,05939
1078,88251;137,76744
1076,8314;137,70082
1074,7803;137,58397
1072,72919;137,58325
1070,67808;138,16948
1068,62697;138,43378
1066,57587;136,89578
1064,52476;134,57851
1062,47365;133,71448
1060,42254;133,63885
1058,37144;133,04845
1056,32033;133,21336
1054,26922;134,25795
1052,21811;134,07304
1050,16701;133,12886
1048,1159;133,603
1046,06479;134,43178
1044,01368;133,88872
1041,96258;133,50336
1039,91147;133,82292
1037,86036;133,51793
1035,80926;133,62045
1033,75815;134,59447
1031,70704;134,85587
1029,65593;134,34947
1027,60483;134,3555
1025,55372;135,37306
1023,50261;136,95941
1021,4515;138,02213
1019,4004;138,0719
1017,34929;138,26274
1015,29818;137,991
1013,24707;136,64882
1011,19597;135,97148
1009,14486;136,23323
1007,09375;136,60039
1005,04264;136,59773
1002,99154;136,4146
1000,94043;136,31421
998,88932;136,1174
996,83821;137,02965
994,78711;138,75517
992,736;138,86987
990,68489;138,3403
988,63378;139,50964
986,58268;141,935
984,53157;143,40829
982,48046;142,91702
980,42935;141,59175
978,37825;140,47455
976,32714;139,90518
974,27603;139,84126
972,22492;139,8781
970,17382;139,46301
968,12271;138,10608
966,0716;135,89651
964,02049;133,76031
961,96939;133,11507
959,91828;133,81061
957,86717;133,93617
955,81607;133,06783
953,76496;132,07283
951,71385;131,8842
949,66274;133,1046
947,61164;134,87616
945,56053;136,12561
943,50942;136,36949
941,45831;136,19839
939,40721;136,18126
937,3561;135,79921
935,30499;136,06255
933,25388;137,91524
931,20278;139,1283
929,15167;138,02661
927,10056;136,83682
925,04945;137,82762
922,99835;139,95781
920,94724;140,35666
918,89613;138,65733
916,84502;137,27908
914,79392;137,29469
912,74281;138,28346
910,6917;140,28244
908,64059;141,68477
906,58949;140,59874
904,53838;139,97476
902,48727;141,2169
900,43616;140,53499
898,38506;138,62013
896,33395;138,76837
894,28284;139,65572
892,23173;139,16663
890,18063;137,45338
888,12952;135,47084
886,07841;133,55417
884,0273;133,41551
881,9762;136,62532
879,92509;140,83565
877,87398;141,82901
875,82288;139,0323
873,77177;135,00404
871,72066;132,71355
869,66955;135,49997
867,61845;142,01816
865,56734;146,99594
863,51623;148,56129
861,46512;148,21036
859,41402;148,48819
857,36291;149,14716
855,3118;149,60034
853,26069;150,7278
851,20959;151,114
849,15848;150,76254
847,10737;151,01074
845,05626;150,95227
843,00516;150,02171
840,95405;148,6194
838,90294;147,3833
836,85183;147,87042
834,80073;149,57961
832,74962;150,45576
830,69851;149,21016
828,6474;146,67809
826,5963;146,01698
824,54519;147,81209
822,49408;149,65715
820,44297;149,62959
818,39187;148,40143
816,34076;147,05142
814,28965;145,60992
812,23854;145,39532
810,18744;146,58936
808,13633;148,76843
806,08522;150,5313
804,03411;149,21185
801,98301;146,19389
799,9319;145,17769
797,88079;146,15431
795,82969;146,68338
793,77858;146,24283
791,72747;146,61523
789,67636;148,4754
787,62526;149,44652
785,57415;149,32323
783,52304;149,95056
781,47193;150,45451
779,42083;149,34061
777,36972;146,56467
775,31861;145,47377
773,2675;148,01527
771,2164;150,9198
769,16529;152,35957
767,11418;152,03508
765,06307;148,3152
763,01197;144,86368
760,96086;146,14456
758,90975;149,15306
756,85864;150,02272
754,80754;150,32634
752,75643;151,47299
750,70532;153,85535
748,65421;155,26724
746,60311;151,22099
744,552;145,29437
742,50089;144,49902
740,44978;146,63423
738,39868;144,92432
736,34757;142,29333
734,29646;143,90167
732,24535;145,88124
730,19425;144,47682
728,14314;142,92554
726,09203;143,18762
724,04092;144,47618
721,98982;146,26042
719,93871;147,16246
717,8876;146,58635
715,8365;145,3846
713,78539;144,64528
711,73428;145,32263
709,68317;145,52477
707,63207;143,15735
705,58096;140,20158
703,52985;138,56306
701,47874;137,72079
699,42764;137,39748
697,37653;138,00282
695,32542;139,20396
693,27431;139,52516
691,22321;137,74026
689,1721;134,76334
687,12099;132,60333
685,06988;131,99721
683,01878;133,24275
680,96767;136,0997
678,91656;137,50995
676,86545;135,94014
674,81435;133,82347
672,76324;132,20412
670,71213;130,72481
668,66102;130,99324
666,60992;133,61343
664,55881;135,55679
662,5077;137,20442
660,45659;140,45227
658,40549;142,75351
656,35438;140,79625
654,30327;135,84926
652,25216;131,38264
650,20106;129,69365
648,14995;130,73058
646,09884;132,8723
644,04773;133,79057
641,99663;132,19379
639,94552;130,55411
637,89441;131,55969
635,84331;133,52089
633,7922;133,50336
631,74109;132,13315
629,68998;132,11159
627,63888;134,62703
625,58777;136,6794
623,53666;136,01541
621,48555;135,83208
619,43445;136,61497
617,38334;134,9135
615,33223;129,94635
613,28112;126,77827
611,23002;127,8532
609,17891;129,93781
607,1278;131,98753
605,07669;133,83339
603,02559;133,56107
600,97448;132,85483
598,92337;132,16985
596,87226;129,17337
594,82116;128,0118
592,77005;132,09843
590,71894;136,52647
588,66783;134,78
586,61673;130,08931
584,56562;129,62901
582,51451;133,55341
580,4634;138,73622
578,4123;142,53639
576,36119;140,92912
574,31008;133,1156
572,25897;126,64094
570,20787;125,58179
568,15676;124,79584
566,10565;122,01295
564,05454;121,53436
562,00344;123,47553
559,95233;124,43695
557,90122;122,81927
555,85012;121,08292
553,79901;122,7593
551,7479;127,36609
549,69679;132,72159
547,64569;135,24799
545,59458;132,42357
543,54347;128,56703
541,49236;126,54929
539,44126;125,34085
537,39015;124,9261
535,33904;124,58321
533,28793;122,79427
531,23683;122,8625
529,18572;126,08537
527,13461;127,97733
525,0835;127,2808
523,0324;125,43411
520,98129;121,46638
518,93018;116,55695
516,87907;114,73782
514,82797;116,41324
512,77686;119,6526
510,72575;123,68111
508,67464;124,42027
506,62354;119,85841
504,57243;116,78951
502,52132;117,19682
500,47021;115,43013
498,41911;112,30744
496,368;111,10784
494,31689;109,33141
492,26578;108,7747
490,21468;112,49776
488,16357;115,06832
486,11246;112,44664
484,06135;108,37889
482,01025;106,66513
479,95914;109,09191
477,90803;112,83006
475,85693;111,96075
473,80582;109,27798
471,75471;110,1145
469,7036;111,62096
467,6525;110,97401
465,60139;109,91106
463,55028;108,90453
461,49917;107,5293
459,44807;107,17629
457,39696;108,72744
455,34585;110,96619
453,29474;112,12074
451,24364;112,68304
449,19253;117,53912
447,14142;129,09958
445,09031;135,9283
443,03921;127,49082
440,9881;118,53916
438,93699;118,42461
436,88588;119,56471
434,83478;117,70443
432,78367;113,63534
430,73256;106,40227
428,68145;98,68829
426,63035;92,13715
424,57924;86,89186
422,52813;87,53242
420,47702;98,57039
418,42592;112,6329
416,37481;113,77961
414,3237;107,95068
412,27259;103,44273
410,22149;99,82158
408,17038;99,79569
406,11927;102,68288
404,06816;102,78002
402,01706;100,11427
399,96595;96,50539
