3997,70175;1,75493
3995,6506;1,75724
3993,59944;1,75966
3991,54829;1,76131
3989,49713;1,7616
3987,44598;1,76204
3985,39482;1,7653
3983,34367;1,76943
3981,29251;1,77125
3979,24136;1,77242
3977,1902;1,77564
3975,13905;1,77924
3973,08789;1,78026
3971,03673;1,78058
3968,98558;1,7834
3966,93442;1,78803
3964,88327;1,7929
3962,83211;1,79742
3960,78096;1,80049
3958,7298;1,80213
3956,67865;1,80389
3954,62749;1,80705
3952,57634;1,81164
3950,52518;1,81619
3948,47403;1,81902
3946,42287;1,82008
3944,37172;1,8209
3942,32056;1,82113
3940,2694;1,81898
3938,21825;1,81449
3936,16709;1,80924
3934,11594;1,80471
3932,06478;1,80007
3930,01363;1,79415
3927,96247;1,78793
3925,91132;1,78192
3923,86016;1,77521
3921,80901;1,76811
3919,75785;1,76178
3917,7067;1,75589
3915,65554;1,7495
3913,60439;1,74279
3911,55323;1,73587
3909,50207;1,72908
3907,45092;1,72375
3905,39976;1,71926
3903,34861;1,7134
3901,29745;1,70766
3899,2463;1,70506
3897,19514;1,70442
3895,14399;1,70358
3893,09283;1,70142
3891,04168;1,69808
3888,99052;1,69691
3886,93937;1,69848
3884,88821;1,69731
3882,83706;1,69388
3880,7859;1,69247
3878,73474;1,69273
3876,68359;1,69385
3874,63243;1,69248
3872,58128;1,68703
3870,53012;1,68236
3868,47897;1,68112
3866,42781;1,68265
3864,37666;1,6834
3862,3255;1,6815
3860,27435;1,67994
3858,22319;1,68001
3856,17204;1,68015
3854,12088;1,67644
3852,06973;1,67
3850,01857;1,67001
3847,96741;1,67525
3845,91626;1,67772
3843,8651;1,67394
3841,81395;1,66784
3839,76279;1,66596
3837,71164;1,66927
3835,66048;1,67412
3833,60933;1,67737
3831,55817;1,6776
3829,50702;1,67676
3827,45586;1,67715
3825,40471;1,67758
3823,35355;1,67728
3821,3024;1,67535
3819,25124;1,67419
3817,20008;1,67804
3815,14893;1,68162
3813,09777;1,68277
3811,04662;1,68475
3808,99546;1,68608
3806,94431;1,68399
3804,89315;1,68113
3802,842;1,68132
3800,79084;1,682
3798,73969;1,68369
3796,68853;1,68766
3794,63738;1,69091
3792,58622;1,69384
3790,53506;1,69682
3788,48391;1,69775
3786,43275;1,69687
3784,3816;1,69637
3782,33044;1,69695
3780,27929;1,69768
3778,22813;1,69877
3776,17698;1,70219
3774,12582;1,70623
3772,07467;1,70715
3770,02351;1,70486
3767,97236;1,70365
3765,9212;1,70586
3763,87005;1,7088
3761,81889;1,71097
3759,76773;1,71107
3757,71658;1,70893
3755,66542;1,70798
3753,61427;1,70931
3751,56311;1,71072
3749,51196;1,71136
3747,4608;1,71497
3745,40965;1,72191
3743,35849;1,72439
3741,30734;1,72376
3739,25618;1,72595
3737,20503;1,7287
3735,15387;1,7311
3733,10272;1,73634
3731,05156;1,74275
3729,0004;1,74676
3726,94925;1,7487
3724,89809;1,75165
3722,84694;1,75889
3720,79578;1,76878
3718,74463;1,77718
3716,69347;1,78219
3714,64232;1,78531
3712,59116;1,78935
3710,54001;1,79749
3708,48885;1,81146
3706,4377;1,82817
3704,38654;1,84597
3702,33539;1,86837
3700,28423;1,89725
3698,23307;1,92607
3696,18192;1,94567
3694,13076;1,95319
3692,07961;1,95202
3690,02845;1,94667
3687,9773;1,94105
3685,92614;1,93782
3683,87499;1,93763
3681,82383;1,93995
3679,77268;1,94472
3677,72152;1,95306
3675,67037;1,96266
3673,61921;1,9699
3671,56806;1,97885
3669,5169;1,99256
3667,46574;2,01002
3665,41459;2,02869
3663,36343;2,04602
3661,31228;2,06294
3659,26112;2,08086
3657,20997;2,09672
3655,15881;2,10663
3653,10766;2,11406
3651,0565;2,12677
3649,00535;2,15347
3646,95419;2,19408
3644,90304;2,22939
3642,85188;2,24664
3640,80073;2,24959
3638,74957;2,24793
3636,69841;2,24664
3634,64726;2,2454
3632,5961;2,24542
3630,54495;2,25033
3628,49379;2,26025
3626,44264;2,27303
3624,39148;2,28553
3622,34033;2,29338
3620,28917;2,29741
3618,23802;2,30089
3616,18686;2,30529
3614,13571;2,31353
3612,08455;2,32831
3610,0334;2,34744
3607,98224;2,36389
3605,93108;2,37582
3603,87993;2,38824
3601,82877;2,40011
3599,77762;2,40474
3597,72646;2,40359
3595,67531;2,40518
3593,62415;2,41231
3591,573;2,42171
3589,52184;2,43138
3587,47069;2,44044
3585,41953;2,44858
3583,36838;2,45711
3581,31722;2,46548
3579,26607;2,47418
3577,21491;2,48205
3575,16375;2,48446
3573,1126;2,48206
3571,06144;2,48009
3569,01029;2,48152
3566,95913;2,48858
3564,90798;2,50372
3562,85682;2,5237
3560,80567;2,54368
3558,75451;2,56249
3556,70336;2,57515
3554,6522;2,57039
3552,60105;2,55068
3550,54989;2,53491
3548,49874;2,53092
3546,44758;2,53173
3544,39642;2,53314
3542,34527;2,53818
3540,29411;2,54916
3538,24296;2,56222
3536,1918;2,57065
3534,14065;2,57098
3532,08949;2,56626
3530,03834;2,56339
3527,98718;2,5633
3525,93603;2,56026
3523,88487;2,55593
3521,83372;2,55685
3519,78256;2,56277
3517,73141;2,57125
3515,68025;2,5789
3513,62909;2,58121
3511,57794;2,5817
3509,52678;2,58498
3507,47563;2,5865
3505,42447;2,58235
3503,37332;2,57657
3501,32216;2,57409
3499,27101;2,57723
3497,21985;2,58659
3495,1687;2,59518
3493,11754;2,59462
3491,06639;2,59105
3489,01523;2,59527
3486,96407;2,60534
3484,91292;2,61423
3482,86176;2,62144
3480,81061;2,62593
3478,75945;2,62459
3476,7083;2,61676
3474,65714;2,60556
3472,60599;2,59856
3470,55483;2,60245
3468,50368;2,61595
3466,45252;2,62671
3464,40137;2,62797
3462,35021;2,6277
3460,29906;2,62703
3458,2479;2,62445
3456,19674;2,6308
3454,14559;2,64476
3452,09443;2,64962
3450,04328;2,64312
3447,99212;2,63455
3445,94097;2,63525
3443,88981;2,6453
3441,83866;2,65099
3439,7875;2,65051
3437,73635;2,6476
3435,68519;2,64333
3433,63404;2,6446
3431,58288;2,64934
3429,53173;2,64916
3427,48057;2,64455
3425,42941;2,63842
3423,37826;2,63331
3421,3271;2,63443
3419,27595;2,64221
3417,22479;2,64913
3415,17364;2,65616
3413,12248;2,66124
3411,07133;2,6565
3409,02017;2,64916
3406,96902;2,64748
3404,91786;2,65253
3402,86671;2,66258
3400,81555;2,67356
3398,7644;2,67928
3396,71324;2,6697
3394,66208;2,64923
3392,61093;2,63107
3390,55977;2,62422
3388,50862;2,62622
3386,45746;2,62765
3384,40631;2,62457
3382,35515;2,62307
3380,304;2,62181
3378,25284;2,61519
3376,20169;2,61302
3374,15053;2,62482
3372,09938;2,64376
3370,04822;2,65503
3367,99707;2,65222
3365,94591;2,6435
3363,89475;2,63888
3361,8436;2,63828
3359,79244;2,63933
3357,74129;2,64103
3355,69013;2,6375
3353,63898;2,63312
3351,58782;2,63226
3349,53667;2,62633
3347,48551;2,61688
3345,43436;2,61144
3343,3832;2,61013
3341,33205;2,61056
3339,28089;2,60751
3337,22974;2,60548
3335,17858;2,61078
3333,12742;2,61356
3331,07627;2,61076
3329,02511;2,60973
3326,97396;2,61177
3324,9228;2,61394
3322,87165;2,6112
3320,82049;2,60036
3318,76934;2,58658
3316,71818;2,57938
3314,66703;2,58434
3312,61587;2,59846
3310,56472;2,60811
3308,51356;2,60249
3306,46241;2,58947
3304,41125;2,58451
3302,36009;2,58802
3300,30894;2,59186
3298,25778;2,59174
3296,20663;2,58815
3294,15547;2,58191
3292,10432;2,57132
3290,05316;2,56252
3288,00201;2,56077
3285,95085;2,56315
3283,8997;2,5714
3281,84854;2,58471
3279,79739;2,59137
3277,74623;2,58927
3275,69508;2,58299
3273,64392;2,57317
3271,59276;2,56812
3269,54161;2,57101
3267,49045;2,57455
3265,4393;2,57435
3263,38814;2,57083
3261,33699;2,56859
3259,28583;2,56952
3257,23468;2,57468
3255,18352;2,57891
3253,13237;2,57347
3251,08121;2,56644
3249,03006;2,56546
3246,9789;2,56585
3244,92775;2,56418
3242,87659;2,56055
3240,82543;2,55869
3238,77428;2,55866
3236,72312;2,55716
3234,67197;2,55601
3232,62081;2,55504
3230,56966;2,5516
3228,5185;2,54699
3226,46735;2,54416
3224,41619;2,54853
3222,36504;2,55669
3220,31388;2,55893
3218,26273;2,5591
3216,21157;2,55944
3214,16041;2,55471
3212,10926;2,54799
3210,0581;2,54459
3208,00695;2,54024
3205,95579;2,5304
3203,90464;2,52459
3201,85348;2,52762
3199,80233;2,527
3197,75117;2,52033
3195,70002;2,51697
3193,64886;2,51671
3191,59771;2,51844
3189,54655;2,52337
3187,4954;2,52529
3185,44424;2,52171
3183,39308;2,51929
3181,34193;2,52037
3179,29077;2,52314
3177,23962;2,52189
3175,18846;2,51447
3173,13731;2,50607
3171,08615;2,49675
3169,035;2,48939
3166,98384;2,48654
3164,93269;2,48327
3162,88153;2,48001
3160,83038;2,47889
3158,77922;2,47707
3156,72807;2,47396
3154,67691;2,47265
3152,62575;2,47449
3150,5746;2,47468
3148,52344;2,46827
3146,47229;2,46084
3144,42113;2,45767
3142,36998;2,45682
3140,31882;2,4567
3138,26767;2,45473
3136,21651;2,44942
3134,16536;2,44248
3132,1142;2,43788
3130,06305;2,4364
3128,01189;2,43407
3125,96074;2,43101
3123,90958;2,43044
3121,85842;2,43215
3119,80727;2,43315
3117,75611;2,4331
3115,70496;2,43264
3113,6538;2,43194
3111,60265;2,43036
3109,55149;2,42631
3107,50034;2,42216
3105,44918;2,41919
3103,39803;2,41727
3101,34687;2,41851
3099,29572;2,4209
3097,24456;2,41956
3095,19341;2,41508
3093,14225;2,41254
3091,09109;2,4114
3089,03994;2,41017
3086,98878;2,41141
3084,93763;2,41191
3082,88647;2,4109
3080,83532;2,41375
3078,78416;2,41779
3076,73301;2,41704
3074,68185;2,41185
3072,6307;2,40599
3070,57954;2,40465
3068,52839;2,40777
3066,47723;2,40645
3064,42608;2,39917
3062,37492;2,39485
3060,32376;2,39666
3058,27261;2,40168
3056,22145;2,40562
3054,1703;2,40565
3052,11914;2,40334
3050,06799;2,40112
3048,01683;2,40086
3045,96568;2,40235
3043,91452;2,4026
3041,86337;2,4044
3039,81221;2,41209
3037,76106;2,41795
3035,7099;2,41582
3033,65875;2,41376
3031,60759;2,41644
3029,55643;2,41934
3027,50528;2,42216
3025,45412;2,42528
3023,40297;2,42704
3021,35181;2,42809
3019,30066;2,42814
3017,2495;2,42885
3015,19835;2,4331
3013,14719;2,44065
3011,09604;2,4489
3009,04488;2,45741
3006,99373;2,46828
3004,94257;2,47816
3002,89142;2,48369
3000,84026;2,4958
2998,7891;2,52253
2996,73795;2,55187
2994,68679;2,57528
2992,63564;2,59831
2990,58448;2,62039
2988,53333;2,63573
2986,48217;2,64598
2984,43102;2,65568
2982,37986;2,65902
2980,32871;2,65618
2978,27755;2,65039
2976,2264;2,63891
2974,17524;2,62788
2972,12409;2,62407
2970,07293;2,62246
2968,02177;2,621
2965,97062;2,62334
2963,91946;2,62031
2961,86831;2,61111
2959,81715;2,61044
2957,766;2,61081
2955,71484;2,60295
2953,66369;2,59917
2951,61253;2,60306
2949,56138;2,60536
2947,51022;2,60117
2945,45907;2,59524
2943,40791;2,59473
2941,35675;2,59637
2939,3056;2,59342
2937,25444;2,58924
2935,20329;2,58929
2933,15213;2,59398
2931,10098;2,59914
2929,04982;2,60155
2926,99867;2,5974
2924,94751;2,58675
2922,89636;2,57949
2920,8452;2,58063
2918,79405;2,58383
2916,74289;2,58704
2914,69174;2,59039
2912,64058;2,58752
2910,58942;2,58264
2908,53827;2,58584
2906,48711;2,59051
2904,43596;2,58659
2902,3848;2,57987
2900,33365;2,57988
2898,28249;2,58284
2896,23134;2,58421
2894,18018;2,58852
2892,12903;2,59998
2890,07787;2,61341
2888,02672;2,61877
2885,97556;2,62599
2883,92441;2,64542
2881,87325;2,66164
2879,82209;2,67016
2877,77094;2,68422
2875,71978;2,69923
2873,66863;2,70781
2871,61747;2,70818
2869,56632;2,69585
2867,51516;2,6835
2865,46401;2,6762
2863,41285;2,66179
2861,3617;2,64499
2859,31054;2,63576
2857,25939;2,63116
2855,20823;2,6238
2853,15708;2,61283
2851,10592;2,60412
2849,05476;2,59488
2847,00361;2,57941
2844,95245;2,56375
2842,9013;2,55243
2840,85014;2,53782
2838,79899;2,51614
2836,74783;2,49186
2834,69668;2,46925
2832,64552;2,44924
2830,59437;2,4299
2828,54321;2,41319
2826,49206;2,39859
2824,4409;2,3828
2822,38975;2,36889
2820,33859;2,35749
2818,28743;2,34629
2816,23628;2,33894
2814,18512;2,33526
2812,13397;2,32832
2810,08281;2,31924
2808,03166;2,31306
2805,9805;2,30838
2803,92935;2,30301
2801,87819;2,29908
2799,82704;2,29847
2797,77588;2,2967
2795,72473;2,28814
2793,67357;2,27465
2791,62242;2,26294
2789,57126;2,25544
2787,5201;2,25128
2785,46895;2,24909
2783,41779;2,24482
2781,36664;2,23759
2779,31548;2,2294
2777,26433;2,22191
2775,21317;2,21744
2773,16202;2,21413
2771,11086;2,21023
2769,05971;2,20785
2767,00855;2,2072
2764,9574;2,2067
2762,90624;2,20424
2760,85509;2,20041
2758,80393;2,19762
2756,75277;2,19419
2754,70162;2,18976
2752,65046;2,18712
2750,59931;2,18687
2748,54815;2,18747
2746,497;2,18659
2744,44584;2,18368
2742,39469;2,1798
2740,34353;2,1759
2738,29238;2,17352
2736,24122;2,17373
2734,19007;2,17549
2732,13891;2,1756
2730,08776;2,17371
2728,0366;2,17219
2725,98544;2,17103
2723,93429;2,16978
2721,88313;2,16978
2719,83198;2,17174
2717,78082;2,1733
2715,72967;2,172
2713,67851;2,16983
2711,62736;2,16883
2709,5762;2,16657
2707,52505;2,16266
2705,47389;2,16139
2703,42274;2,16347
2701,37158;2,16483
2699,32043;2,16491
2697,26927;2,16575
2695,21811;2,1675
2693,16696;2,16877
2691,1158;2,16763
2689,06465;2,16745
2687,01349;2,17089
2684,96234;2,17316
2682,91118;2,17387
2680,86003;2,17581
2678,80887;2,176
2676,75772;2,17439
2674,70656;2,17505
2672,65541;2,17777
2670,60425;2,18033
2668,55309;2,18224
2666,50194;2,18401
2664,45078;2,18645
2662,39963;2,1902
2660,34847;2,19454
2658,29732;2,19791
2656,24616;2,20011
2654,19501;2,20337
2652,14385;2,20976
2650,0927;2,21639
2648,04154;2,2206
2645,99039;2,22656
2643,93923;2,23711
2641,88808;2,24802
2639,83692;2,25852
2637,78576;2,27464
2635,73461;2,29782
2633,68345;2,32248
2631,6323;2,3453
2629,58114;2,36617
2627,52999;2,38312
2625,47883;2,39732
2623,42768;2,4136
2621,37652;2,43383
2619,32537;2,45255
2617,27421;2,46502
2615,22306;2,47617
2613,1719;2,4884
2611,12075;2,49959
2609,06959;2,50952
2607,01843;2,51902
2604,96728;2,53099
2602,91612;2,54774
2600,86497;2,56224
2598,81381;2,56645
2596,76266;2,56558
2594,7115;2,56528
2592,66035;2,56611
2590,60919;2,56943
2588,55804;2,57526
2586,50688;2,58156
2584,45573;2,58238
2582,40457;2,57786
2580,35342;2,58071
2578,30226;2,59174
2576,2511;2,59575
2574,19995;2,59175
2572,14879;2,58804
2570,09764;2,58407
2568,04648;2,58189
2565,99533;2,58519
2563,94417;2,58862
2561,89302;2,5892
2559,84186;2,59157
2557,79071;2,59658
2555,73955;2,60112
2553,6884;2,60657
2551,63724;2,61563
2549,58609;2,6281
2547,53493;2,63891
2545,48377;2,64439
2543,43262;2,65176
2541,38146;2,66243
2539,33031;2,67102
2537,27915;2,68293
2535,228;2,6992
2533,17684;2,71951
2531,12569;2,74852
2529,07453;2,77241
2527,02338;2,78344
2524,97222;2,79707
2522,92107;2,81998
2520,86991;2,84292
2518,81876;2,85047
2516,7676;2,84653
2514,71644;2,84866
2512,66529;2,85574
2510,61413;2,85644
2508,56298;2,85022
2506,51182;2,83443
2504,46067;2,81013
2502,40951;2,78765
2500,35836;2,76546
2498,3072;2,7381
2496,25605;2,70782
2494,20489;2,68039
2492,15374;2,65354
2490,10258;2,62369
2488,05143;2,59836
2486,00027;2,58095
2483,94911;2,56449
2481,89796;2,54316
2479,8468;2,51972
2477,79565;2,49477
2475,74449;2,46608
2473,69334;2,43965
2471,64218;2,41852
2469,59103;2,3987
2467,53987;2,38036
2465,48872;2,3614
2463,43756;2,34039
2461,38641;2,32481
2459,33525;2,31652
2457,2841;2,30684
2455,23294;2,29297
2453,18178;2,2805
2451,13063;2,27116
2449,07947;2,26291
2447,02832;2,2539
2444,97716;2,24376
2442,92601;2,23556
2440,87485;2,23091
2438,8237;2,22598
2436,77254;2,21704
2434,72139;2,20709
2432,67023;2,20076
2430,61908;2,19766
2428,56792;2,19521
2426,51677;2,19061
2424,46561;2,18378
2422,41445;2,17774
2420,3633;2,17226
2418,31214;2,16642
2416,26099;2,16258
2414,20983;2,16007
2412,15868;2,15637
2410,10752;2,15256
2408,05637;2,14989
2406,00521;2,14735
2403,95406;2,1445
2401,9029;2,14202
2399,85175;2,13929
2397,80059;2,13568
2395,74944;2,13255
2393,69828;2,13159
2391,64712;2,13123
2389,59597;2,12989
2387,54481;2,12956
2385,49366;2,13106
2383,4425;2,13178
2381,39135;2,12955
2379,34019;2,12502
2377,28904;2,1217
2375,23788;2,12299
2373,18673;2,12668
2371,13557;2,12685
2369,08442;2,12279
2367,03326;2,12033
2364,9821;2,12464
2362,93095;2,1313
2360,87979;2,13029
2358,82864;2,1224
2356,77748;2,11743
2354,72633;2,11853
2352,67517;2,12093
2350,62402;2,12215
2348,57286;2,12292
2346,52171;2,12283
2344,47055;2,12246
2342,4194;2,12339
2340,36824;2,12502
2338,31709;2,12582
2336,26593;2,12403
2334,21477;2,11907
2332,16362;2,11429
2330,11246;2,11415
2328,06131;2,11784
2326,01015;2,12138
2323,959;2,12297
2321,90784;2,12365
2319,85669;2,12497
2317,80553;2,12587
2315,75438;2,12478
2313,70322;2,12248
2311,65207;2,12032
2309,60091;2,11882
2307,54976;2,11828
2305,4986;2,11795
2303,44744;2,11703
2301,39629;2,11661
2299,34513;2,11727
2297,29398;2,11733
2295,24282;2,11509
2293,19167;2,11191
2291,14051;2,10985
2289,08936;2,10836
2287,0382;2,10675
2284,98705;2,10615
2282,93589;2,10716
2280,88474;2,10837
2278,83358;2,10884
2276,78243;2,10926
2274,73127;2,11052
2272,68011;2,11274
2270,62896;2,11493
2268,5778;2,11657
2266,52665;2,11846
2264,47549;2,12097
2262,42434;2,12317
2260,37318;2,125
2258,32203;2,12694
2256,27087;2,12933
2254,21972;2,13297
2252,16856;2,13715
2250,11741;2,14056
2248,06625;2,14337
2246,0151;2,14602
2243,96394;2,1489
2241,91278;2,15239
2239,86163;2,15515
2237,81047;2,15681
2235,75932;2,15925
2233,70816;2,16282
2231,65701;2,16808
2229,60585;2,17399
2227,5547;2,1779
2225,50354;2,18037
2223,45239;2,18355
2221,40123;2,18758
2219,35008;2,19113
2217,29892;2,19376
2215,24777;2,19551
2213,19661;2,19617
2211,14545;2,19539
2209,0943;2,19449
2207,04314;2,19545
2204,99199;2,19791
2202,94083;2,20072
2200,88968;2,20262
2198,83852;2,20288
2196,78737;2,20262
2194,73621;2,20384
2192,68506;2,20677
2190,6339;2,20963
2188,58275;2,21163
2186,53159;2,21158
2184,48044;2,20983
2182,42928;2,21043
2180,37812;2,21365
2178,32697;2,21668
2176,27581;2,2201
2174,22466;2,22329
2172,1735;2,22489
2170,12235;2,22871
2168,07119;2,23617
2166,02004;2,24311
2163,96888;2,24974
2161,91773;2,25865
2159,86657;2,26985
2157,81542;2,28404
2155,76426;2,30097
2153,71311;2,31905
2151,66195;2,33568
2149,61079;2,34759
2147,55964;2,35534
2145,50848;2,36029
2143,45733;2,36292
2141,40617;2,36539
2139,35502;2,36858
2137,30386;2,36898
2135,25271;2,36286
2133,20155;2,35274
2131,1504;2,34361
2129,09924;2,33398
2127,04809;2,32055
2124,99693;2,30498
2122,94578;2,28856
2120,89462;2,27241
2118,84346;2,258
2116,79231;2,2446
2114,74115;2,23369
2112,69;2,22643
2110,63884;2,2201
2108,58769;2,21437
2106,53653;2,20998
2104,48538;2,20601
2102,43422;2,20428
2100,38307;2,20507
2098,33191;2,20419
2096,28076;2,20095
2094,2296;2,19819
2092,17844;2,19738
2090,12729;2,1979
2088,07613;2,1988
2086,02498;2,19896
2083,97382;2,19858
2081,92267;2,19936
2079,87151;2,2013
2077,82036;2,20328
2075,7692;2,20505
2073,71805;2,2059
2071,66689;2,206
2069,61574;2,20704
2067,56458;2,20991
2065,51343;2,21282
2063,46227;2,21396
2061,41111;2,21384
2059,35996;2,21389
2057,3088;2,21532
2055,25765;2,21705
2053,20649;2,21676
2051,15534;2,21511
2049,10418;2,21578
2047,05303;2,2195
2045,00187;2,22386
2042,95072;2,22739
2040,89956;2,22892
2038,84841;2,22876
2036,79725;2,22945
2034,7461;2,23198
2032,69494;2,23486
2030,64378;2,23541
2028,59263;2,2332
2026,54147;2,23213
2024,49032;2,23398
2022,43916;2,23738
2020,38801;2,24086
2018,33685;2,24224
2016,2857;2,242
2014,23454;2,24336
2012,18339;2,24589
2010,13223;2,2469
2008,08108;2,24634
2006,02992;2,24552
2003,97877;2,24571
2001,92761;2,24649
1999,87645;2,24742
1997,8253;2,2497
1995,77414;2,25291
1993,72299;2,2547
1991,67183;2,2541
1989,62068;2,25336
1987,56952;2,25437
1985,51837;2,25663
1983,46721;2,25929
1981,41606;2,26169
1979,3649;2,2627
1977,31375;2,26371
1975,26259;2,26796
1973,21144;2,2737
1971,16028;2,2779
1969,10912;2,28336
1967,05797;2,29514
1965,00681;2,3142
1962,95566;2,33422
1960,9045;2,3437
1958,85335;2,33663
1956,80219;2,31991
1954,75104;2,30555
1952,69988;2,29999
1950,64873;2,30006
1948,59757;2,29958
1946,54642;2,29867
1944,49526;2,30051
1942,44411;2,3038
1940,39295;2,30726
1938,34179;2,31235
1936,29064;2,3168
1934,23948;2,31855
1932,18833;2,32045
1930,13717;2,32336
1928,08602;2,32423
1926,03486;2,32363
1923,98371;2,32527
1921,93255;2,32904
1919,8814;2,33319
1917,83024;2,33766
1915,77909;2,34168
1913,72793;2,34363
1911,67678;2,34333
1909,62562;2,34328
1907,57446;2,34526
1905,52331;2,34954
1903,47215;2,35564
1901,421;2,36151
1899,36984;2,36579
1897,31869;2,37028
1895,26753;2,37534
1893,21638;2,37822
1891,16522;2,38018
1889,11407;2,3845
1887,06291;2,39078
1885,01176;2,39656
1882,9606;2,40169
1880,90945;2,4086
1878,85829;2,41861
1876,80713;2,42851
1874,75598;2,43513
1872,70482;2,43989
1870,65367;2,44402
1868,60251;2,44963
1866,55136;2,46112
1864,5002;2,47581
1862,44905;2,48737
1860,39789;2,4954
1858,34674;2,50346
1856,29558;2,51311
1854,24443;2,52215
1852,19327;2,52959
1850,14212;2,53723
1848,09096;2,54458
1846,0398;2,55271
1843,98865;2,56658
1841,93749;2,58597
1839,88634;2,6045
1837,83518;2,61833
1835,78403;2,63097
1833,73287;2,64822
1831,68172;2,66808
1829,63056;2,6834
1827,57941;2,69324
1825,52825;2,70515
1823,4771;2,72519
1821,42594;2,7497
1819,37478;2,77093
1817,32363;2,78981
1815,27247;2,81085
1813,22132;2,83659
1811,17016;2,87563
1809,11901;2,93182
1807,06785;2,99559
1805,0167;3,05964
1802,96554;3,12055
1800,91439;3,16882
1798,86323;3,19054
1796,81208;3,18536
1794,76092;3,17412
1792,70977;3,16113
1790,65861;3,12179
1788,60745;3,06932
1786,5563;3,03146
1784,50514;3,00233
1782,45399;2,96904
1780,40283;2,93785
1778,35168;2,92326
1776,30052;2,92087
1774,24937;2,91777
1772,19821;2,91284
1770,14706;2,91016
1768,0959;2,90518
1766,04475;2,89784
1763,99359;2,90334
1761,94244;2,92714
1759,89128;2,95247
1757,84012;2,9603
1755,78897;2,95374
1753,73781;2,95717
1751,68666;2,97624
1749,6355;2,98751
1747,58435;2,98775
1745,53319;3,00072
1743,48204;3,0256
1741,43088;3,04269
1739,37973;3,04344
1737,32857;3,03857
1735,27742;3,04329
1733,22626;3,05271
1731,17511;3,05407
1729,12395;3,05433
1727,07279;3,05629
1725,02164;3,05862
1722,97048;3,06358
1720,91933;3,07187
1718,86817;3,08927
1716,81702;3,11669
1714,76586;3,12766
1712,71471;3,10791
1710,66355;3,09126
1708,6124;3,10572
1706,56124;3,12664
1704,51009;3,11641
1702,45893;3,0929
1700,40778;3,09578
1698,35662;3,12293
1696,30546;3,13634
1694,25431;3,13755
1692,20315;3,1507
1690,152;3,17733
1688,10084;3,20752
1686,04969;3,22019
1683,99853;3,19834
1681,94738;3,1778
1679,89622;3,18557
1677,84507;3,20177
1675,79391;3,20728
1673,74276;3,21609
1671,6916;3,25793
1669,64045;3,30472
1667,58929;3,31093
1665,53813;3,30436
1663,48698;3,31332
1661,43582;3,34419
1659,38467;3,39017
1657,33351;3,41617
1655,28236;3,40252
1653,2312;3,3684
1651,18005;3,35158
1649,12889;3,36891
1647,07774;3,40562
1645,02658;3,43337
1642,97543;3,43381
1640,92427;3,41511
1638,87312;3,39841
1636,82196;3,40453
1634,7708;3,4219
1632,71965;3,42985
1630,66849;3,45391
1628,61734;3,49362
1626,56618;3,4979
1624,51503;3,47067
1622,46387;3,44925
1620,41272;3,41512
1618,36156;3,36106
1616,31041;3,33529
1614,25925;3,36453
1612,2081;3,39626
1610,15694;3,39008
1608,10579;3,36804
1606,05463;3,35426
1604,00347;3,34432
1601,95232;3,33533
1599,90116;3,33437
1597,85001;3,34233
1595,79885;3,34169
1593,7477;3,3251
1591,69654;3,29815
1589,64539;3,2592
1587,59423;3,22303
1585,54308;3,20439
1583,49192;3,19374
1581,44077;3,1768
1579,38961;3,14459
1577,33846;3,09203
1575,2873;3,0246
1573,23614;2,96452
1571,18499;2,9149
1569,13383;2,86876
1567,08268;2,83006
1565,03152;2,7953
1562,98037;2,76098
1560,92921;2,71595
1558,87806;2,63812
1556,8269;2,56154
1554,77575;2,51924
1552,72459;2,4891
1550,67344;2,45745
1548,62228;2,42989
1546,57113;2,411
1544,51997;2,39267
1542,46881;2,36957
1540,41766;2,35292
1538,3665;2,35196
1536,31535;2,35685
1534,26419;2,3548
1532,21304;2,34358
1530,16188;2,33221
1528,11073;2,32375
1526,05957;2,31535
1524,00842;2,30813
1521,95726;2,30681
1519,90611;2,3133
1517,85495;2,32199
1515,80379;2,32599
1513,75264;2,32499
1511,70148;2,32217
1509,65033;2,31959
1507,59917;2,32154
1505,54802;2,32731
1503,49686;2,33122
1501,44571;2,33337
1499,39455;2,3345
1497,3434;2,33573
1495,29224;2,33804
1493,24109;2,33857
1491,18993;2,33454
1489,13878;2,3299
1487,08762;2,33148
1485,03646;2,33701
1482,98531;2,34159
1480,93415;2,34371
1478,883;2,34148
1476,83184;2,33401
1474,78069;2,32589
1472,72953;2,32445
1470,67838;2,33017
1468,62722;2,33671
1466,57607;2,33903
1464,52491;2,33519
1462,47376;2,3277
1460,4226;2,31934
1458,37145;2,30992
1456,32029;2,30253
1454,26913;2,30173
1452,21798;2,30282
1450,16682;2,30099
1448,11567;2,29872
1446,06451;2,29865
1444,01336;2,29993
1441,9622;2,29993
1439,91105;2,29488
1437,85989;2,28477
1435,80874;2,27415
1433,75758;2,26576
1431,70643;2,25737
1429,65527;2,24863
1427,60412;2,24166
1425,55296;2,23381
1423,5018;2,22062
1421,45065;2,20295
1419,39949;2,18343
1417,34834;2,16568
1415,29718;2,15113
1413,24603;2,1346
1411,19487;2,1159
1409,14372;2,10224
1407,09256;2,09992
1405,04141;2,11026
1402,99025;2,1285
1400,9391;2,14647
1398,88794;2,15952
1396,83679;2,17023
1394,78563;2,18383
1392,73447;2,19966
1390,68332;2,21699
1388,63216;2,2378
1386,58101;2,25897
1384,52985;2,27702
1382,4787;2,29425
1380,42754;2,31078
1378,37639;2,32384
1376,32523;2,3333
1374,27408;2,34172
1372,22292;2,3503
1370,17177;2,35889
1368,12061;2,36673
1366,06946;2,37362
1364,0183;2,38104
1361,96714;2,38909
1359,91599;2,39563
1357,86483;2,39927
1355,81368;2,40214
1353,76252;2,40698
1351,71137;2,41272
1349,66021;2,41778
1347,60906;2,42318
1345,5579;2,42926
1343,50675;2,43326
1341,45559;2,43423
1339,40444;2,43588
1337,35328;2,4409
1335,30213;2,44647
1333,25097;2,44941
1331,19981;2,45055
1329,14866;2,4526
1327,0975;2,45614
1325,04635;2,45891
1322,99519;2,46083
1320,94404;2,4642
1318,89288;2,46712
1316,84173;2,46789
1314,79057;2,46973
1312,73942;2,47067
1310,68826;2,46733
1308,63711;2,4644
1306,58595;2,46644
1304,5348;2,47203
1302,48364;2,47805
1300,43248;2,48116
1298,38133;2,47799
1296,33017;2,47119
1294,27902;2,46924
1292,22786;2,47371
1290,17671;2,47768
1288,12555;2,47904
1286,0744;2,47878
1284,02324;2,47759
1281,97209;2,47899
1279,92093;2,48259
1277,86978;2,48562
1275,81862;2,48817
1273,76747;2,49126
1271,71631;2,49459
1269,66515;2,49538
1267,614;2,49363
1265,56284;2,49229
1263,51169;2,49182
1261,46053;2,49203
1259,40938;2,49289
1257,35822;2,49449
1255,30707;2,49749
1253,25591;2,50196
1251,20476;2,50711
1249,1536;2,51224
1247,10245;2,51899
1245,05129;2,52535
1243,00013;2,52714
1240,94898;2,52616
1238,89782;2,52267
1236,84667;2,51765
1234,79551;2,51634
1232,74436;2,52102
1230,6932;2,5289
1228,64205;2,53461
1226,59089;2,53561
1224,53974;2,53366
1222,48858;2,53076
1220,43743;2,53051
1218,38627;2,53745
1216,33512;2,54555
1214,28396;2,54528
1212,2328;2,54143
1210,18165;2,54129
1208,13049;2,5453
1206,07934;2,55167
1204,02818;2,55604
1201,97703;2,55957
1199,92587;2,56644
1197,87472;2,57325
1195,82356;2,57557
1193,77241;2,57721
1191,72125;2,58421
1189,6701;2,59176
1187,61894;2,59292
1185,56779;2,59723
1183,51663;2,6072
1181,46547;2,61165
1179,41432;2,61122
1177,36316;2,61097
1175,31201;2,61101
1173,26085;2,61056
1171,2097;2,60885
1169,15854;2,60737
1167,10739;2,60909
1165,05623;2,61479
1163,00508;2,62038
1160,95392;2,62158
1158,90277;2,61608
1156,85161;2,60455
1154,80046;2,59548
1152,7493;2,59274
1150,69814;2,58966
1148,64699;2,58622
1146,59583;2,58516
1144,54468;2,58442
1142,49352;2,58601
1140,44237;2,59092
1138,39121;2,59111
1136,34006;2,5855
1134,2889;2,58591
1132,23775;2,59185
1130,18659;2,59639
1128,13544;2,59911
1126,08428;2,59867
1124,03313;2,60128
1121,98197;2,60795
1119,93081;2,61079
1117,87966;2,61425
1115,8285;2,62127
1113,77735;2,62466
1111,72619;2,62297
1109,67504;2,61957
1107,62388;2,61734
1105,57273;2,61847
1103,52157;2,62145
1101,47042;2,62447
1099,41926;2,62519
1097,36811;2,62502
1095,31695;2,62682
1093,2658;2,62612
1091,21464;2,62605
1089,16348;2,64034
1087,11233;2,66628
1085,06117;2,68099
1083,01002;2,67603
1080,95886;2,65856
1078,90771;2,64066
1076,85655;2,63558
1074,8054;2,63691
1072,75424;2,63759
1070,70309;2,64076
1068,65193;2,64064
1066,60078;2,63589
1064,54962;2,63151
1062,49847;2,62376
1060,44731;2,61198
1058,39615;2,60512
1056,345;2,60886
1054,29384;2,62342
1052,24269;2,63549
1050,19153;2,63152
1048,14038;2,62679
1046,08922;2,63077
1044,03807;2,63707
1041,98691;2,64831
1039,93576;2,65923
1037,8846;2,66344
1035,83345;2,66755
1033,78229;2,67141
1031,73114;2,6737
1029,67998;2,67661
1027,62882;2,67917
1025,57767;2,68295
1023,52651;2,69177
1021,47536;2,70304
1019,4242;2,70633
1017,37305;2,7062
1015,32189;2,70845
1013,27074;2,70293
1011,21958;2,68897
1009,16843;2,67985
1007,11727;2,68249
1005,06612;2,69129
1003,01496;2,69489
1000,96381;2,6922
998,91265;2,69128
996,86149;2,68571
994,81034;2,67525
992,75918;2,6754
990,70803;2,68258
988,65687;2,68772
986,60572;2,68959
984,55456;2,68343
982,50341;2,67614
980,45225;2,67782
978,4011;2,68281
976,34994;2,68347
974,29879;2,68207
972,24763;2,68288
970,19647;2,68597
968,14532;2,68885
966,09416;2,68443
964,04301;2,67651
961,99185;2,6773
959,9407;2,68394
957,88954;2,68908
955,83839;2,69404
953,78723;2,69409
951,73608;2,68583
949,68492;2,67361
947,63377;2,65986
945,58261;2,65042
943,53146;2,64708
941,4803;2,64372
939,42914;2,64155
937,37799;2,64494
935,32683;2,64913
933,27568;2,64268
931,22452;2,62581
929,17337;2,61592
927,12221;2,61809
925,07106;2,6219
923,0199;2,6215
920,96875;2,61627
918,91759;2,6101
916,86644;2,60131
914,81528;2,58744
912,76413;2,5802
910,71297;2,58622
908,66181;2,6001
906,61066;2,61252
904,5595;2,61277
902,50835;2,60143
900,45719;2,59297
898,40604;2,59372
896,35488;2,59756
894,30373;2,6012
892,25257;2,59249
890,20142;2,55872
888,15026;2,53663
886,09911;2,57558
884,04795;2,65597
881,9968;2,68769
879,94564;2,6383
877,89448;2,55325
875,84333;2,4572
873,79217;2,3659
871,74102;2,31651
869,68986;2,34127
867,63871;2,41899
865,58755;2,48469
863,5364;2,51124
861,48524;2,52165
859,43409;2,53234
857,38293;2,54089
855,33178;2,54988
853,28062;2,56588
851,22947;2,59301
849,17831;2,6263
847,12715;2,62583
845,076;2,59131
843,02484;2,57097
840,97369;2,57316
838,92253;2,57926
836,87138;2,57325
834,82022;2,5579
832,76907;2,55287
830,71791;2,56021
828,66676;2,56767
826,6156;2,57101
824,56445;2,57777
822,51329;2,58648
820,46214;2,58563
818,41098;2,58318
816,35982;2,58365
814,30867;2,58523
812,25751;2,59481
810,20636;2,60884
808,1552;2,61462
806,10405;2,61542
804,05289;2,61916
802,00174;2,62162
799,95058;2,62652
797,89943;2,63881
795,84827;2,64802
793,79712;2,64775
791,74596;2,64484
789,69481;2,64201
787,64365;2,64516
785,59249;2,65721
783,54134;2,66744
781,49018;2,67487
779,43903;2,67928
777,38787;2,67476
775,33672;2,67345
773,28556;2,67523
771,23441;2,66632
769,18325;2,65433
767,1321;2,64698
765,08094;2,6527
763,02979;2,67033
760,97863;2,68044
758,92748;2,66799
756,87632;2,63973
754,82516;2,62884
752,77401;2,64498
750,72285;2,65236
748,6717;2,64141
746,62054;2,6374
744,56939;2,65008
742,51823;2,66993
740,46708;2,69131
738,41592;2,71731
736,36477;2,72513
734,31361;2,70878
732,26246;2,71474
730,2113;2,76474
728,16015;2,81714
726,10899;2,83294
724,05783;2,83803
722,00668;2,85968
719,95552;2,90441
717,90437;2,97062
715,85321;3,00095
713,80206;2,92371
711,7509;2,82216
709,69975;2,78665
707,64859;2,79099
705,59744;2,78679
703,54628;2,76696
701,49513;2,74425
699,44397;2,73263
697,39281;2,72867
695,34166;2,71534
693,2905;2,69231
691,23935;2,66916
689,18819;2,65611
687,13704;2,66796
685,08588;2,69604
683,03473;2,70923
680,98357;2,70065
678,93242;2,68076
676,88126;2,66391
674,83011;2,66953
672,77895;2,69203
670,7278;2,70834
668,67664;2,71813
666,62548;2,73666
664,57433;2,75461
662,52317;2,76749
660,47202;2,77339
658,42086;2,75569
656,36971;2,73032
654,31855;2,73249
652,2674;2,7505
650,21624;2,75314
648,16509;2,75245
646,11393;2,76158
644,06278;2,76551
642,01162;2,76427
639,96047;2,7668
637,90931;2,76932
635,85815;2,77087
633,807;2,78137
631,75584;2,79326
629,70469;2,78763
627,65353;2,76312
625,60238;2,73852
623,55122;2,75895
621,50007;2,81884
619,44891;2,84813
617,39776;2,85705
615,3466;2,85863
613,29545;2,83033
611,24429;2,80706
609,19314;2,81007
607,14198;2,81584
605,09082;2,83038
603,03967;2,85998
600,98851;2,85886
598,93736;2,82189
596,8862;2,81242
594,83505;2,84388
592,78389;2,88502
590,73274;2,90543
588,68158;2,90584
586,63043;2,87461
584,57927;2,81999
582,52812;2,80303
580,47696;2,80755
578,42581;2,80296
576,37465;2,80192
574,32349;2,83568
572,27234;2,8964
570,22118;2,93021
568,17003;2,96131
566,11887;2,97555
564,06772;2,90497
562,01656;2,85361
559,96541;2,85341
557,91425;2,84306
555,8631;2,85629
553,81194;2,89546
551,76079;2,89468
549,70963;2,8903
547,65848;2,93068
545,60732;3,00336
543,55616;3,0589
541,50501;3,07513
539,45385;3,07713
537,4027;3,02985
535,35154;2,95468
533,30039;2,93168
531,24923;2,97813
529,19808;3,03645
527,14692;3,01364
525,09577;2,90448
523,04461;2,8507
520,99346;2,91671
518,9423;3,05541
516,89115;3,17407
514,83999;3,17361
512,78883;3,10707
510,73768;3,01968
508,68652;2,91765
506,63537;2,86961
504,58421;2,90054
502,53306;2,96137
500,4819;3,01609
498,43075;3,03183
496,37959;3,02181
494,32844;3,09307
492,27728;3,21423
490,22613;3,22256
488,17497;3,15236
486,12382;3,07147
484,07266;3,04613
482,0215;3,10406
479,97035;3,1804
477,91919;3,18594
475,86804;3,17075
473,81688;3,20845
471,76573;3,23212
469,71457;3,29976
467,66342;3,41917
465,61226;3,38159
463,56111;3,48563
461,50995;3,43374
459,4588;3,15026
457,40764;3,12567
455,35649;3,20965
453,30533;3,23032
451,25417;3,19276
449,20302;3,22824
447,15186;3,2233
445,10071;3,19164
443,04955;3,14233
440,9984;3,07756
438,94724;3,03637
436,89609;3,06733
434,84493;3,13412
432,79378;3,20548
430,74262;3,14138
428,69147;2,96992
426,64031;2,92293
424,58916;2,92255
422,538;2,86302
420,48684;2,86443
418,43569;2,91771
416,38453;2,9829
414,33338;2,93956
412,28222;2,85741
410,23107;2,81454
408,17991;2,76102
406,12876;2,7268
404,0776;2,69108
402,02645;2,60978
399,97529;2,52544
