3997,70175;1,88603
3995,6506;1,88541
3993,59944;1,88581
3991,54829;1,88655
3989,49713;1,88703
3987,44598;1,88798
3985,39482;1,8895
3983,34367;1,88977
3981,29251;1,88907
3979,24136;1,89117
3977,1902;1,89533
3975,13905;1,89564
3973,08789;1,89201
3971,03673;1,89113
3968,98558;1,89542
3966,93442;1,90122
3964,88327;1,90494
3962,83211;1,90694
3960,78096;1,90963
3958,7298;1,91223
3956,67865;1,91352
3954,62749;1,91476
3952,57634;1,91612
3950,52518;1,91678
3948,47403;1,91802
3946,42287;1,92179
3944,37172;1,92509
3942,32056;1,92528
3940,2694;1,92431
3938,21825;1,92191
3936,16709;1,91741
3934,11594;1,91207
3932,06478;1,90731
3930,01363;1,90332
3927,96247;1,89886
3925,91132;1,89333
3923,86016;1,88864
3921,80901;1,88503
3919,75785;1,87993
3917,7067;1,87256
3915,65554;1,86513
3913,60439;1,85907
3911,55323;1,8539
3909,50207;1,85131
3907,45092;1,85247
3905,39976;1,85448
3903,34861;1,85358
3901,29745;1,84805
3899,2463;1,84123
3897,19514;1,83901
3895,14399;1,83914
3893,09283;1,83661
3891,04168;1,83355
3888,99052;1,83417
3886,93937;1,83422
3884,88821;1,83307
3882,83706;1,8312
3880,7859;1,82645
3878,73474;1,82477
3876,68359;1,82673
3874,63243;1,82844
3872,58128;1,82985
3870,53012;1,82836
3868,47897;1,82701
3866,42781;1,82554
3864,37666;1,82151
3862,3255;1,8186
3860,27435;1,81942
3858,22319;1,82281
3856,17204;1,82246
3854,12088;1,81571
3852,06973;1,81256
3850,01857;1,81521
3847,96741;1,81787
3845,91626;1,81884
3843,8651;1,81849
3841,81395;1,81812
3839,76279;1,81696
3837,71164;1,81736
3835,66048;1,82128
3833,60933;1,82311
3831,55817;1,82193
3829,50702;1,82201
3827,45586;1,82182
3825,40471;1,82088
3823,35355;1,81877
3821,3024;1,81675
3819,25124;1,81969
3817,20008;1,82017
3815,14893;1,81806
3813,09777;1,81912
3811,04662;1,82074
3808,99546;1,82033
3806,94431;1,82027
3804,89315;1,82528
3802,842;1,82931
3800,79084;1,83136
3798,73969;1,83321
3796,68853;1,83086
3794,63738;1,82804
3792,58622;1,82773
3790,53506;1,82977
3788,48391;1,83309
3786,43275;1,83554
3784,3816;1,83744
3782,33044;1,83971
3780,27929;1,83996
3778,22813;1,83846
3776,17698;1,83657
3774,12582;1,83553
3772,07467;1,83684
3770,02351;1,84026
3767,97236;1,84531
3765,9212;1,84863
3763,87005;1,84936
3761,81889;1,84766
3759,76773;1,84641
3757,71658;1,84924
3755,66542;1,85289
3753,61427;1,85332
3751,56311;1,85252
3749,51196;1,85633
3747,4608;1,86386
3745,40965;1,86623
3743,35849;1,8687
3741,30734;1,87564
3739,25618;1,87989
3737,20503;1,88084
3735,15387;1,88079
3733,10272;1,87926
3731,05156;1,87922
3729,0004;1,88397
3726,94925;1,89152
3724,89809;1,89996
3722,84694;1,90564
3720,79578;1,90865
3718,74463;1,9123
3716,69347;1,91922
3714,64232;1,92855
3712,59116;1,93762
3710,54001;1,94684
3708,48885;1,95741
3706,4377;1,97017
3704,38654;1,98658
3702,33539;2,00957
3700,28423;2,04077
3698,23307;2,07304
3696,18192;2,09853
3694,13076;2,11522
3692,07961;2,12204
3690,02845;2,11727
3687,9773;2,10578
3685,92614;2,09893
3683,87499;2,10004
3681,82383;2,10915
3679,77268;2,12386
3677,72152;2,13891
3675,67037;2,15285
3673,61921;2,17062
3671,56806;2,18833
3669,5169;2,20512
3667,46574;2,22247
3665,41459;2,23726
3663,36343;2,25033
3661,31228;2,26442
3659,26112;2,28221
3657,20997;2,30471
3655,15881;2,33001
3653,10766;2,34938
3651,0565;2,36379
3649,00535;2,38987
3646,95419;2,42622
3644,90304;2,45512
3642,85188;2,47158
3640,80073;2,47856
3638,74957;2,47908
3636,69841;2,48168
3634,64726;2,49225
3632,5961;2,50354
3630,54495;2,50279
3628,49379;2,49686
3626,44264;2,5044
3624,39148;2,52289
3622,34033;2,54223
3620,28917;2,55322
3618,23802;2,5581
3616,18686;2,56956
3614,13571;2,58749
3612,08455;2,60255
3610,0334;2,61023
3607,98224;2,61606
3605,93108;2,63082
3603,87993;2,65118
3601,82877;2,66176
3599,77762;2,65943
3597,72646;2,6558
3595,67531;2,65495
3593,62415;2,65629
3591,573;2,66657
3589,52184;2,67999
3587,47069;2,68192
3585,41953;2,67562
3583,36838;2,67178
3581,31722;2,67543
3579,26607;2,68707
3577,21491;2,69754
3575,16375;2,69796
3573,1126;2,6937
3571,06144;2,69665
3569,01029;2,71213
3566,95913;2,73481
3564,90798;2,75608
3562,85682;2,77243
3560,80567;2,77878
3558,75451;2,77039
3556,70336;2,75136
3554,6522;2,73132
3552,60105;2,71759
3550,54989;2,71701
3548,49874;2,73158
3546,44758;2,74034
3544,39642;2,72744
3542,34527;2,71715
3540,29411;2,72681
3538,24296;2,74166
3536,1918;2,74551
3534,14065;2,74245
3532,08949;2,74798
3530,03834;2,76164
3527,98718;2,76434
3525,93603;2,75171
3523,88487;2,74121
3521,83372;2,74229
3519,78256;2,74235
3517,73141;2,73097
3515,68025;2,71463
3513,62909;2,70246
3511,57794;2,70066
3509,52678;2,71416
3507,47563;2,73572
3505,42447;2,74335
3503,37332;2,73549
3501,32216;2,73011
3499,27101;2,73125
3497,21985;2,73865
3495,1687;2,75436
3493,11754;2,76596
3491,06639;2,75952
3489,01523;2,74042
3486,96407;2,7256
3484,91292;2,7255
3482,86176;2,73253
3480,81061;2,73364
3478,75945;2,73427
3476,7083;2,73986
3474,65714;2,7395
3472,60599;2,73369
3470,55483;2,73649
3468,50368;2,74565
3466,45252;2,74781
3464,40137;2,74388
3462,35021;2,73845
3460,29906;2,72719
3458,2479;2,71855
3456,19674;2,72233
3454,14559;2,73044
3452,09443;2,74339
3450,04328;2,75435
3447,99212;2,74558
3445,94097;2,72876
3443,88981;2,72117
3441,83866;2,72673
3439,7875;2,74579
3437,73635;2,75621
3435,68519;2,74786
3433,63404;2,73903
3431,58288;2,73808
3429,53173;2,73843
3427,48057;2,73823
3425,42941;2,74066
3423,37826;2,73436
3421,3271;2,72532
3419,27595;2,73433
3417,22479;2,7456
3415,17364;2,74387
3413,12248;2,74095
3411,07133;2,74186
3409,02017;2,73803
3406,96902;2,73774
3404,91786;2,74546
3402,86671;2,74732
3400,81555;2,74874
3398,7644;2,76047
3396,71324;2,77105
3394,66208;2,76586
3392,61093;2,75526
3390,55977;2,76078
3388,50862;2,77311
3386,45746;2,76684
3384,40631;2,75187
3382,35515;2,74697
3380,304;2,74405
3378,25284;2,73614
3376,20169;2,73198
3374,15053;2,73213
3372,09938;2,72723
3370,04822;2,72544
3367,99707;2,73889
3365,94591;2,75328
3363,89475;2,75719
3361,8436;2,75797
3359,79244;2,75696
3357,74129;2,75335
3355,69013;2,75111
3353,63898;2,74795
3351,58782;2,7457
3349,53667;2,75092
3347,48551;2,75833
3345,43436;2,75939
3343,3832;2,74955
3341,33205;2,7362
3339,28089;2,74031
3337,22974;2,75562
3335,17858;2,75376
3333,12742;2,74093
3331,07627;2,74062
3329,02511;2,75476
3326,97396;2,76796
3324,9228;2,76729
3322,87165;2,75658
3320,82049;2,7435
3318,76934;2,73444
3316,71818;2,73883
3314,66703;2,74925
3312,61587;2,75245
3310,56472;2,752
3308,51356;2,74896
3306,46241;2,74294
3304,41125;2,74417
3302,36009;2,75384
3300,30894;2,75882
3298,25778;2,75096
3296,20663;2,73809
3294,15547;2,72987
3292,10432;2,7248
3290,05316;2,72216
3288,00201;2,72117
3285,95085;2,71741
3283,8997;2,71409
3281,84854;2,71887
3279,79739;2,72998
3277,74623;2,73584
3275,69508;2,72558
3273,64392;2,709
3271,59276;2,71092
3269,54161;2,72721
3267,49045;2,72988
3265,4393;2,71675
3263,38814;2,7126
3261,33699;2,73002
3259,28583;2,74831
3257,23468;2,74455
3255,18352;2,72783
3253,13237;2,7162
3251,08121;2,71343
3249,03006;2,71314
3246,9789;2,71154
3244,92775;2,70874
3242,87659;2,70587
3240,82543;2,70662
3238,77428;2,70816
3236,72312;2,70458
3234,67197;2,70124
3232,62081;2,70141
3230,56966;2,70227
3228,5185;2,70176
3226,46735;2,69861
3224,41619;2,7031
3222,36504;2,72063
3220,31388;2,72843
3218,26273;2,71671
3216,21157;2,7082
3214,16041;2,70846
3212,10926;2,70471
3210,0581;2,69483
3208,00695;2,68726
3205,95579;2,68723
3203,90464;2,69111
3201,85348;2,69714
3199,80233;2,70208
3197,75117;2,69625
3195,70002;2,68657
3193,64886;2,68954
3191,59771;2,70183
3189,54655;2,71257
3187,4954;2,72134
3185,44424;2,72194
3183,39308;2,70767
3181,34193;2,69115
3179,29077;2,68311
3177,23962;2,67917
3175,18846;2,67414
3173,13731;2,67303
3171,08615;2,67977
3169,035;2,68474
3166,98384;2,68036
3164,93269;2,67476
3162,88153;2,67419
3160,83038;2,67091
3158,77922;2,66681
3156,72807;2,67085
3154,67691;2,67656
3152,62575;2,67783
3150,5746;2,67833
3148,52344;2,68192
3146,47229;2,68697
3144,42113;2,68303
3142,36998;2,66711
3140,31882;2,65368
3138,26767;2,65052
3136,21651;2,65241
3134,16536;2,65509
3132,1142;2,65281
3130,06305;2,64702
3128,01189;2,64811
3125,96074;2,65651
3123,90958;2,66486
3121,85842;2,66888
3119,80727;2,67082
3117,75611;2,67523
3115,70496;2,67839
3113,6538;2,67552
3111,60265;2,66853
3109,55149;2,6592
3107,50034;2,65844
3105,44918;2,6722
3103,39803;2,68132
3101,34687;2,6759
3099,29572;2,66734
3097,24456;2,65997
3095,19341;2,65539
3093,14225;2,65799
3091,09109;2,66538
3089,03994;2,66492
3086,98878;2,65336
3084,93763;2,64276
3082,88647;2,63955
3080,83532;2,64489
3078,78416;2,6579
3076,73301;2,67039
3074,68185;2,66945
3072,6307;2,65551
3070,57954;2,64776
3068,52839;2,65429
3066,47723;2,66161
3064,42608;2,65867
3062,37492;2,65214
3060,32376;2,64748
3058,27261;2,64039
3056,22145;2,6382
3054,1703;2,64703
3052,11914;2,65406
3050,06799;2,65246
3048,01683;2,647
3045,96568;2,64146
3043,91452;2,63849
3041,86337;2,63941
3039,81221;2,6453
3037,76106;2,65282
3035,7099;2,65535
3033,65875;2,65093
3031,60759;2,64524
3029,55643;2,64556
3027,50528;2,65042
3025,45412;2,65245
3023,40297;2,64811
3021,35181;2,64775
3019,30066;2,65864
3017,2495;2,66585
3015,19835;2,66556
3013,14719;2,66926
3011,09604;2,67692
3009,04488;2,68758
3006,99373;2,69618
3004,94257;2,68841
3002,89142;2,67139
3000,84026;2,67006
2998,7891;2,68359
2996,73795;2,6875
2994,68679;2,6796
2992,63564;2,68145
2990,58448;2,69835
2988,53333;2,7189
2986,48217;2,73046
2984,43102;2,73005
2982,37986;2,73114
2980,32871;2,74079
2978,27755;2,75442
2976,2264;2,76069
2974,17524;2,75304
2972,12409;2,75176
2970,07293;2,76265
2968,02177;2,76456
2965,97062;2,76084
2963,91946;2,76308
2961,86831;2,76416
2959,81715;2,75805
2957,766;2,74917
2955,71484;2,74252
2953,66369;2,7335
2951,61253;2,72273
2949,56138;2,72486
2947,51022;2,74313
2945,45907;2,7598
2943,40791;2,76583
2941,35675;2,76824
2939,3056;2,76706
2937,25444;2,7634
2935,20329;2,77133
2933,15213;2,78684
2931,10098;2,77987
2929,04982;2,74679
2926,99867;2,71834
2924,94751;2,71253
2922,89636;2,71482
2920,8452;2,70711
2918,79405;2,69797
2916,74289;2,69482
2914,69174;2,69025
2912,64058;2,67989
2910,58942;2,67302
2908,53827;2,67691
2906,48711;2,68566
2904,43596;2,68654
2902,3848;2,67874
2900,33365;2,67534
2898,28249;2,67418
2896,23134;2,66864
2894,18018;2,66572
2892,12903;2,67193
2890,07787;2,68017
2888,02672;2,68016
2885,97556;2,6801
2883,92441;2,69244
2881,87325;2,70723
2879,82209;2,71142
2877,77094;2,71442
2875,71978;2,71843
2873,66863;2,71133
2871,61747;2,69794
2869,56632;2,688
2867,51516;2,68675
2865,46401;2,69846
2863,41285;2,71231
2861,3617;2,71545
2859,31054;2,71301
2857,25939;2,70537
2855,20823;2,68972
2853,15708;2,67594
2851,10592;2,66666
2849,05476;2,66226
2847,00361;2,66343
2844,95245;2,65995
2842,9013;2,64933
2840,85014;2,63796
2838,79899;2,6307
2836,74783;2,62906
2834,69668;2,62576
2832,64552;2,61676
2830,59437;2,6065
2828,54321;2,59486
2826,49206;2,58023
2824,4409;2,56572
2822,38975;2,55708
2820,33859;2,55409
2818,28743;2,54699
2816,23628;2,53526
2814,18512;2,52611
2812,13397;2,52082
2810,08281;2,51858
2808,03166;2,51529
2805,9805;2,50784
2803,92935;2,49996
2801,87819;2,49456
2799,82704;2,49096
2797,77588;2,48881
2795,72473;2,48644
2793,67357;2,48315
2791,62242;2,4796
2789,57126;2,47454
2787,5201;2,46775
2785,46895;2,46136
2783,41779;2,45682
2781,36664;2,4524
2779,31548;2,44964
2777,26433;2,4519
2775,21317;2,45332
2773,16202;2,44732
2771,11086;2,43856
2769,05971;2,43366
2767,00855;2,43116
2764,9574;2,42682
2762,90624;2,4225
2760,85509;2,422
2758,80393;2,42312
2756,75277;2,42254
2754,70162;2,42019
2752,65046;2,41689
2750,59931;2,41524
2748,54815;2,41401
2746,497;2,41045
2744,44584;2,40865
2742,39469;2,4086
2740,34353;2,40582
2738,29238;2,40153
2736,24122;2,39671
2734,19007;2,39274
2732,13891;2,3931
2730,08776;2,39762
2728,0366;2,40067
2725,98544;2,39602
2723,93429;2,38786
2721,88313;2,38438
2719,83198;2,38473
2717,78082;2,38372
2715,72967;2,38098
2713,67851;2,37963
2711,62736;2,37894
2709,5762;2,37615
2707,52505;2,37265
2705,47389;2,36986
2703,42274;2,36904
2701,37158;2,37016
2699,32043;2,36992
2697,26927;2,36991
2695,21811;2,37115
2693,16696;2,37061
2691,1158;2,37037
2689,06465;2,37217
2687,01349;2,37268
2684,96234;2,37017
2682,91118;2,3679
2680,86003;2,36788
2678,80887;2,36915
2676,75772;2,37106
2674,70656;2,37148
2672,65541;2,37051
2670,60425;2,37073
2668,55309;2,37186
2666,50194;2,37103
2664,45078;2,3674
2662,39963;2,36387
2660,34847;2,36332
2658,29732;2,36711
2656,24616;2,37058
2654,19501;2,36888
2652,14385;2,36703
2650,0927;2,36743
2648,04154;2,3681
2645,99039;2,37045
2643,93923;2,37465
2641,88808;2,38034
2639,83692;2,38731
2637,78576;2,39277
2635,73461;2,39671
2633,68345;2,4039
2631,6323;2,41463
2629,58114;2,42162
2627,52999;2,42524
2625,47883;2,4318
2623,42768;2,43948
2621,37652;2,44451
2619,32537;2,44818
2617,27421;2,45343
2615,22306;2,45799
2613,1719;2,4617
2611,12075;2,46906
2609,06959;2,4755
2607,01843;2,47901
2604,96728;2,48362
2602,91612;2,48786
2600,86497;2,49308
2598,81381;2,49823
2596,76266;2,49669
2594,7115;2,49304
2592,66035;2,49579
2590,60919;2,50046
2588,55804;2,50102
2586,50688;2,50319
2584,45573;2,50457
2582,40457;2,49758
2580,35342;2,49034
2578,30226;2,48984
2576,2511;2,49224
2574,19995;2,49498
2572,14879;2,49714
2570,09764;2,49749
2568,04648;2,49757
2565,99533;2,49927
2563,94417;2,50217
2561,89302;2,50482
2559,84186;2,50656
2557,79071;2,50953
2555,73955;2,51635
2553,6884;2,52232
2551,63724;2,52067
2549,58609;2,51392
2547,53493;2,51067
2545,48377;2,51401
2543,43262;2,51772
2541,38146;2,51979
2539,33031;2,52343
2537,27915;2,52807
2535,228;2,53593
2533,17684;2,54868
2531,12569;2,56258
2529,07453;2,57174
2527,02338;2,57469
2524,97222;2,57829
2522,92107;2,58858
2520,86991;2,6
2518,81876;2,6047
2516,7676;2,60443
2514,71644;2,60545
2512,66529;2,60633
2510,61413;2,60301
2508,56298;2,59887
2506,51182;2,59567
2504,46067;2,59122
2502,40951;2,58354
2500,35836;2,5727
2498,3072;2,5601
2496,25605;2,54546
2494,20489;2,52934
2492,15374;2,51352
2490,10258;2,50034
2488,05143;2,49017
2486,00027;2,4809
2483,94911;2,47065
2481,89796;2,45956
2479,8468;2,44968
2477,79565;2,43958
2475,74449;2,4262
2473,69334;2,41224
2471,64218;2,40043
2469,59103;2,38902
2467,53987;2,37777
2465,48872;2,36812
2463,43756;2,35952
2461,38641;2,35128
2459,33525;2,34532
2457,2841;2,34135
2455,23294;2,33624
2453,18178;2,3286
2451,13063;2,31971
2449,07947;2,3129
2447,02832;2,30828
2444,97716;2,30268
2442,92601;2,29751
2440,87485;2,29567
2438,8237;2,2954
2436,77254;2,29385
2434,72139;2,28934
2432,67023;2,28386
2430,61908;2,28046
2428,56792;2,27782
2426,51677;2,27587
2424,46561;2,27459
2422,41445;2,27143
2420,3633;2,26624
2418,31214;2,25922
2416,26099;2,25258
2414,20983;2,25023
2412,15868;2,24929
2410,10752;2,2464
2408,05637;2,24434
2406,00521;2,24492
2403,95406;2,24587
2401,9029;2,24503
2399,85175;2,24352
2397,80059;2,24282
2395,74944;2,24201
2393,69828;2,23915
2391,64712;2,23462
2389,59597;2,23076
2387,54481;2,22854
2385,49366;2,22734
2383,4425;2,22705
2381,39135;2,2285
2379,34019;2,23148
2377,28904;2,2341
2375,23788;2,23557
2373,18673;2,23561
2371,13557;2,23259
2369,08442;2,22963
2367,03326;2,23242
2364,9821;2,23766
2362,93095;2,23851
2360,87979;2,23484
2358,82864;2,22883
2356,77748;2,22154
2354,72633;2,21694
2352,67517;2,22058
2350,62402;2,22933
2348,57286;2,23276
2346,52171;2,23104
2344,47055;2,23276
2342,4194;2,23522
2340,36824;2,23204
2338,31709;2,22786
2336,26593;2,22614
2334,21477;2,2251
2332,16362;2,22451
2330,11246;2,22719
2328,06131;2,23406
2326,01015;2,24006
2323,959;2,24009
2321,90784;2,23569
2319,85669;2,23147
2317,80553;2,22931
2315,75438;2,22997
2313,70322;2,23273
2311,65207;2,23365
2309,60091;2,23142
2307,54976;2,22917
2305,4986;2,22822
2303,44744;2,22787
2301,39629;2,22872
2299,34513;2,23011
2297,29398;2,22914
2295,24282;2,2254
2293,19167;2,22273
2291,14051;2,22336
2289,08936;2,22482
2287,0382;2,22452
2284,98705;2,2236
2282,93589;2,22435
2280,88474;2,22526
2278,83358;2,22414
2276,78243;2,22307
2274,73127;2,22345
2272,68011;2,22322
2270,62896;2,22309
2268,5778;2,22596
2266,52665;2,22994
2264,47549;2,23113
2262,42434;2,23076
2260,37318;2,2313
2258,32203;2,23116
2256,27087;2,2303
2254,21972;2,23093
2252,16856;2,23273
2250,11741;2,23516
2248,06625;2,23924
2246,0151;2,24432
2243,96394;2,24805
2241,91278;2,24833
2239,86163;2,24556
2237,81047;2,24374
2235,75932;2,2455
2233,70816;2,2491
2231,65701;2,25202
2229,60585;2,25367
2227,5547;2,25372
2225,50354;2,25347
2223,45239;2,25596
2221,40123;2,2598
2219,35008;2,2616
2217,29892;2,26275
2215,24777;2,26573
2213,19661;2,26896
2211,14545;2,26975
2209,0943;2,26907
2207,04314;2,27052
2204,99199;2,27433
2202,94083;2,27733
2200,88968;2,27701
2198,83852;2,27468
2196,78737;2,27541
2194,73621;2,28007
2192,68506;2,28331
2190,6339;2,28165
2188,58275;2,27788
2186,53159;2,27718
2184,48044;2,28101
2182,42928;2,28606
2180,37812;2,29087
2178,32697;2,294
2176,27581;2,29238
2174,22466;2,2888
2172,1735;2,28848
2170,12235;2,29287
2168,07119;2,2992
2166,02004;2,3059
2163,96888;2,31421
2161,91773;2,3201
2159,86657;2,32203
2157,81542;2,32654
2155,76426;2,335
2153,71311;2,34419
2151,66195;2,3517
2149,61079;2,35672
2147,55964;2,36058
2145,50848;2,36156
2143,45733;2,36226
2141,40617;2,36768
2139,35502;2,37116
2137,30386;2,36853
2135,25271;2,36566
2133,20155;2,36284
2131,1504;2,35818
2129,09924;2,35318
2127,04809;2,34685
2124,99693;2,33927
2122,94578;2,33339
2120,89462;2,32683
2118,84346;2,31666
2116,79231;2,30774
2114,74115;2,30293
2112,69;2,2997
2110,63884;2,29733
2108,58769;2,29656
2106,53653;2,29478
2104,48538;2,29082
2102,43422;2,28787
2100,38307;2,28763
2098,33191;2,29054
2096,28076;2,29343
2094,2296;2,2934
2092,17844;2,29374
2090,12729;2,29658
2088,07613;2,2988
2086,02498;2,29814
2083,97382;2,29669
2081,92267;2,29678
2079,87151;2,29764
2077,82036;2,29772
2075,7692;2,29689
2073,71805;2,29646
2071,66689;2,29853
2069,61574;2,30171
2067,56458;2,30164
2065,51343;2,29965
2063,46227;2,30061
2061,41111;2,30331
2059,35996;2,30448
2057,3088;2,30434
2055,25765;2,30388
2053,20649;2,30355
2051,15534;2,30335
2049,10418;2,30413
2047,05303;2,30676
2045,00187;2,31025
2042,95072;2,31315
2040,89956;2,31517
2038,84841;2,31618
2036,79725;2,31545
2034,7461;2,31321
2032,69494;2,31237
2030,64378;2,31463
2028,59263;2,31681
2026,54147;2,31794
2024,49032;2,31947
2022,43916;2,32063
2020,38801;2,32089
2018,33685;2,32046
2016,2857;2,31998
2014,23454;2,31882
2012,18339;2,31757
2010,13223;2,31981
2008,08108;2,32424
2006,02992;2,32584
2003,97877;2,3253
2001,92761;2,32557
1999,87645;2,32627
1997,8253;2,32581
1995,77414;2,32461
1993,72299;2,32448
1991,67183;2,32648
1989,62068;2,33029
1987,56952;2,33386
1985,51837;2,33607
1983,46721;2,33672
1981,41606;2,33635
1979,3649;2,33558
1977,31375;2,33651
1975,26259;2,3402
1973,21144;2,3434
1971,16028;2,34376
1969,10912;2,34374
1967,05797;2,34932
1965,00681;2,36229
1962,95566;2,37339
1960,9045;2,3759
1958,85335;2,37272
1956,80219;2,36644
1954,75104;2,3598
1952,69988;2,35687
1950,64873;2,35723
1948,59757;2,35951
1946,54642;2,36313
1944,49526;2,36476
1942,44411;2,36304
1940,39295;2,36155
1938,34179;2,36161
1936,29064;2,36439
1934,23948;2,36912
1932,18833;2,37079
1930,13717;2,36779
1928,08602;2,36571
1926,03486;2,36765
1923,98371;2,37045
1921,93255;2,37414
1919,8814;2,37665
1917,83024;2,37611
1915,77909;2,37798
1913,72793;2,38265
1911,67678;2,3863
1909,62562;2,38767
1907,57446;2,38867
1905,52331;2,39028
1903,47215;2,39348
1901,421;2,39801
1899,36984;2,40128
1897,31869;2,40345
1895,26753;2,40654
1893,21638;2,41107
1891,16522;2,41582
1889,11407;2,41943
1887,06291;2,42142
1885,01176;2,4235
1882,9606;2,42766
1880,90945;2,43128
1878,85829;2,43241
1876,80713;2,43416
1874,75598;2,43855
1872,70482;2,44374
1870,65367;2,44698
1868,60251;2,44837
1866,55136;2,45156
1864,5002;2,4564
1862,44905;2,45842
1860,39789;2,45837
1858,34674;2,46171
1856,29558;2,46834
1854,24443;2,47488
1852,19327;2,48112
1850,14212;2,48709
1848,09096;2,49249
1846,0398;2,49834
1843,98865;2,50646
1841,93749;2,51704
1839,88634;2,52478
1837,83518;2,52802
1835,78403;2,52958
1833,73287;2,53124
1831,68172;2,5347
1829,63056;2,54449
1827,57941;2,56017
1825,52825;2,57234
1823,4771;2,57867
1821,42594;2,58394
1819,37478;2,59163
1817,32363;2,60121
1815,27247;2,61186
1813,22132;2,62373
1811,17016;2,6376
1809,11901;2,65287
1807,06785;2,66728
1805,0167;2,68366
1802,96554;2,70301
1800,91439;2,71884
1798,86323;2,72692
1796,81208;2,73165
1794,76092;2,73858
1792,70977;2,74436
1790,65861;2,74031
1788,60745;2,7271
1786,5563;2,7146
1784,50514;2,70701
1782,45399;2,70034
1780,40283;2,69451
1778,35168;2,69512
1776,30052;2,70161
1774,24937;2,70733
1772,19821;2,7139
1770,14706;2,72906
1768,0959;2,7453
1766,04475;2,75618
1763,99359;2,7637
1761,94244;2,77486
1759,89128;2,7954
1757,84012;2,81805
1755,78897;2,83652
1753,73781;2,84677
1751,68666;2,84691
1749,6355;2,84304
1747,58435;2,8317
1745,53319;2,80991
1743,48204;2,78868
1741,43088;2,77026
1739,37973;2,75215
1737,32857;2,74033
1735,27742;2,72985
1733,22626;2,72135
1731,17511;2,71889
1729,12395;2,71742
1727,07279;2,72123
1725,02164;2,72967
1722,97048;2,73654
1720,91933;2,73954
1718,86817;2,74107
1716,81702;2,74742
1714,76586;2,75361
1712,71471;2,75517
1710,66355;2,75812
1708,6124;2,76327
1706,56124;2,76997
1704,51009;2,78384
1702,45893;2,79795
1700,40778;2,80423
1698,35662;2,8065
1696,30546;2,79987
1694,25431;2,79494
1692,20315;2,79676
1690,152;2,80067
1688,10084;2,81155
1686,04969;2,81846
1683,99853;2,80735
1681,94738;2,80219
1679,89622;2,81334
1677,84507;2,8223
1675,79391;2,81738
1673,74276;2,80874
1671,6916;2,80035
1669,64045;2,7844
1667,58929;2,77048
1665,53813;2,76837
1663,48698;2,77247
1661,43582;2,77625
1659,38467;2,77355
1657,33351;2,76275
1655,28236;2,7412
1653,2312;2,71671
1651,18005;2,71889
1649,12889;2,7309
1647,07774;2,72865
1645,02658;2,72202
1642,97543;2,71945
1640,92427;2,71732
1638,87312;2,71171
1636,82196;2,697
1634,7708;2,6806
1632,71965;2,67506
1630,66849;2,6757
1628,61734;2,67843
1626,56618;2,67763
1624,51503;2,66501
1622,46387;2,6515
1620,41272;2,6528
1618,36156;2,65888
1616,31041;2,6586
1614,25925;2,65648
1612,2081;2,65615
1610,15694;2,65919
1608,10579;2,66543
1606,05463;2,6702
1604,00347;2,67229
1601,95232;2,67421
1599,90116;2,67848
1597,85001;2,68522
1595,79885;2,68794
1593,7477;2,68316
1591,69654;2,67705
1589,64539;2,6762
1587,59423;2,68075
1585,54308;2,68462
1583,49192;2,6837
1581,44077;2,68332
1579,38961;2,68789
1577,33846;2,6915
1575,2873;2,69405
1573,23614;2,69653
1571,18499;2,69135
1569,13383;2,68523
1567,08268;2,68568
1565,03152;2,68615
1562,98037;2,68342
1560,92921;2,67041
1558,87806;2,65444
1556,8269;2,66389
1554,77575;2,68091
1552,72459;2,68288
1550,67344;2,67087
1548,62228;2,65796
1546,57113;2,6529
1544,51997;2,65451
1542,46881;2,65439
1540,41766;2,64219
1538,3665;2,63317
1536,31535;2,63618
1534,26419;2,63796
1532,21304;2,63545
1530,16188;2,62993
1528,11073;2,6234
1526,05957;2,61986
1524,00842;2,61699
1521,95726;2,61115
1519,90611;2,60635
1517,85495;2,59903
1515,80379;2,58816
1513,75264;2,58206
1511,70148;2,58264
1509,65033;2,57907
1507,59917;2,55793
1505,54802;2,53904
1503,49686;2,53958
1501,44571;2,54312
1499,39455;2,54279
1497,3434;2,54156
1495,29224;2,54177
1493,24109;2,54121
1491,18993;2,53731
1489,13878;2,53347
1487,08762;2,53186
1485,03646;2,53549
1482,98531;2,54436
1480,93415;2,5547
1478,883;2,56637
1476,83184;2,58014
1474,78069;2,59587
1472,72953;2,61687
1470,67838;2,64238
1468,62722;2,65409
1466,57607;2,64731
1464,52491;2,64048
1462,47376;2,64301
1460,4226;2,64222
1458,37145;2,63217
1456,32029;2,62548
1454,26913;2,6282
1452,21798;2,62819
1450,16682;2,62185
1448,11567;2,61426
1446,06451;2,61181
1444,01336;2,61321
1441,9622;2,61307
1439,91105;2,60932
1437,85989;2,59982
1435,80874;2,58933
1433,75758;2,58433
1431,70643;2,58163
1429,65527;2,57943
1427,60412;2,57868
1425,55296;2,58106
1423,5018;2,58983
1421,45065;2,60124
1419,39949;2,60494
1417,34834;2,59842
1415,29718;2,58711
1413,24603;2,5771
1411,19487;2,57281
1409,14372;2,57732
1407,09256;2,58605
1405,04141;2,59034
1402,99025;2,59057
1400,9391;2,59006
1398,88794;2,59193
1396,83679;2,6008
1394,78563;2,61572
1392,73447;2,63056
1390,68332;2,63635
1388,63216;2,63263
1386,58101;2,63052
1384,52985;2,6367
1382,4787;2,64543
1380,42754;2,65596
1378,37639;2,67239
1376,32523;2,68645
1374,27408;2,6847
1372,22292;2,67108
1370,17177;2,65929
1368,12061;2,65769
1366,06946;2,66679
1364,0183;2,67857
1361,96714;2,68446
1359,91599;2,68166
1357,86483;2,67165
1355,81368;2,66103
1353,76252;2,65871
1351,71137;2,66258
1349,66021;2,6627
1347,60906;2,66013
1345,5579;2,66185
1343,50675;2,66663
1341,45559;2,6708
1339,40444;2,67546
1337,35328;2,67976
1335,30213;2,68049
1333,25097;2,67888
1331,19981;2,67742
1329,14866;2,67794
1327,0975;2,67969
1325,04635;2,67963
1322,99519;2,67917
1320,94404;2,68302
1318,89288;2,68726
1316,84173;2,68366
1314,79057;2,67804
1312,73942;2,68075
1310,68826;2,6896
1308,63711;2,69642
1306,58595;2,69835
1304,5348;2,69628
1302,48364;2,68897
1300,43248;2,68255
1298,38133;2,68995
1296,33017;2,70617
1294,27902;2,71087
1292,22786;2,6998
1290,17671;2,68694
1288,12555;2,68528
1286,0744;2,69259
1284,02324;2,69714
1281,97209;2,70058
1279,92093;2,70747
1277,86978;2,70907
1275,81862;2,70357
1273,76747;2,70248
1271,71631;2,71124
1269,66515;2,72132
1267,614;2,7239
1265,56284;2,72992
1263,51169;2,74537
1261,46053;2,75117
1259,40938;2,74396
1257,35822;2,73721
1255,30707;2,73303
1253,25591;2,73077
1251,20476;2,73159
1249,1536;2,73328
1247,10245;2,73171
1245,05129;2,72551
1243,00013;2,71975
1240,94898;2,71857
1238,89782;2,71976
1236,84667;2,72048
1234,79551;2,71924
1232,74436;2,71548
1230,6932;2,71497
1228,64205;2,71744
1226,59089;2,71556
1224,53974;2,71157
1222,48858;2,70464
1220,43743;2,69398
1218,38627;2,68827
1216,33512;2,68759
1214,28396;2,68924
1212,2328;2,69335
1210,18165;2,69322
1208,13049;2,68675
1206,07934;2,6803
1204,02818;2,67793
1201,97703;2,68525
1199,92587;2,7014
1197,87472;2,71127
1195,82356;2,71078
1193,77241;2,71182
1191,72125;2,71707
1189,6701;2,72421
1187,61894;2,72949
1185,56779;2,72623
1183,51663;2,72343
1181,46547;2,72956
1179,41432;2,73658
1177,36316;2,73928
1175,31201;2,73471
1173,26085;2,72797
1171,2097;2,73203
1169,15854;2,74152
1167,10739;2,73802
1165,05623;2,72608
1163,00508;2,72234
1160,95392;2,7274
1158,90277;2,73099
1156,85161;2,72982
1154,80046;2,72493
1152,7493;2,7239
1150,69814;2,73269
1148,64699;2,73784
1146,59583;2,73225
1144,54468;2,72832
1142,49352;2,73453
1140,44237;2,74437
1138,39121;2,75195
1136,34006;2,76147
1134,2889;2,76894
1132,23775;2,77071
1130,18659;2,77109
1128,13544;2,77114
1126,08428;2,77716
1124,03313;2,79213
1121,98197;2,80533
1119,93081;2,8032
1117,87966;2,79144
1115,8285;2,78343
1113,77735;2,78025
1111,72619;2,77674
1109,67504;2,77926
1107,62388;2,78898
1105,57273;2,78914
1103,52157;2,77381
1101,47042;2,75866
1099,41926;2,75162
1097,36811;2,7475
1095,31695;2,74327
1093,2658;2,7433
1091,21464;2,74836
1089,16348;2,74604
1087,11233;2,73328
1085,06117;2,72338
1083,01002;2,72427
1080,95886;2,72995
1078,90771;2,72562
1076,85655;2,7108
1074,8054;2,70216
1072,75424;2,70202
1070,70309;2,69762
1068,65193;2,68883
1066,60078;2,68562
1064,54962;2,68755
1062,49847;2,69308
1060,44731;2,70081
1058,39615;2,70229
1056,345;2,69907
1054,29384;2,69474
1052,24269;2,68943
1050,19153;2,68542
1048,14038;2,68468
1046,08922;2,68802
1044,03807;2,68784
1041,98691;2,67905
1039,93576;2,66953
1037,8846;2,66891
1035,83345;2,67201
1033,78229;2,66985
1031,73114;2,66618
1029,67998;2,6624
1027,62882;2,6556
1025,57767;2,64445
1023,52651;2,63421
1021,47536;2,63303
1019,4242;2,63808
1017,37305;2,63802
1015,32189;2,63482
1013,27074;2,63667
1011,21958;2,63717
1009,16843;2,63017
1007,11727;2,62318
1005,06612;2,62058
1003,01496;2,61671
1000,96381;2,61007
998,91265;2,60563
996,86149;2,60326
994,81034;2,60031
992,75918;2,59149
990,70803;2,57361
988,65687;2,55347
986,60572;2,5335
984,55456;2,51751
982,50341;2,51079
980,45225;2,50786
978,4011;2,49862
976,34994;2,48315
974,29879;2,4726
972,24763;2,46612
970,19647;2,45722
968,14532;2,45213
966,09416;2,45217
964,04301;2,4442
961,99185;2,42292
959,9407;2,3998
957,88954;2,38008
955,83839;2,35955
953,78723;2,34422
951,73608;2,34276
949,68492;2,35184
947,63377;2,36489
945,58261;2,37836
943,53146;2,38984
941,4803;2,39822
939,42914;2,40693
937,37799;2,41935
935,32683;2,43278
933,27568;2,44267
931,22452;2,44796
929,17337;2,45281
927,12221;2,45696
925,07106;2,45925
923,0199;2,46478
920,96875;2,47363
918,91759;2,47421
916,86644;2,46394
914,81528;2,45868
912,76413;2,46413
910,71297;2,47359
908,66181;2,48332
906,61066;2,49225
904,5595;2,49645
902,50835;2,49731
900,45719;2,50099
898,40604;2,50174
896,35488;2,4946
894,30373;2,48888
892,25257;2,48971
890,20142;2,48674
888,15026;2,47601
886,09911;2,46923
884,04795;2,47782
881,9968;2,4995
879,94564;2,51677
877,89448;2,52438
875,84333;2,52921
873,79217;2,5309
871,74102;2,53633
869,68986;2,54177
867,63871;2,53988
865,58755;2,54459
863,5364;2,55585
861,48524;2,55773
859,43409;2,54983
857,38293;2,5454
855,33178;2,54846
853,28062;2,55097
851,22947;2,55827
849,17831;2,5728
847,12715;2,57901
845,076;2,58009
843,02484;2,58373
840,97369;2,57796
838,92253;2,57083
836,87138;2,57701
834,82022;2,58598
832,76907;2,58918
830,71791;2,58494
828,66676;2,57306
826,6156;2,56025
824,56445;2,55301
822,51329;2,56088
820,46214;2,5792
818,41098;2,58667
816,35982;2,58186
814,30867;2,58652
812,25751;2,59809
810,20636;2,60137
808,1552;2,60528
806,10405;2,61531
804,05289;2,61685
802,00174;2,60442
799,95058;2,59236
797,89943;2,58805
795,84827;2,587
793,79712;2,58752
791,74596;2,59058
789,69481;2,59321
787,64365;2,5898
785,59249;2,58284
783,54134;2,57656
781,49018;2,5753
779,43903;2,582
777,38787;2,59577
775,33672;2,60544
773,28556;2,60471
771,23441;2,6023
769,18325;2,60134
767,1321;2,60345
765,08094;2,59957
763,02979;2,58991
760,97863;2,58978
758,92748;2,59834
756,87632;2,60562
754,82516;2,60595
752,77401;2,60911
750,72285;2,61907
748,6717;2,62314
746,62054;2,61368
744,56939;2,59425
742,51823;2,5842
740,46708;2,58837
738,41592;2,59548
736,36477;2,61536
734,31361;2,64106
732,26246;2,6438
730,2113;2,63051
728,16015;2,6178
726,10899;2,60341
724,05783;2,59931
722,00668;2,61133
719,95552;2,63052
717,90437;2,64514
715,85321;2,64606
713,80206;2,63678
711,7509;2,63257
709,69975;2,63768
707,64859;2,65077
705,59744;2,65942
703,54628;2,64647
701,49513;2,62573
699,44397;2,62671
697,39281;2,65354
695,34166;2,68295
693,2905;2,69132
691,23935;2,67966
689,18819;2,6636
687,13704;2,64996
685,08588;2,63834
683,03473;2,63283
680,98357;2,63754
678,93242;2,64705
676,88126;2,64772
674,83011;2,63672
672,77895;2,6287
670,7278;2,63302
668,67664;2,6344
666,62548;2,61588
664,57433;2,59963
662,52317;2,59541
660,47202;2,59635
658,42086;2,60411
656,36971;2,62216
654,31855;2,63896
652,2674;2,64059
650,21624;2,63405
648,16509;2,63638
646,11393;2,6433
644,06278;2,64414
642,01162;2,63581
639,96047;2,61995
637,90931;2,59644
635,85815;2,57919
633,807;2,58668
631,75584;2,61161
629,70469;2,62988
627,65353;2,62769
625,60238;2,61629
623,55122;2,61216
621,50007;2,61454
619,44891;2,60716
617,39776;2,60141
615,3466;2,62549
613,29545;2,66029
611,24429;2,66737
609,19314;2,65696
607,14198;2,65845
605,09082;2,66572
603,03967;2,67111
600,98851;2,68764
598,93736;2,70635
596,8862;2,68518
594,83505;2,65204
592,78389;2,65043
590,73274;2,66814
588,68158;2,68487
586,63043;2,71152
584,57927;2,7265
582,52812;2,6902
580,47696;2,63994
578,42581;2,62922
576,37465;2,6572
574,32349;2,68631
572,27234;2,68802
570,22118;2,68854
568,17003;2,70574
566,11887;2,71189
564,06772;2,70485
562,01656;2,69849
559,96541;2,6914
557,91425;2,69609
555,8631;2,72791
553,81194;2,75056
551,76079;2,73626
549,70963;2,71851
547,65848;2,72068
545,60732;2,72911
543,55616;2,73866
541,50501;2,73119
539,45385;2,68707
537,4027;2,63441
535,35154;2,63402
533,30039;2,6745
531,24923;2,67384
529,19808;2,62546
527,14692;2,59805
525,09577;2,62891
523,04461;2,69436
520,99346;2,71996
518,9423;2,68344
516,89115;2,63909
514,83999;2,61673
512,78883;2,61891
510,73768;2,6444
508,68652;2,66202
506,63537;2,63907
504,58421;2,58113
502,53306;2,52836
500,4819;2,50398
498,43075;2,47971
496,37959;2,44188
494,32844;2,41383
492,27728;2,40418
490,22613;2,4079
488,17497;2,42254
486,12382;2,4374
484,07266;2,45849
482,0215;2,48634
479,97035;2,49306
477,91919;2,48219
475,86804;2,47328
473,81688;2,45679
471,76573;2,42176
469,71457;2,38419
467,66342;2,36755
465,61226;2,3757
463,56111;2,3919
461,50995;2,40192
459,4588;2,40105
457,40764;2,39298
455,35649;2,38331
453,30533;2,36332
451,25417;2,33656
449,20302;2,33092
447,15186;2,3456
445,10071;2,35014
443,04955;2,32387
440,9984;2,27889
438,94724;2,24654
436,89609;2,24401
434,84493;2,26189
432,79378;2,27224
430,74262;2,26349
428,69147;2,26504
426,64031;2,29906
424,58916;2,34321
422,538;2,3503
420,48684;2,31339
418,43569;2,27874
416,38453;2,27315
414,33338;2,2859
412,28222;2,30391
410,23107;2,31824
408,17991;2,32961
406,12876;2,35474
404,0776;2,39182
402,02645;2,38201
399,97529;2,2894
