3997,70175;1,94701
3995,6506;1,94845
3993,59944;1,9497
3991,54829;1,95094
3989,49713;1,95151
3987,44598;1,95191
3985,39482;1,95235
3983,34367;1,95267
3981,29251;1,95344
3979,24136;1,95449
3977,1902;1,95527
3975,13905;1,95591
3973,08789;1,95636
3971,03673;1,9573
3968,98558;1,9592
3966,93442;1,96175
3964,88327;1,96451
3962,83211;1,96714
3960,78096;1,97011
3958,7298;1,97312
3956,67865;1,97673
3954,62749;1,98224
3952,57634;1,98779
3950,52518;1,98916
3948,47403;1,98627
3946,42287;1,98427
3944,37172;1,98352
3942,32056;1,98287
3940,2694;1,98246
3938,21825;1,98124
3936,16709;1,98151
3934,11594;1,98229
3932,06478;1,97974
3930,01363;1,97425
3927,96247;1,96779
3925,91132;1,96016
3923,86016;1,95349
3921,80901;1,94894
3919,75785;1,94361
3917,7067;1,93645
3915,65554;1,92996
3913,60439;1,92497
3911,55323;1,92027
3909,50207;1,91771
3907,45092;1,9172
3905,39976;1,91591
3903,34861;1,91426
3901,29745;1,91112
3899,2463;1,90531
3897,19514;1,90283
3895,14399;1,90282
3893,09283;1,89877
3891,04168;1,89325
3888,99052;1,89234
3886,93937;1,8906
3884,88821;1,89059
3882,83706;1,89406
3880,7859;1,89454
3878,73474;1,89616
3876,68359;1,89783
3874,63243;1,89803
3872,58128;1,8997
3870,53012;1,89681
3868,47897;1,89355
3866,42781;1,89155
3864,37666;1,88871
3862,3255;1,88778
3860,27435;1,88698
3858,22319;1,88674
3856,17204;1,88598
3854,12088;1,88349
3852,06973;1,88424
3850,01857;1,88487
3847,96741;1,88284
3845,91626;1,88164
3843,8651;1,8833
3841,81395;1,8875
3839,76279;1,88771
3837,71164;1,88392
3835,66048;1,88383
3833,60933;1,88486
3831,55817;1,88385
3829,50702;1,88443
3827,45586;1,88578
3825,40471;1,8886
3823,35355;1,89083
3821,3024;1,89308
3819,25124;1,90066
3817,20008;1,90054
3815,14893;1,89365
3813,09777;1,89033
3811,04662;1,88942
3808,99546;1,88885
3806,94431;1,88956
3804,89315;1,89389
3802,842;1,8935
3800,79084;1,89395
3798,73969;1,8987
3796,68853;1,89769
3794,63738;1,89622
3792,58622;1,89681
3790,53506;1,89727
3788,48391;1,89881
3786,43275;1,90187
3784,3816;1,90642
3782,33044;1,9103
3780,27929;1,90948
3778,22813;1,90843
3776,17698;1,91096
3774,12582;1,91508
3772,07467;1,91798
3770,02351;1,92052
3767,97236;1,9258
3765,9212;1,929
3763,87005;1,93063
3761,81889;1,93138
3759,76773;1,93132
3757,71658;1,93394
3755,66542;1,93882
3753,61427;1,94127
3751,56311;1,94071
3749,51196;1,94416
3747,4608;1,94974
3745,40965;1,94665
3743,35849;1,94869
3741,30734;1,96164
3739,25618;1,97186
3737,20503;1,97801
3735,15387;1,98284
3733,10272;1,98408
3731,05156;1,98447
3729,0004;1,98896
3726,94925;1,99424
3724,89809;1,99929
3722,84694;2,00314
3720,79578;2,0077
3718,74463;2,01531
3716,69347;2,02593
3714,64232;2,03665
3712,59116;2,04563
3710,54001;2,05575
3708,48885;2,06758
3706,4377;2,08241
3704,38654;2,10223
3702,33539;2,12797
3700,28423;2,15942
3698,23307;2,18774
3696,18192;2,20581
3694,13076;2,21552
3692,07961;2,21944
3690,02845;2,21816
3687,9773;2,21583
3685,92614;2,22075
3683,87499;2,2324
3681,82383;2,24777
3679,77268;2,26391
3677,72152;2,27965
3675,67037;2,30019
3673,61921;2,32979
3671,56806;2,35275
3669,5169;2,36938
3667,46574;2,38787
3665,41459;2,40555
3663,36343;2,42519
3661,31228;2,44892
3659,26112;2,47454
3657,20997;2,49803
3655,15881;2,52335
3653,10766;2,55243
3651,0565;2,58143
3649,00535;2,61534
3646,95419;2,65459
3644,90304;2,68688
3642,85188;2,69597
3640,80073;2,6887
3638,74957;2,68829
3636,69841;2,69944
3634,64726;2,70856
3632,5961;2,71597
3630,54495;2,72872
3628,49379;2,74383
3626,44264;2,75768
3624,39148;2,77401
3622,34033;2,79524
3620,28917;2,81161
3618,23802;2,81938
3616,18686;2,82862
3614,13571;2,83564
3612,08455;2,83559
3610,0334;2,84017
3607,98224;2,86204
3605,93108;2,89247
3603,87993;2,90938
3601,82877;2,90117
3599,77762;2,88382
3597,72646;2,88331
3595,67531;2,89254
3593,62415;2,8926
3591,573;2,89382
3589,52184;2,9105
3587,47069;2,93056
3585,41953;2,93899
3583,36838;2,94831
3581,31722;2,96283
3579,26607;2,96808
3577,21491;2,96062
3575,16375;2,95422
3573,1126;2,96153
3571,06144;2,98313
3569,01029;2,99794
3566,95913;2,99392
3564,90798;2,98914
3562,85682;2,98163
3560,80567;2,96116
3558,75451;2,93161
3556,70336;2,90271
3554,6522;2,89161
3552,60105;2,90745
3550,54989;2,93302
3548,49874;2,93825
3546,44758;2,91847
3544,39642;2,90405
3542,34527;2,91387
3540,29411;2,93318
3538,24296;2,95137
3536,1918;2,96593
3534,14065;2,9701
3532,08949;2,96396
3530,03834;2,95824
3527,98718;2,96341
3525,93603;2,96022
3523,88487;2,93844
3521,83372;2,93453
3519,78256;2,96282
3517,73141;2,99365
3515,68025;3,00361
3513,62909;2,99711
3511,57794;2,98825
3509,52678;2,98076
3507,47563;2,97671
3505,42447;2,97466
3503,37332;2,96726
3501,32216;2,96601
3499,27101;2,98314
3497,21985;2,99964
3495,1687;2,99042
3493,11754;2,96762
3491,06639;2,95821
3489,01523;2,95894
3486,96407;2,96089
3484,91292;2,97007
3482,86176;2,98072
3480,81061;2,97222
3478,75945;2,95368
3476,7083;2,94963
3474,65714;2,94416
3472,60599;2,93218
3470,55483;2,93817
3468,50368;2,95303
3466,45252;2,95264
3464,40137;2,94943
3462,35021;2,95798
3460,29906;2,96896
3458,2479;2,97039
3456,19674;2,95266
3454,14559;2,92307
3452,09443;2,90455
3450,04328;2,90187
3447,99212;2,90932
3445,94097;2,92104
3443,88981;2,92362
3441,83866;2,91917
3439,7875;2,91758
3437,73635;2,91638
3435,68519;2,91772
3433,63404;2,91067
3431,58288;2,90514
3429,53173;2,9202
3427,48057;2,92587
3425,42941;2,90645
3423,37826;2,88806
3421,3271;2,88602
3419,27595;2,89495
3417,22479;2,89946
3415,17364;2,8945
3413,12248;2,88836
3411,07133;2,88996
3409,02017;2,90187
3406,96902;2,92016
3404,91786;2,9345
3402,86671;2,93775
3400,81555;2,93529
3398,7644;2,92781
3396,71324;2,9096
3394,66208;2,88822
3392,61093;2,87881
3390,55977;2,88447
3388,50862;2,88751
3386,45746;2,87984
3384,40631;2,87391
3382,35515;2,8733
3380,304;2,86646
3378,25284;2,85865
3376,20169;2,86594
3374,15053;2,88441
3372,09938;2,89479
3370,04822;2,88929
3367,99707;2,88279
3365,94591;2,88199
3363,89475;2,87514
3361,8436;2,86844
3359,79244;2,86666
3357,74129;2,85927
3355,69013;2,85002
3353,63898;2,84744
3351,58782;2,84864
3349,53667;2,8578
3347,48551;2,87377
3345,43436;2,88261
3343,3832;2,8936
3341,33205;2,90867
3339,28089;2,90694
3337,22974;2,89197
3335,17858;2,88246
3333,12742;2,8823
3331,07627;2,87904
3329,02511;2,87111
3326,97396;2,869
3324,9228;2,86884
3322,87165;2,86292
3320,82049;2,84748
3318,76934;2,82784
3316,71818;2,81578
3314,66703;2,81505
3312,61587;2,82461
3310,56472;2,83736
3308,51356;2,84468
3306,46241;2,8463
3304,41125;2,84655
3302,36009;2,84899
3300,30894;2,85491
3298,25778;2,86237
3296,20663;2,86523
3294,15547;2,86196
3292,10432;2,86131
3290,05316;2,86144
3288,00201;2,84908
3285,95085;2,83131
3283,8997;2,82589
3281,84854;2,83923
3279,79739;2,85448
3277,74623;2,85485
3275,69508;2,84276
3273,64392;2,82285
3271,59276;2,80881
3269,54161;2,81002
3267,49045;2,81812
3265,4393;2,82883
3263,38814;2,83947
3261,33699;2,84505
3259,28583;2,85146
3257,23468;2,86198
3255,18352;2,86604
3253,13237;2,86424
3251,08121;2,86176
3249,03006;2,84643
3246,9789;2,82566
3244,92775;2,82519
3242,87659;2,84072
3240,82543;2,8505
3238,77428;2,85476
3236,72312;2,85914
3234,67197;2,85097
3232,62081;2,82816
3230,56966;2,81329
3228,5185;2,81755
3226,46735;2,8242
3224,41619;2,81987
3222,36504;2,81462
3220,31388;2,81589
3218,26273;2,82268
3216,21157;2,82979
3214,16041;2,8282
3212,10926;2,82086
3210,0581;2,82185
3208,00695;2,82622
3205,95579;2,8232
3203,90464;2,81509
3201,85348;2,8066
3199,80233;2,80353
3197,75117;2,8074
3195,70002;2,80832
3193,64886;2,80539
3191,59771;2,80268
3189,54655;2,78864
3187,4954;2,76927
3185,44424;2,76863
3183,39308;2,78433
3181,34193;2,80126
3179,29077;2,81167
3177,23962;2,81613
3175,18846;2,81378
3173,13731;2,79987
3171,08615;2,78218
3169,035;2,7725
3166,98384;2,77326
3164,93269;2,7821
3162,88153;2,79652
3160,83038;2,80985
3158,77922;2,81291
3156,72807;2,8034
3154,67691;2,79152
3152,62575;2,78817
3150,5746;2,78455
3148,52344;2,7771
3146,47229;2,77627
3144,42113;2,77727
3142,36998;2,77782
3140,31882;2,78417
3138,26767;2,79497
3136,21651;2,80081
3134,16536;2,79532
3132,1142;2,78899
3130,06305;2,78685
3128,01189;2,78389
3125,96074;2,78322
3123,90958;2,78309
3121,85842;2,78048
3119,80727;2,77373
3117,75611;2,76188
3115,70496;2,75524
3113,6538;2,75867
3111,60265;2,76524
3109,55149;2,76863
3107,50034;2,76744
3105,44918;2,76857
3103,39803;2,77353
3101,34687;2,77436
3099,29572;2,76705
3097,24456;2,75976
3095,19341;2,75761
3093,14225;2,75478
3091,09109;2,74869
3089,03994;2,74727
3086,98878;2,75649
3084,93763;2,76326
3082,88647;2,75661
3080,83532;2,75104
3078,78416;2,75097
3076,73301;2,73936
3074,68185;2,72188
3072,6307;2,72163
3070,57954;2,73342
3068,52839;2,73938
3066,47723;2,73961
3064,42608;2,74069
3062,37492;2,74353
3060,32376;2,74599
3058,27261;2,74673
3056,22145;2,74621
3054,1703;2,74365
3052,11914;2,73492
3050,06799;2,72256
3048,01683;2,7157
3045,96568;2,71341
3043,91452;2,70936
3041,86337;2,70617
3039,81221;2,70417
3037,76106;2,70288
3035,7099;2,70792
3033,65875;2,71696
3031,60759;2,72404
3029,55643;2,7252
3027,50528;2,71792
3025,45412;2,70934
3023,40297;2,70871
3021,35181;2,71022
3019,30066;2,706
3017,2495;2,7056
3015,19835;2,71372
3013,14719;2,72007
3011,09604;2,71907
3009,04488;2,71862
3006,99373;2,72493
3004,94257;2,73207
3002,89142;2,73843
3000,84026;2,74364
2998,7891;2,73987
2996,73795;2,73574
2994,68679;2,74638
2992,63564;2,75704
2990,58448;2,75825
2988,53333;2,76325
2986,48217;2,76967
2984,43102;2,77226
2982,37986;2,78084
2980,32871;2,79338
2978,27755;2,7924
2976,2264;2,77479
2974,17524;2,75978
2972,12409;2,75364
2970,07293;2,7512
2968,02177;2,75362
2965,97062;2,75852
2963,91946;2,76457
2961,86831;2,76799
2959,81715;2,76381
2957,766;2,76247
2955,71484;2,77187
2953,66369;2,7834
2951,61253;2,78952
2949,56138;2,78731
2947,51022;2,7822
2945,45907;2,7853
2943,40791;2,79246
2941,35675;2,79835
2939,3056;2,80456
2937,25444;2,81182
2935,20329;2,81837
2933,15213;2,81956
2931,10098;2,81068
2929,04982;2,79954
2926,99867;2,79864
2924,94751;2,79983
2922,89636;2,7894
2920,8452;2,77411
2918,79405;2,7703
2916,74289;2,7747
2914,69174;2,77329
2912,64058;2,77741
2910,58942;2,79398
2908,53827;2,79644
2906,48711;2,78225
2904,43596;2,77956
2902,3848;2,78324
2900,33365;2,77986
2898,28249;2,77488
2896,23134;2,77055
2894,18018;2,76721
2892,12903;2,76414
2890,07787;2,75853
2888,02672;2,75281
2885,97556;2,74767
2883,92441;2,74735
2881,87325;2,76305
2879,82209;2,77959
2877,77094;2,77655
2875,71978;2,7694
2873,66863;2,77741
2871,61747;2,78751
2869,56632;2,77566
2867,51516;2,75482
2865,46401;2,749
2863,41285;2,75621
2861,3617;2,76
2859,31054;2,75678
2857,25939;2,75111
2855,20823;2,74715
2853,15708;2,74873
2851,10592;2,74983
2849,05476;2,74313
2847,00361;2,73401
2844,95245;2,72967
2842,9013;2,72374
2840,85014;2,71103
2838,79899;2,69672
2836,74783;2,68655
2834,69668;2,68349
2832,64552;2,68348
2830,59437;2,67687
2828,54321;2,66317
2826,49206;2,64874
2824,4409;2,63669
2822,38975;2,62943
2820,33859;2,62657
2818,28743;2,62618
2816,23628;2,6256
2814,18512;2,62207
2812,13397;2,61851
2810,08281;2,61463
2808,03166;2,60366
2805,9805;2,59128
2803,92935;2,58942
2801,87819;2,59288
2799,82704;2,59122
2797,77588;2,58568
2795,72473;2,58248
2793,67357;2,58395
2791,62242;2,58364
2789,57126;2,57621
2787,5201;2,56344
2785,46895;2,55148
2783,41779;2,54635
2781,36664;2,54625
2779,31548;2,54506
2777,26433;2,54014
2775,21317;2,53709
2773,16202;2,53921
2771,11086;2,53979
2769,05971;2,53538
2767,00855;2,53037
2764,9574;2,52544
2762,90624;2,51905
2760,85509;2,51227
2758,80393;2,5069
2756,75277;2,50527
2754,70162;2,50548
2752,65046;2,50384
2750,59931;2,5031
2748,54815;2,50664
2746,497;2,50859
2744,44584;2,50412
2742,39469;2,50105
2740,34353;2,50316
2738,29238;2,50229
2736,24122;2,49817
2734,19007;2,49611
2732,13891;2,49171
2730,08776;2,4851
2728,0366;2,48356
2725,98544;2,48435
2723,93429;2,47934
2721,88313;2,47266
2719,83198;2,47412
2717,78082;2,48343
2715,72967;2,4913
2713,67851;2,4899
2711,62736;2,48268
2709,5762;2,47767
2707,52505;2,47832
2705,47389;2,47959
2703,42274;2,47745
2701,37158;2,4772
2699,32043;2,47842
2697,26927;2,47643
2695,21811;2,47348
2693,16696;2,46848
2691,1158;2,45997
2689,06465;2,45643
2687,01349;2,46104
2684,96234;2,46604
2682,91118;2,46554
2680,86003;2,46075
2678,80887;2,45741
2676,75772;2,45567
2674,70656;2,45316
2672,65541;2,45292
2670,60425;2,45304
2668,55309;2,45056
2666,50194;2,44878
2664,45078;2,44699
2662,39963;2,44519
2660,34847;2,44581
2658,29732;2,44575
2656,24616;2,44465
2654,19501;2,44528
2652,14385;2,44597
2650,0927;2,44601
2648,04154;2,4485
2645,99039;2,45447
2643,93923;2,4605
2641,88808;2,4624
2639,83692;2,46181
2637,78576;2,46465
2635,73461;2,47361
2633,68345;2,4871
2631,6323;2,49873
2629,58114;2,50456
2627,52999;2,51176
2625,47883;2,52406
2623,42768;2,53387
2621,37652;2,53902
2619,32537;2,54353
2617,27421;2,54775
2615,22306;2,55409
2613,1719;2,56547
2611,12075;2,57619
2609,06959;2,58014
2607,01843;2,57913
2604,96728;2,576
2602,91612;2,57796
2600,86497;2,58915
2598,81381;2,59697
2596,76266;2,59828
2594,7115;2,60412
2592,66035;2,61208
2590,60919;2,61238
2588,55804;2,60813
2586,50688;2,60676
2584,45573;2,60969
2582,40457;2,61075
2580,35342;2,60098
2578,30226;2,59099
2576,2511;2,59539
2574,19995;2,6087
2572,14879;2,6171
2570,09764;2,61444
2568,04648;2,60869
2565,99533;2,60921
2563,94417;2,61346
2561,89302;2,61561
2559,84186;2,6172
2557,79071;2,62085
2555,73955;2,62429
2553,6884;2,62412
2551,63724;2,62255
2549,58609;2,62357
2547,53493;2,6254
2545,48377;2,62876
2543,43262;2,63651
2541,38146;2,64549
2539,33031;2,65432
2537,27915;2,66302
2535,228;2,66738
2533,17684;2,67089
2531,12569;2,68173
2529,07453;2,69832
2527,02338;2,71379
2524,97222;2,72563
2522,92107;2,73626
2520,86991;2,7461
2518,81876;2,74877
2516,7676;2,74229
2514,71644;2,73708
2512,66529;2,7362
2510,61413;2,73302
2508,56298;2,72753
2506,51182;2,72178
2504,46067;2,71514
2502,40951;2,70703
2500,35836;2,69452
2498,3072;2,67928
2496,25605;2,66887
2494,20489;2,65858
2492,15374;2,64667
2490,10258;2,63766
2488,05143;2,62123
2486,00027;2,59795
2483,94911;2,58045
2481,89796;2,56549
2479,8468;2,54591
2477,79565;2,52594
2475,74449;2,50899
2473,69334;2,49648
2471,64218;2,4901
2469,59103;2,48119
2467,53987;2,46605
2465,48872;2,4532
2463,43756;2,4427
2461,38641;2,4309
2459,33525;2,41988
2457,2841;2,41274
2455,23294;2,4093
2453,18178;2,40577
2451,13063;2,39985
2449,07947;2,39093
2447,02832;2,38257
2444,97716;2,381
2442,92601;2,38321
2440,87485;2,38106
2438,8237;2,3739
2436,77254;2,36669
2434,72139;2,36005
2432,67023;2,35434
2430,61908;2,35176
2428,56792;2,34945
2426,51677;2,34538
2424,46561;2,3395
2422,41445;2,3335
2420,3633;2,33009
2418,31214;2,32697
2416,26099;2,32306
2414,20983;2,32061
2412,15868;2,31924
2410,10752;2,31713
2408,05637;2,31417
2406,00521;2,31185
2403,95406;2,31044
2401,9029;2,3096
2399,85175;2,30861
2397,80059;2,30541
2395,74944;2,3012
2393,69828;2,29955
2391,64712;2,29999
2389,59597;2,29972
2387,54481;2,29863
2385,49366;2,29801
2383,4425;2,29845
2381,39135;2,30031
2379,34019;2,30223
2377,28904;2,29994
2375,23788;2,29467
2373,18673;2,29485
2371,13557;2,29805
2369,08442;2,29398
2367,03326;2,28808
2364,9821;2,29081
2362,93095;2,29975
2360,87979;2,30808
2358,82864;2,3102
2356,77748;2,30599
2354,72633;2,30223
2352,67517;2,30136
2350,62402;2,30179
2348,57286;2,30048
2346,52171;2,29621
2344,47055;2,29538
2342,4194;2,30313
2340,36824;2,31321
2338,31709;2,31638
2336,26593;2,31119
2334,21477;2,30227
2332,16362;2,29371
2330,11246;2,29072
2328,06131;2,2965
2326,01015;2,3053
2323,959;2,30963
2321,90784;2,30929
2319,85669;2,30901
2317,80553;2,31001
2315,75438;2,30812
2313,70322;2,30385
2311,65207;2,30314
2309,60091;2,30645
2307,54976;2,30914
2305,4986;2,30885
2303,44744;2,3071
2301,39629;2,30614
2299,34513;2,3061
2297,29398;2,30541
2295,24282;2,30385
2293,19167;2,30296
2291,14051;2,30298
2289,08936;2,3027
2287,0382;2,30175
2284,98705;2,30112
2282,93589;2,30162
2280,88474;2,30298
2278,83358;2,30386
2276,78243;2,30367
2274,73127;2,30464
2272,68011;2,30779
2270,62896;2,30993
2268,5778;2,30881
2266,52665;2,30681
2264,47549;2,30696
2262,42434;2,31008
2260,37318;2,31491
2258,32203;2,3185
2256,27087;2,32003
2254,21972;2,322
2252,16856;2,32536
2250,11741;2,32813
2248,06625;2,32818
2246,0151;2,32675
2243,96394;2,3288
2241,91278;2,33308
2239,86163;2,33604
2237,81047;2,33973
2235,75932;2,34464
2233,70816;2,34743
2231,65701;2,34594
2229,60585;2,34416
2227,5547;2,34914
2225,50354;2,35807
2223,45239;2,36152
2221,40123;2,35996
2219,35008;2,36059
2217,29892;2,36346
2215,24777;2,36525
2213,19661;2,36655
2211,14545;2,36706
2209,0943;2,36648
2207,04314;2,36767
2204,99199;2,3714
2202,94083;2,37382
2200,88968;2,37437
2198,83852;2,37745
2196,78737;2,3821
2194,73621;2,38466
2192,68506;2,3857
2190,6339;2,38723
2188,58275;2,38995
2186,53159;2,39159
2184,48044;2,3907
2182,42928;2,3906
2180,37812;2,39274
2178,32697;2,39509
2176,27581;2,39747
2174,22466;2,40101
2172,1735;2,40694
2170,12235;2,41319
2168,07119;2,41808
2166,02004;2,42282
2163,96888;2,42538
2161,91773;2,42687
2159,86657;2,43161
2157,81542;2,44013
2155,76426;2,45056
2153,71311;2,46204
2151,66195;2,47216
2149,61079;2,47625
2147,55964;2,47758
2145,50848;2,48161
2143,45733;2,48573
2141,40617;2,48882
2139,35502;2,49225
2137,30386;2,49438
2135,25271;2,4946
2133,20155;2,49354
2131,1504;2,49
2129,09924;2,48053
2127,04809;2,46642
2124,99693;2,45381
2122,94578;2,44498
2120,89462;2,43993
2118,84346;2,43638
2116,79231;2,43096
2114,74115;2,42439
2112,69;2,41844
2110,63884;2,41338
2108,58769;2,41014
2106,53653;2,40806
2104,48538;2,40449
2102,43422;2,40202
2100,38307;2,40357
2098,33191;2,40465
2096,28076;2,40184
2094,2296;2,39876
2092,17844;2,39931
2090,12729;2,40257
2088,07613;2,40584
2086,02498;2,40675
2083,97382;2,40606
2081,92267;2,40661
2079,87151;2,40746
2077,82036;2,4073
2075,7692;2,40635
2073,71805;2,40367
2071,66689;2,40185
2069,61574;2,40227
2067,56458;2,40202
2065,51343;2,40309
2063,46227;2,40862
2061,41111;2,41443
2059,35996;2,41528
2057,3088;2,41218
2055,25765;2,41007
2053,20649;2,41221
2051,15534;2,41557
2049,10418;2,41653
2047,05303;2,4163
2045,00187;2,4169
2042,95072;2,4188
2040,89956;2,41938
2038,84841;2,4175
2036,79725;2,4168
2034,7461;2,41952
2032,69494;2,42259
2030,64378;2,42151
2028,59263;2,41682
2026,54147;2,41303
2024,49032;2,41286
2022,43916;2,41711
2020,38801;2,42364
2018,33685;2,42632
2016,2857;2,42428
2014,23454;2,42098
2012,18339;2,41641
2010,13223;2,41104
2008,08108;2,40968
2006,02992;2,4145
2003,97877;2,4193
2001,92761;2,4224
1999,87645;2,42799
1997,8253;2,43272
1995,77414;2,43149
1993,72299;2,42746
1991,67183;2,42789
1989,62068;2,43358
1987,56952;2,43793
1985,51837;2,43887
1983,46721;2,43719
1981,41606;2,43545
1979,3649;2,43617
1977,31375;2,43742
1975,26259;2,43638
1973,21144;2,43464
1971,16028;2,43639
1969,10912;2,44151
1967,05797;2,44838
1965,00681;2,4587
1962,95566;2,46892
1960,9045;2,47295
1958,85335;2,47003
1956,80219;2,46403
1954,75104;2,45836
1952,69988;2,45434
1950,64873;2,45196
1948,59757;2,45178
1946,54642;2,454
1944,49526;2,45385
1942,44411;2,45045
1940,39295;2,45146
1938,34179;2,45672
1936,29064;2,46304
1934,23948;2,46773
1932,18833;2,46845
1930,13717;2,46644
1928,08602;2,46456
1926,03486;2,46537
1923,98371;2,46713
1921,93255;2,46925
1919,8814;2,47107
1917,83024;2,47187
1915,77909;2,47542
1913,72793;2,48041
1911,67678;2,48542
1909,62562;2,48952
1907,57446;2,49074
1905,52331;2,48856
1903,47215;2,48586
1901,421;2,48583
1899,36984;2,49026
1897,31869;2,49851
1895,26753;2,50628
1893,21638;2,51014
1891,16522;2,51088
1889,11407;2,51278
1887,06291;2,51735
1885,01176;2,52152
1882,9606;2,52373
1880,90945;2,52454
1878,85829;2,5266
1876,80713;2,53079
1874,75598;2,53637
1872,70482;2,54384
1870,65367;2,55154
1868,60251;2,55699
1866,55136;2,55938
1864,5002;2,55902
1862,44905;2,55885
1860,39789;2,5617
1858,34674;2,56833
1856,29558;2,57664
1854,24443;2,58311
1852,19327;2,58801
1850,14212;2,59547
1848,09096;2,60569
1846,0398;2,61166
1843,98865;2,61246
1841,93749;2,61772
1839,88634;2,62797
1837,83518;2,63922
1835,78403;2,64904
1833,73287;2,65536
1831,68172;2,66028
1829,63056;2,67068
1827,57941;2,68378
1825,52825;2,69005
1823,4771;2,69372
1821,42594;2,69829
1819,37478;2,70419
1817,32363;2,71527
1815,27247;2,73362
1813,22132;2,75486
1811,17016;2,7758
1809,11901;2,79964
1807,06785;2,8247
1805,0167;2,84557
1802,96554;2,86549
1800,91439;2,89157
1798,86323;2,91671
1796,81208;2,92748
1794,76092;2,92284
1792,70977;2,90446
1790,65861;2,88191
1788,60745;2,86938
1786,5563;2,86442
1784,50514;2,85544
1782,45399;2,83471
1780,40283;2,81303
1778,35168;2,80807
1776,30052;2,8122
1774,24937;2,81171
1772,19821;2,80978
1770,14706;2,8084
1768,0959;2,80724
1766,04475;2,81443
1763,99359;2,82261
1761,94244;2,82506
1759,89128;2,82865
1757,84012;2,83155
1755,78897;2,83482
1753,73781;2,83758
1751,68666;2,83376
1749,6355;2,83189
1747,58435;2,84011
1745,53319;2,85231
1743,48204;2,85874
1741,43088;2,8548
1739,37973;2,8467
1737,32857;2,84671
1735,27742;2,85486
1733,22626;2,87085
1731,17511;2,87882
1729,12395;2,86996
1727,07279;2,8616
1725,02164;2,86306
1722,97048;2,87168
1720,91933;2,88297
1718,86817;2,89379
1716,81702;2,89998
1714,76586;2,89689
1712,71471;2,89048
1710,66355;2,88263
1708,6124;2,87618
1706,56124;2,87923
1704,51009;2,89375
1702,45893;2,90217
1700,40778;2,90172
1698,35662;2,91176
1696,30546;2,91667
1694,25431;2,91725
1692,20315;2,92321
1690,152;2,93389
1688,10084;2,9499
1686,04969;2,95803
1683,99853;2,95501
1681,94738;2,95804
1679,89622;2,96488
1677,84507;2,96518
1675,79391;2,95691
1673,74276;2,96389
1671,6916;2,98937
1669,64045;3,00243
1667,58929;2,99862
1665,53813;2,9969
1663,48698;2,99534
1661,43582;2,98932
1659,38467;2,98356
1657,33351;2,98314
1655,28236;2,98353
1653,2312;2,98035
1651,18005;2,98078
1649,12889;2,98026
1647,07774;2,97609
1645,02658;2,97318
1642,97543;2,97698
1640,92427;2,98924
1638,87312;2,99709
1636,82196;2,98615
1634,7708;2,96511
1632,71965;2,94828
1630,66849;2,93574
1628,61734;2,93075
1626,56618;2,93282
1624,51503;2,9308
1622,46387;2,92418
1620,41272;2,91779
1618,36156;2,90747
1616,31041;2,90018
1614,25925;2,90664
1612,2081;2,91734
1610,15694;2,91782
1608,10579;2,90452
1606,05463;2,89068
1604,00347;2,88434
1601,95232;2,87884
1599,90116;2,86913
1597,85001;2,85754
1595,79885;2,84565
1593,7477;2,83383
1591,69654;2,82517
1589,64539;2,81896
1587,59423;2,80829
1585,54308;2,79064
1583,49192;2,77301
1581,44077;2,76298
1579,38961;2,75654
1577,33846;2,7424
1575,2873;2,72828
1573,23614;2,7218
1571,18499;2,70585
1569,13383;2,6805
1567,08268;2,65723
1565,03152;2,63711
1562,98037;2,62548
1560,92921;2,60493
1558,87806;2,558
1556,8269;2,5208
1554,77575;2,50393
1552,72459;2,49143
1550,67344;2,47653
1548,62228;2,46534
1546,57113;2,46147
1544,51997;2,45967
1542,46881;2,45481
1540,41766;2,4426
1538,3665;2,43664
1536,31535;2,436
1534,26419;2,4276
1532,21304;2,42334
1530,16188;2,42638
1528,11073;2,42551
1526,05957;2,42426
1524,00842;2,42576
1521,95726;2,42431
1519,90611;2,42662
1517,85495;2,43213
1515,80379;2,4371
1513,75264;2,44351
1511,70148;2,45195
1509,65033;2,45796
1507,59917;2,45132
1505,54802;2,44512
1503,49686;2,44948
1501,44571;2,45207
1499,39455;2,451
1497,3434;2,44975
1495,29224;2,45427
1493,24109;2,46599
1491,18993;2,48068
1489,13878;2,49782
1487,08762;2,50727
1485,03646;2,5068
1482,98531;2,50781
1480,93415;2,51618
1478,883;2,52734
1476,83184;2,53833
1474,78069;2,55551
1472,72953;2,57791
1470,67838;2,59659
1468,62722;2,60526
1466,57607;2,6068
1464,52491;2,61048
1462,47376;2,61958
1460,4226;2,62361
1458,37145;2,61855
1456,32029;2,62372
1454,26913;2,64366
1452,21798;2,65253
1450,16682;2,64632
1448,11567;2,63831
1446,06451;2,63748
1444,01336;2,64186
1441,9622;2,64976
1439,91105;2,65613
1437,85989;2,65242
1435,80874;2,65052
1433,75758;2,65878
1431,70643;2,66345
1429,65527;2,66396
1427,60412;2,66647
1425,55296;2,66815
1423,5018;2,66975
1421,45065;2,66789
1419,39949;2,6523
1417,34834;2,63001
1415,29718;2,61234
1413,24603;2,59913
1411,19487;2,58749
1409,14372;2,58008
1407,09256;2,58031
1405,04141;2,58844
1402,99025;2,60165
1400,9391;2,60971
1398,88794;2,61324
1396,83679;2,62578
1394,78563;2,64811
1392,73447;2,66911
1390,68332;2,68164
1388,63216;2,6894
1386,58101;2,69884
1384,52985;2,71146
1382,4787;2,72739
1380,42754;2,74661
1378,37639;2,76434
1376,32523;2,77839
1374,27408;2,78997
1372,22292;2,80011
1370,17177;2,80757
1368,12061;2,81087
1366,06946;2,81163
1364,0183;2,81429
1361,96714;2,82198
1359,91599;2,83112
1357,86483;2,83504
1355,81368;2,83158
1353,76252;2,82599
1351,71137;2,82406
1349,66021;2,82504
1347,60906;2,8268
1345,5579;2,83006
1343,50675;2,83705
1341,45559;2,8422
1339,40444;2,83721
1337,35328;2,83283
1335,30213;2,8413
1333,25097;2,85211
1331,19981;2,85558
1329,14866;2,85914
1327,0975;2,868
1325,04635;2,87922
1322,99519;2,88565
1320,94404;2,8821
1318,89288;2,87731
1316,84173;2,88058
1314,79057;2,88344
1312,73942;2,87793
1310,68826;2,87007
1308,63711;2,86735
1306,58595;2,87315
1304,5348;2,89125
1302,48364;2,9119
1300,43248;2,91412
1298,38133;2,89916
1296,33017;2,88615
1294,27902;2,88705
1292,22786;2,89744
1290,17671;2,9019
1288,12555;2,89997
1286,0744;2,89915
1284,02324;2,89548
1281,97209;2,88584
1279,92093;2,87514
1277,86978;2,87189
1275,81862;2,87972
1273,76747;2,89194
1271,71631;2,90245
1269,66515;2,91173
1267,614;2,91238
1265,56284;2,90055
1263,51169;2,89394
1261,46053;2,90238
1259,40938;2,91343
1257,35822;2,91847
1255,30707;2,92081
1253,25591;2,9187
1251,20476;2,91071
1249,1536;2,90258
1247,10245;2,9014
1245,05129;2,90865
1243,00013;2,9196
1240,94898;2,92543
1238,89782;2,92577
1236,84667;2,9261
1234,79551;2,92424
1232,74436;2,9264
1230,6932;2,93706
1228,64205;2,94071
1226,59089;2,93405
1224,53974;2,93398
1222,48858;2,93977
1220,43743;2,93532
1218,38627;2,92465
1216,33512;2,9169
1214,28396;2,9155
1212,2328;2,92397
1210,18165;2,93219
1208,13049;2,93116
1206,07934;2,93076
1204,02818;2,94078
1201,97703;2,94792
1199,92587;2,93338
1197,87472;2,91654
1195,82356;2,92679
1193,77241;2,95861
1191,72125;2,97925
1189,6701;2,97701
1187,61894;2,98005
1185,56779;2,99354
1183,51663;2,99559
1181,46547;2,98863
1179,41432;2,99092
1177,36316;3,01357
1175,31201;3,03971
1173,26085;3,05128
1171,2097;3,05629
1169,15854;3,05886
1167,10739;3,06515
1165,05623;3,07933
1163,00508;3,09267
1160,95392;3,10633
1158,90277;3,1168
1156,85161;3,10999
1154,80046;3,09293
1152,7493;3,0773
1150,69814;3,06947
1148,64699;3,07603
1146,59583;3,06891
1144,54468;3,03518
1142,49352;3,02388
1140,44237;3,04756
1138,39121;3,06331
1136,34006;3,06278
1134,2889;3,0592
1132,23775;3,05566
1130,18659;3,04828
1128,13544;3,03271
1126,08428;3,02218
1124,03313;3,02834
1121,98197;3,03265
1119,93081;3,00817
1117,87966;2,9761
1115,8285;2,96685
1113,77735;2,96643
1111,72619;2,95268
1109,67504;2,93008
1107,62388;2,90705
1105,57273;2,88773
1103,52157;2,88337
1101,47042;2,88444
1099,41926;2,8621
1097,36811;2,82258
1095,31695;2,79073
1093,2658;2,77434
1091,21464;2,76121
1089,16348;2,74171
1087,11233;2,72198
1085,06117;2,70266
1083,01002;2,68354
1080,95886;2,66795
1078,90771;2,65153
1076,85655;2,63719
1074,8054;2,63605
1072,75424;2,64192
1070,70309;2,64774
1068,65193;2,65658
1066,60078;2,66207
1064,54962;2,65729
1062,49847;2,64443
1060,44731;2,63133
1058,39615;2,62022
1056,345;2,60485
1054,29384;2,59027
1052,24269;2,58464
1050,19153;2,57995
1048,14038;2,56734
1046,08922;2,55203
1044,03807;2,53693
1041,98691;2,51831
1039,93576;2,49943
1037,8846;2,48619
1035,83345;2,47794
1033,78229;2,47232
1031,73114;2,46877
1029,67998;2,46879
1027,62882;2,47471
1025,57767;2,47979
1023,52651;2,47528
1021,47536;2,46969
1019,4242;2,47067
1017,37305;2,46977
1015,32189;2,4663
1013,27074;2,46719
1011,21958;2,46832
1009,16843;2,4676
1007,11727;2,47117
1005,06612;2,47683
1003,01496;2,47468
1000,96381;2,46468
998,91265;2,45413
996,86149;2,44671
994,81034;2,4435
992,75918;2,44067
990,70803;2,43082
988,65687;2,41508
986,60572;2,39934
984,55456;2,38371
982,50341;2,36806
980,45225;2,35589
978,4011;2,34962
976,34994;2,34767
974,29879;2,34534
972,24763;2,34263
970,19647;2,3418
968,14532;2,3407
966,09416;2,33861
964,04301;2,33736
961,99185;2,33322
959,9407;2,32213
957,88954;2,31018
955,83839;2,3035
953,78723;2,30454
951,73608;2,3146
949,68492;2,32971
947,63377;2,34564
945,58261;2,36289
943,53146;2,37991
941,4803;2,39612
939,42914;2,41666
937,37799;2,43801
935,32683;2,45504
933,27568;2,46841
931,22452;2,47532
929,17337;2,47943
927,12221;2,48683
925,07106;2,49698
923,0199;2,50824
920,96875;2,51944
918,91759;2,52855
916,86644;2,5366
914,81528;2,54354
912,76413;2,54577
910,71297;2,54733
908,66181;2,55475
906,61066;2,56801
904,5595;2,58174
902,50835;2,58373
900,45719;2,57322
898,40604;2,5688
896,35488;2,57591
894,30373;2,57932
892,25257;2,57223
890,20142;2,56009
888,15026;2,55378
886,09911;2,56698
884,04795;2,59529
881,9968;2,62304
879,94564;2,6495
877,89448;2,66717
875,84333;2,6604
873,79217;2,64148
871,74102;2,63195
869,68986;2,64619
867,63871;2,68218
865,58755;2,71377
863,5364;2,72631
861,48524;2,72213
859,43409;2,70778
857,38293;2,69564
855,33178;2,68992
853,28062;2,69231
851,22947;2,70851
849,17831;2,73391
847,12715;2,75016
845,076;2,75316
843,02484;2,74387
840,97369;2,7259
838,92253;2,72245
836,87138;2,7337
834,82022;2,74473
832,76907;2,76081
830,71791;2,77811
828,66676;2,77427
826,6156;2,74803
824,56445;2,73745
822,51329;2,76329
820,46214;2,78687
818,41098;2,78038
816,35982;2,76605
814,30867;2,77081
812,25751;2,79354
810,20636;2,80309
808,1552;2,7907
806,10405;2,77643
804,05289;2,778
802,00174;2,78982
799,95058;2,78331
797,89943;2,76702
795,84827;2,76248
793,79712;2,76417
791,74596;2,7696
789,69481;2,77837
787,64365;2,77939
785,59249;2,77327
783,54134;2,76848
781,49018;2,76717
779,43903;2,7773
777,38787;2,7904
775,33672;2,77172
773,28556;2,73375
771,23441;2,73003
769,18325;2,76885
767,1321;2,80728
765,08094;2,81033
763,02979;2,79986
760,97863;2,80748
758,92748;2,83218
756,87632;2,85524
754,82516;2,83979
752,77401;2,79943
750,72285;2,78745
748,6717;2,81085
746,62054;2,81439
744,56939;2,80188
742,51823;2,81113
740,46708;2,81944
738,41592;2,8171
736,36477;2,82619
734,31361;2,8431
732,26246;2,8562
730,2113;2,85425
728,16015;2,83785
726,10899;2,83808
724,05783;2,85363
722,00668;2,86195
719,95552;2,8751
717,90437;2,90541
715,85321;2,92166
713,80206;2,90599
711,7509;2,88218
709,69975;2,8713
707,64859;2,8712
705,59744;2,86392
703,54628;2,83704
701,49513;2,80411
699,44397;2,7965
697,39281;2,82209
695,34166;2,84225
693,2905;2,82196
691,23935;2,78852
689,18819;2,77705
687,13704;2,77461
685,08588;2,76433
683,03473;2,75793
680,98357;2,77199
678,93242;2,80177
676,88126;2,82034
674,83011;2,82714
672,77895;2,83972
670,7278;2,84627
668,67664;2,83776
666,62548;2,83947
664,57433;2,8506
662,52317;2,85105
660,47202;2,84166
658,42086;2,82492
656,36971;2,80222
654,31855;2,78773
652,2674;2,79086
650,21624;2,81654
648,16509;2,86103
646,11393;2,90102
644,06278;2,90218
642,01162;2,86554
639,96047;2,84592
637,90931;2,85752
635,85815;2,8563
633,807;2,83038
631,75584;2,81052
629,70469;2,81811
627,65353;2,84862
625,60238;2,85434
623,55122;2,81204
621,50007;2,78169
619,44891;2,80585
617,39776;2,83995
615,3466;2,84487
613,29545;2,86631
611,24429;2,89758
609,19314;2,86925
607,14198;2,83735
605,09082;2,87598
603,03967;2,927
600,98851;2,92541
598,93736;2,90185
596,8862;2,88919
594,83505;2,90024
592,78389;2,88724
590,73274;2,81645
588,68158;2,76489
586,63043;2,77505
584,57927;2,78782
582,52812;2,77998
580,47696;2,77048
578,42581;2,75533
576,37465;2,75906
574,32349;2,78739
572,27234;2,82079
570,22118;2,85494
568,17003;2,87191
566,11887;2,85162
564,06772;2,82832
562,01656;2,80705
559,96541;2,76852
557,91425;2,75411
555,8631;2,78327
553,81194;2,8158
551,76079;2,83938
549,70963;2,86973
547,65848;2,86255
545,60732;2,78364
543,55616;2,71737
541,50501;2,7173
539,45385;2,74973
537,4027;2,74731
535,35154;2,70713
533,30039;2,69353
531,24923;2,72939
529,19808;2,76469
527,14692;2,76031
525,09577;2,72481
523,04461;2,67481
520,99346;2,63754
518,9423;2,63069
516,89115;2,63055
514,83999;2,58894
512,78883;2,5157
510,73768;2,47214
508,68652;2,47433
506,63537;2,48644
504,58421;2,49066
502,53306;2,49089
500,4819;2,48083
498,43075;2,44827
496,37959;2,40179
494,32844;2,37353
492,27728;2,38413
490,22613;2,41675
488,17497;2,43653
486,12382;2,43561
484,07266;2,43033
482,0215;2,42822
479,97035;2,42646
477,91919;2,41526
475,86804;2,39337
473,81688;2,38022
471,76573;2,39418
469,71457;2,41353
467,66342;2,39515
465,61226;2,3464
463,56111;2,30945
461,50995;2,31184
459,4588;2,3539
457,40764;2,39711
455,35649;2,37819
453,30533;2,30842
451,25417;2,25626
449,20302;2,25059
447,15186;2,2809
445,10071;2,30346
443,04955;2,27428
440,9984;2,21859
438,94724;2,1788
436,89609;2,17052
434,84493;2,1983
432,79378;2,24178
430,74262;2,27708
428,69147;2,31611
426,64031;2,34852
424,58916;2,32912
422,538;2,27272
420,48684;2,24457
418,43569;2,27251
416,38453;2,32649
414,33338;2,34356
412,28222;2,31922
410,23107;2,30078
408,17991;2,31985
406,12876;2,37818
404,0776;2,44798
402,02645;2,48549
399,97529;2,48535
