3997,70175;1,88502
3995,6506;1,88354
3993,59944;1,88489
3991,54829;1,88853
3989,49713;1,89221
3987,44598;1,89451
3985,39482;1,89467
3983,34367;1,89338
3981,29251;1,89234
3979,24136;1,89359
3977,1902;1,8964
3975,13905;1,8981
3973,08789;1,89751
3971,03673;1,89487
3968,98558;1,89126
3966,93442;1,88977
3964,88327;1,8921
3962,83211;1,89526
3960,78096;1,89619
3958,7298;1,89578
3956,67865;1,8966
3954,62749;1,89941
3952,57634;1,90339
3950,52518;1,9067
3948,47403;1,90836
3946,42287;1,90987
3944,37172;1,91059
3942,32056;1,91074
3940,2694;1,91157
3938,21825;1,91088
3936,16709;1,90889
3934,11594;1,90739
3932,06478;1,90732
3930,01363;1,90802
3927,96247;1,90698
3925,91132;1,90252
3923,86016;1,89772
3921,80901;1,8944
3919,75785;1,88985
3917,7067;1,88486
3915,65554;1,88296
3913,60439;1,88268
3911,55323;1,88109
3909,50207;1,88028
3907,45092;1,88054
3905,39976;1,87922
3903,34861;1,87696
3901,29745;1,87428
3899,2463;1,87106
3897,19514;1,87041
3895,14399;1,87134
3893,09283;1,86968
3891,04168;1,86698
3888,99052;1,86839
3886,93937;1,86879
3884,88821;1,86866
3882,83706;1,86913
3880,7859;1,86588
3878,73474;1,86448
3876,68359;1,86542
3874,63243;1,8666
3872,58128;1,86821
3870,53012;1,86536
3868,47897;1,8647
3866,42781;1,86621
3864,37666;1,86549
3862,3255;1,86568
3860,27435;1,8683
3858,22319;1,87273
3856,17204;1,8718
3854,12088;1,86537
3852,06973;1,86749
3850,01857;1,87301
3847,96741;1,8721
3845,91626;1,86867
3843,8651;1,86846
3841,81395;1,8718
3839,76279;1,87225
3837,71164;1,87044
3835,66048;1,87164
3833,60933;1,87235
3831,55817;1,87163
3829,50702;1,87327
3827,45586;1,87541
3825,40471;1,87845
3823,35355;1,87989
3821,3024;1,87966
3819,25124;1,88223
3817,20008;1,87706
3815,14893;1,87031
3813,09777;1,8722
3811,04662;1,87554
3808,99546;1,87631
3806,94431;1,87843
3804,89315;1,88565
3802,842;1,88729
3800,79084;1,88665
3798,73969;1,89013
3796,68853;1,89029
3794,63738;1,88931
3792,58622;1,88844
3790,53506;1,88857
3788,48391;1,89183
3786,43275;1,89605
3784,3816;1,89998
3782,33044;1,90474
3780,27929;1,90825
3778,22813;1,91111
3776,17698;1,91421
3774,12582;1,91701
3772,07467;1,91835
3770,02351;1,91887
3767,97236;1,92189
3765,9212;1,92416
3763,87005;1,92499
3761,81889;1,92287
3759,76773;1,91967
3757,71658;1,92231
3755,66542;1,92977
3753,61427;1,93647
3751,56311;1,9418
3749,51196;1,94707
3747,4608;1,94764
3745,40965;1,93906
3743,35849;1,93841
3741,30734;1,94943
3739,25618;1,95751
3737,20503;1,96162
3735,15387;1,96673
3733,10272;1,97288
3731,05156;1,97799
3729,0004;1,98187
3726,94925;1,98451
3724,89809;1,99173
3722,84694;2,00223
3720,79578;2,01065
3718,74463;2,01717
3716,69347;2,02682
3714,64232;2,04149
3712,59116;2,06041
3710,54001;2,08267
3708,48885;2,1017
3706,4377;2,11435
3704,38654;2,1261
3702,33539;2,14317
3700,28423;2,16561
3698,23307;2,18638
3696,18192;2,20117
3694,13076;2,21145
3692,07961;2,22147
3690,02845;2,23345
3687,9773;2,24455
3685,92614;2,25509
3683,87499;2,26615
3681,82383;2,28194
3679,77268;2,30283
3677,72152;2,32332
3675,67037;2,34733
3673,61921;2,38296
3671,56806;2,40994
3669,5169;2,4253
3667,46574;2,44459
3665,41459;2,46504
3663,36343;2,48421
3661,31228;2,50625
3659,26112;2,53247
3657,20997;2,55926
3655,15881;2,58729
3653,10766;2,61704
3651,0565;2,65113
3649,00535;2,6849
3646,95419;2,69876
3644,90304;2,70264
3642,85188;2,70685
3640,80073;2,70868
3638,74957;2,71201
3636,69841;2,72261
3634,64726;2,73095
3632,5961;2,72916
3630,54495;2,72538
3628,49379;2,73515
3626,44264;2,75741
3624,39148;2,77812
3622,34033;2,79888
3620,28917;2,81578
3618,23802;2,81944
3616,18686;2,81762
3614,13571;2,81852
3612,08455;2,82503
3610,0334;2,83984
3607,98224;2,86527
3605,93108;2,89731
3603,87993;2,91963
3601,82877;2,92162
3599,77762;2,90665
3597,72646;2,88362
3595,67531;2,86598
3593,62415;2,86912
3591,573;2,88244
3589,52184;2,88568
3587,47069;2,87757
3585,41953;2,87101
3583,36838;2,87573
3581,31722;2,89199
3579,26607;2,91465
3577,21491;2,93019
3575,16375;2,92429
3573,1126;2,90527
3571,06144;2,8987
3569,01029;2,91675
3566,95913;2,94669
3564,90798;2,96358
3562,85682;2,96172
3560,80567;2,94564
3558,75451;2,92066
3556,70336;2,9035
3554,6522;2,89437
3552,60105;2,87828
3550,54989;2,86179
3548,49874;2,85911
3546,44758;2,87065
3544,39642;2,89317
3542,34527;2,91613
3540,29411;2,92342
3538,24296;2,91272
3536,1918;2,89545
3534,14065;2,8729
3532,08949;2,84651
3530,03834;2,83125
3527,98718;2,83113
3525,93603;2,83705
3523,88487;2,84334
3521,83372;2,85008
3519,78256;2,85931
3517,73141;2,86298
3515,68025;2,85104
3513,62909;2,83403
3511,57794;2,8279
3509,52678;2,8315
3507,47563;2,84435
3505,42447;2,86875
3503,37332;2,88374
3501,32216;2,86804
3499,27101;2,84212
3497,21985;2,8325
3495,1687;2,84372
3493,11754;2,86775
3491,06639;2,88411
3489,01523;2,88346
3486,96407;2,87422
3484,91292;2,86045
3482,86176;2,84989
3480,81061;2,85111
3478,75945;2,85669
3476,7083;2,86412
3474,65714;2,87813
3472,60599;2,87759
3470,55483;2,8525
3468,50368;2,84013
3466,45252;2,85486
3464,40137;2,86093
3462,35021;2,83949
3460,29906;2,82229
3458,2479;2,83525
3456,19674;2,85995
3454,14559;2,86917
3452,09443;2,8695
3450,04328;2,86835
3447,99212;2,8553
3445,94097;2,84442
3443,88981;2,85329
3441,83866;2,86362
3439,7875;2,86745
3437,73635;2,87963
3435,68519;2,88243
3433,63404;2,86512
3431,58288;2,85072
3429,53173;2,84869
3427,48057;2,85332
3425,42941;2,84948
3423,37826;2,8402
3421,3271;2,84785
3419,27595;2,86576
3417,22479;2,86951
3415,17364;2,86838
3413,12248;2,86387
3411,07133;2,85338
3409,02017;2,856
3406,96902;2,86413
3404,91786;2,85842
3402,86671;2,84737
3400,81555;2,84347
3398,7644;2,85298
3396,71324;2,87527
3394,66208;2,89712
3392,61093;2,90037
3390,55977;2,88498
3388,50862;2,86467
3386,45746;2,84659
3384,40631;2,83654
3382,35515;2,83839
3380,304;2,84405
3378,25284;2,8502
3376,20169;2,86588
3374,15053;2,88051
3372,09938;2,87254
3370,04822;2,86127
3367,99707;2,86016
3365,94591;2,85783
3363,89475;2,85774
3361,8436;2,87189
3359,79244;2,893
3357,74129;2,8979
3355,69013;2,88481
3353,63898;2,87897
3351,58782;2,8825
3349,53667;2,87768
3347,48551;2,86768
3345,43436;2,8587
3343,3832;2,8558
3341,33205;2,85982
3339,28089;2,87063
3337,22974;2,88768
3335,17858;2,89609
3333,12742;2,88691
3331,07627;2,87869
3329,02511;2,88158
3326,97396;2,8768
3324,9228;2,86331
3322,87165;2,86277
3320,82049;2,8682
3318,76934;2,86679
3316,71818;2,87154
3314,66703;2,88603
3312,61587;2,88712
3310,56472;2,8699
3308,51356;2,86179
3306,46241;2,86886
3304,41125;2,86946
3302,36009;2,86164
3300,30894;2,85999
3298,25778;2,86354
3296,20663;2,86439
3294,15547;2,85767
3292,10432;2,84578
3290,05316;2,83747
3288,00201;2,83211
3285,95085;2,82877
3283,8997;2,83703
3281,84854;2,85575
3279,79739;2,86377
3277,74623;2,85202
3275,69508;2,8334
3273,64392;2,82267
3271,59276;2,82859
3269,54161;2,84024
3267,49045;2,84146
3265,4393;2,83936
3263,38814;2,8428
3261,33699;2,84752
3259,28583;2,8515
3257,23468;2,85869
3255,18352;2,8753
3253,13237;2,88221
3251,08121;2,84466
3249,03006;2,80028
3246,9789;2,80536
3244,92775;2,83732
3242,87659;2,84207
3240,82543;2,82039
3238,77428;2,80425
3236,72312;2,80618
3234,67197;2,81217
3232,62081;2,80599
3230,56966;2,79934
3228,5185;2,80566
3226,46735;2,81389
3224,41619;2,81367
3222,36504;2,80194
3220,31388;2,78448
3218,26273;2,77938
3216,21157;2,78963
3214,16041;2,79885
3212,10926;2,80149
3210,0581;2,80093
3208,00695;2,80059
3205,95579;2,80625
3203,90464;2,80954
3201,85348;2,80799
3199,80233;2,81141
3197,75117;2,81523
3195,70002;2,8185
3193,64886;2,82574
3191,59771;2,82813
3189,54655;2,81237
3187,4954;2,78373
3185,44424;2,76811
3183,39308;2,77603
3181,34193;2,79019
3179,29077;2,79445
3177,23962;2,78981
3175,18846;2,78029
3173,13731;2,76573
3171,08615;2,74695
3169,035;2,73645
3166,98384;2,74068
3164,93269;2,74492
3162,88153;2,74509
3160,83038;2,74837
3158,77922;2,74837
3156,72807;2,73964
3154,67691;2,73206
3152,62575;2,73335
3150,5746;2,73608
3148,52344;2,73516
3146,47229;2,73537
3144,42113;2,73547
3142,36998;2,73091
3140,31882;2,72693
3138,26767;2,72972
3136,21651;2,733
3134,16536;2,73978
3132,1142;2,75298
3130,06305;2,74995
3128,01189;2,73335
3125,96074;2,72931
3123,90958;2,72911
3121,85842;2,71765
3119,80727;2,70611
3117,75611;2,70339
3115,70496;2,70442
3113,6538;2,70501
3111,60265;2,70415
3109,55149;2,704
3107,50034;2,7072
3105,44918;2,70396
3103,39803;2,69552
3101,34687;2,69482
3099,29572;2,69762
3097,24456;2,6988
3095,19341;2,70125
3093,14225;2,70026
3091,09109;2,68876
3089,03994;2,67441
3086,98878;2,67456
3084,93763;2,68863
3082,88647;2,69867
3080,83532;2,695
3078,78416;2,68627
3076,73301;2,68208
3074,68185;2,68032
3072,6307;2,67923
3070,57954;2,6773
3068,52839;2,67253
3066,47723;2,6686
3064,42608;2,66953
3062,37492;2,67635
3060,32376;2,68018
3058,27261;2,67198
3056,22145;2,66311
3054,1703;2,66521
3052,11914;2,66859
3050,06799;2,65982
3048,01683;2,64614
3045,96568;2,64441
3043,91452;2,65136
3041,86337;2,65222
3039,81221;2,64949
3037,76106;2,65079
3035,7099;2,6529
3033,65875;2,65147
3031,60759;2,64236
3029,55643;2,62865
3027,50528;2,62073
3025,45412;2,62013
3023,40297;2,61907
3021,35181;2,61334
3019,30066;2,60872
3017,2495;2,61008
3015,19835;2,61194
3013,14719;2,61187
3011,09604;2,61728
3009,04488;2,62492
3006,99373;2,62364
3004,94257;2,61576
3002,89142;2,60666
3000,84026;2,60078
2998,7891;2,60422
2996,73795;2,60988
2994,68679;2,6092
2992,63564;2,6093
2990,58448;2,61547
2988,53333;2,62303
2986,48217;2,62701
2984,43102;2,62994
2982,37986;2,63617
2980,32871;2,6422
2978,27755;2,64379
2976,2264;2,64476
2974,17524;2,64619
2972,12409;2,64865
2970,07293;2,65726
2968,02177;2,67217
2965,97062;2,68321
2963,91946;2,6797
2961,86831;2,67012
2959,81715;2,67114
2957,766;2,68162
2955,71484;2,68347
2953,66369;2,67033
2951,61253;2,65628
2949,56138;2,65035
2947,51022;2,65113
2945,45907;2,65528
2943,40791;2,65743
2941,35675;2,65636
2939,3056;2,65043
2937,25444;2,64009
2935,20329;2,63825
2933,15213;2,64596
2931,10098;2,6429
2929,04982;2,62926
2926,99867;2,62225
2924,94751;2,6221
2922,89636;2,62234
2920,8452;2,61657
2918,79405;2,60382
2916,74289;2,59491
2914,69174;2,59401
2912,64058;2,59452
2910,58942;2,59539
2908,53827;2,5972
2906,48711;2,59387
2904,43596;2,58249
2902,3848;2,57304
2900,33365;2,57179
2898,28249;2,57131
2896,23134;2,56669
2894,18018;2,5602
2892,12903;2,55181
2890,07787;2,54472
2888,02672;2,54578
2885,97556;2,55266
2883,92441;2,55893
2881,87325;2,56373
2879,82209;2,56798
2877,77094;2,5742
2875,71978;2,57882
2873,66863;2,57391
2871,61747;2,56333
2869,56632;2,55443
2867,51516;2,54637
2865,46401;2,54076
2863,41285;2,53884
2861,3617;2,5315
2859,31054;2,51658
2857,25939;2,50572
2855,20823;2,50109
2853,15708;2,494
2851,10592;2,48515
2849,05476;2,48087
2847,00361;2,4799
2844,95245;2,47805
2842,9013;2,4715
2840,85014;2,46159
2838,79899;2,45355
2836,74783;2,44764
2834,69668;2,44201
2832,64552;2,43973
2830,59437;2,43926
2828,54321;2,43524
2826,49206;2,42628
2824,4409;2,41574
2822,38975;2,41047
2820,33859;2,41005
2818,28743;2,41056
2816,23628;2,4083
2814,18512;2,39895
2812,13397;2,38762
2810,08281;2,38362
2808,03166;2,38853
2805,9805;2,39332
2803,92935;2,38913
2801,87819;2,38132
2799,82704;2,37664
2797,77588;2,37362
2795,72473;2,37055
2793,67357;2,36673
2791,62242;2,36311
2789,57126;2,3606
2787,5201;2,3569
2785,46895;2,35082
2783,41779;2,34541
2781,36664;2,34424
2779,31548;2,34764
2777,26433;2,34852
2775,21317;2,34038
2773,16202;2,33249
2771,11086;2,33311
2769,05971;2,33593
2767,00855;2,33398
2764,9574;2,32859
2762,90624;2,3231
2760,85509;2,31976
2758,80393;2,31925
2756,75277;2,31816
2754,70162;2,31558
2752,65046;2,31372
2750,59931;2,31308
2748,54815;2,31047
2746,497;2,30495
2744,44584;2,30206
2742,39469;2,30182
2740,34353;2,29878
2738,29238;2,29311
2736,24122;2,28982
2734,19007;2,28893
2732,13891;2,28493
2730,08776;2,27952
2728,0366;2,27879
2725,98544;2,28042
2723,93429;2,27913
2721,88313;2,27597
2719,83198;2,2733
2717,78082;2,27183
2715,72967;2,27167
2713,67851;2,27036
2711,62736;2,26669
2709,5762;2,2631
2707,52505;2,26079
2705,47389;2,25821
2703,42274;2,25303
2701,37158;2,24924
2699,32043;2,25139
2697,26927;2,25378
2695,21811;2,25171
2693,16696;2,24787
2691,1158;2,24428
2689,06465;2,24208
2687,01349;2,2422
2684,96234;2,24278
2682,91118;2,24153
2680,86003;2,23897
2678,80887;2,23809
2676,75772;2,23943
2674,70656;2,23976
2672,65541;2,23843
2670,60425;2,23877
2668,55309;2,24059
2666,50194;2,24005
2664,45078;2,23749
2662,39963;2,23484
2660,34847;2,23135
2658,29732;2,22817
2656,24616;2,22782
2654,19501;2,23039
2652,14385;2,23446
2650,0927;2,23757
2648,04154;2,23692
2645,99039;2,23493
2643,93923;2,23655
2641,88808;2,23903
2639,83692;2,23881
2637,78576;2,23939
2635,73461;2,24312
2633,68345;2,24844
2631,6323;2,25273
2629,58114;2,25598
2627,52999;2,25923
2625,47883;2,26139
2623,42768;2,26436
2621,37652;2,26938
2619,32537;2,27386
2617,27421;2,27689
2615,22306;2,27674
2613,1719;2,27405
2611,12075;2,27407
2609,06959;2,27679
2607,01843;2,27946
2604,96728;2,28132
2602,91612;2,28213
2600,86497;2,28348
2598,81381;2,28597
2596,76266;2,28864
2594,7115;2,28981
2592,66035;2,28735
2590,60919;2,28349
2588,55804;2,28301
2586,50688;2,28441
2584,45573;2,28392
2582,40457;2,28322
2580,35342;2,28415
2578,30226;2,28609
2576,2511;2,28739
2574,19995;2,28483
2572,14879;2,27919
2570,09764;2,27676
2568,04648;2,27974
2565,99533;2,28298
2563,94417;2,28449
2561,89302;2,28774
2559,84186;2,29061
2557,79071;2,28929
2555,73955;2,28598
2553,6884;2,28272
2551,63724;2,28074
2549,58609;2,28176
2547,53493;2,28482
2545,48377;2,28625
2543,43262;2,2856
2541,38146;2,28776
2539,33031;2,29346
2537,27915;2,29869
2535,228;2,30287
2533,17684;2,30745
2531,12569;2,31196
2529,07453;2,31507
2527,02338;2,31794
2524,97222;2,32209
2522,92107;2,32584
2520,86991;2,32826
2518,81876;2,3298
2516,7676;2,33117
2514,71644;2,33334
2512,66529;2,33445
2510,61413;2,33232
2508,56298;2,32816
2506,51182;2,32479
2504,46067;2,32324
2502,40951;2,32106
2500,35836;2,31565
2498,3072;2,30897
2496,25605;2,303
2494,20489;2,29549
2492,15374;2,28736
2490,10258;2,28147
2488,05143;2,27599
2486,00027;2,27022
2483,94911;2,26573
2481,89796;2,26175
2479,8468;2,25554
2477,79565;2,24714
2475,74449;2,2399
2473,69334;2,23312
2471,64218;2,2248
2469,59103;2,21902
2467,53987;2,21751
2465,48872;2,21488
2463,43756;2,21008
2461,38641;2,20601
2459,33525;2,20234
2457,2841;2,19755
2455,23294;2,19195
2453,18178;2,18732
2451,13063;2,18359
2449,07947;2,18139
2447,02832;2,18064
2444,97716;2,17841
2442,92601;2,17492
2440,87485;2,17247
2438,8237;2,17096
2436,77254;2,16821
2434,72139;2,16421
2432,67023;2,16217
2430,61908;2,16296
2428,56792;2,16203
2426,51677;2,15784
2424,46561;2,15515
2422,41445;2,15486
2420,3633;2,15367
2418,31214;2,15071
2416,26099;2,14763
2414,20983;2,14687
2412,15868;2,14842
2410,10752;2,14922
2408,05637;2,14728
2406,00521;2,14347
2403,95406;2,14211
2401,9029;2,14432
2399,85175;2,1455
2397,80059;2,14441
2395,74944;2,14215
2393,69828;2,14044
2391,64712;2,14031
2389,59597;2,14142
2387,54481;2,14284
2385,49366;2,14314
2383,4425;2,14233
2381,39135;2,14288
2379,34019;2,14559
2377,28904;2,14853
2375,23788;2,14953
2373,18673;2,14804
2371,13557;2,14737
2369,08442;2,15098
2367,03326;2,15754
2364,9821;2,16338
2362,93095;2,16422
2360,87979;2,15891
2358,82864;2,15323
2356,77748;2,15075
2354,72633;2,15018
2352,67517;2,15227
2350,62402;2,1557
2348,57286;2,15638
2346,52171;2,15433
2344,47055;2,15304
2342,4194;2,15384
2340,36824;2,15563
2338,31709;2,15726
2336,26593;2,15746
2334,21477;2,15533
2332,16362;2,15101
2330,11246;2,14689
2328,06131;2,1455
2326,01015;2,14615
2323,959;2,1486
2321,90784;2,15349
2319,85669;2,15728
2317,80553;2,15724
2315,75438;2,15698
2313,70322;2,15848
2311,65207;2,15962
2309,60091;2,15985
2307,54976;2,15918
2305,4986;2,1578
2303,44744;2,15722
2301,39629;2,15817
2299,34513;2,15967
2297,29398;2,16004
2295,24282;2,15869
2293,19167;2,15616
2291,14051;2,15385
2289,08936;2,15407
2287,0382;2,15719
2284,98705;2,16068
2282,93589;2,16266
2280,88474;2,16348
2278,83358;2,16371
2276,78243;2,16416
2274,73127;2,16538
2272,68011;2,16593
2270,62896;2,16597
2268,5778;2,16766
2266,52665;2,17078
2264,47549;2,17425
2262,42434;2,17714
2260,37318;2,17812
2258,32203;2,17804
2256,27087;2,17873
2254,21972;2,18021
2252,16856;2,18148
2250,11741;2,18178
2248,06625;2,18239
2246,0151;2,18486
2243,96394;2,18776
2241,91278;2,1894
2239,86163;2,19165
2237,81047;2,19539
2235,75932;2,19808
2233,70816;2,19927
2231,65701;2,19968
2229,60585;2,19973
2227,5547;2,2016
2225,50354;2,20452
2223,45239;2,20604
2221,40123;2,20748
2219,35008;2,21013
2217,29892;2,21238
2215,24777;2,21234
2213,19661;2,21132
2211,14545;2,21207
2209,0943;2,21395
2207,04314;2,2153
2204,99199;2,21635
2202,94083;2,21786
2200,88968;2,22016
2198,83852;2,22251
2196,78737;2,2249
2194,73621;2,22714
2192,68506;2,22732
2190,6339;2,22507
2188,58275;2,22326
2186,53159;2,22482
2184,48044;2,22717
2182,42928;2,22699
2180,37812;2,22655
2178,32697;2,22759
2176,27581;2,2302
2174,22466;2,23456
2172,1735;2,23801
2170,12235;2,24052
2168,07119;2,24491
2166,02004;2,25
2163,96888;2,25338
2161,91773;2,25523
2159,86657;2,25777
2157,81542;2,26228
2155,76426;2,2681
2153,71311;2,27389
2151,66195;2,27893
2149,61079;2,28401
2147,55964;2,2887
2145,50848;2,29058
2143,45733;2,28978
2141,40617;2,28971
2139,35502;2,29077
2137,30386;2,29022
2135,25271;2,2895
2133,20155;2,29043
2131,1504;2,28923
2129,09924;2,28597
2127,04809;2,28362
2124,99693;2,28021
2122,94578;2,27693
2120,89462;2,27739
2118,84346;2,27869
2116,79231;2,27522
2114,74115;2,26823
2112,69;2,26234
2110,63884;2,2606
2108,58769;2,26376
2106,53653;2,26602
2104,48538;2,26385
2102,43422;2,26242
2100,38307;2,26426
2098,33191;2,26566
2096,28076;2,26541
2094,2296;2,26472
2092,17844;2,26339
2090,12729;2,2622
2088,07613;2,2623
2086,02498;2,26331
2083,97382;2,26578
2081,92267;2,2691
2079,87151;2,27123
2077,82036;2,27121
2075,7692;2,27005
2073,71805;2,27162
2071,66689;2,27582
2069,61574;2,27766
2067,56458;2,27711
2065,51343;2,27673
2063,46227;2,27592
2061,41111;2,27456
2059,35996;2,27469
2057,3088;2,27773
2055,25765;2,28079
2053,20649;2,28004
2051,15534;2,27877
2049,10418;2,2798
2047,05303;2,28098
2045,00187;2,28278
2042,95072;2,28454
2040,89956;2,28431
2038,84841;2,28415
2036,79725;2,28424
2034,7461;2,28416
2032,69494;2,28657
2030,64378;2,2895
2028,59263;2,28875
2026,54147;2,2858
2024,49032;2,28398
2022,43916;2,28492
2020,38801;2,2877
2018,33685;2,29028
2016,2857;2,29244
2014,23454;2,29285
2012,18339;2,29078
2010,13223;2,28937
2008,08108;2,29029
2006,02992;2,29185
2003,97877;2,29248
2001,92761;2,29298
1999,87645;2,2931
1997,8253;2,29158
1995,77414;2,29065
1993,72299;2,29151
1991,67183;2,29351
1989,62068;2,29621
1987,56952;2,29734
1985,51837;2,29735
1983,46721;2,2981
1981,41606;2,29917
1979,3649;2,30015
1977,31375;2,30283
1975,26259;2,30646
1973,21144;2,30837
1971,16028;2,30973
1969,10912;2,31266
1967,05797;2,3156
1965,00681;2,31744
1962,95566;2,32117
1960,9045;2,32891
1958,85335;2,33396
1956,80219;2,33096
1954,75104;2,32581
1952,69988;2,32473
1950,64873;2,32735
1948,59757;2,33044
1946,54642;2,33103
1944,49526;2,32962
1942,44411;2,3285
1940,39295;2,3281
1938,34179;2,32742
1936,29064;2,32829
1934,23948;2,3307
1932,18833;2,33369
1930,13717;2,33727
1928,08602;2,34047
1926,03486;2,34141
1923,98371;2,34043
1921,93255;2,34288
1919,8814;2,3461
1917,83024;2,34647
1915,77909;2,35007
1913,72793;2,35548
1911,67678;2,35869
1909,62562;2,35987
1907,57446;2,35984
1905,52331;2,35867
1903,47215;2,35984
1901,421;2,3668
1899,36984;2,3768
1897,31869;2,38324
1895,26753;2,38421
1893,21638;2,38422
1891,16522;2,38528
1889,11407;2,38917
1887,06291;2,39623
1885,01176;2,40198
1882,9606;2,40594
1880,90945;2,40917
1878,85829;2,41234
1876,80713;2,41625
1874,75598;2,42258
1872,70482;2,43254
1870,65367;2,44073
1868,60251;2,44108
1866,55136;2,43681
1864,5002;2,43534
1862,44905;2,43852
1860,39789;2,44287
1858,34674;2,44601
1856,29558;2,44889
1854,24443;2,45419
1852,19327;2,46237
1850,14212;2,47086
1848,09096;2,47737
1846,0398;2,47972
1843,98865;2,48097
1841,93749;2,48896
1839,88634;2,49882
1837,83518;2,50481
1835,78403;2,50856
1833,73287;2,51129
1831,68172;2,51438
1829,63056;2,52342
1827,57941;2,53663
1825,52825;2,54414
1823,4771;2,54884
1821,42594;2,55538
1819,37478;2,56235
1817,32363;2,56794
1815,27247;2,5739
1813,22132;2,58276
1811,17016;2,59246
1809,11901;2,60024
1807,06785;2,60952
1805,0167;2,62651
1802,96554;2,64857
1800,91439;2,66753
1798,86323;2,68031
1796,81208;2,68783
1794,76092;2,68886
1792,70977;2,68093
1790,65861;2,66971
1788,60745;2,66291
1786,5563;2,66245
1784,50514;2,66496
1782,45399;2,6632
1780,40283;2,65815
1778,35168;2,65753
1776,30052;2,66074
1774,24937;2,66059
1772,19821;2,65705
1770,14706;2,65827
1768,0959;2,66083
1766,04475;2,66169
1763,99359;2,66301
1761,94244;2,67099
1759,89128;2,68634
1757,84012;2,69768
1755,78897;2,70541
1753,73781;2,71149
1751,68666;2,71389
1749,6355;2,71771
1747,58435;2,72394
1745,53319;2,73362
1743,48204;2,74578
1741,43088;2,75315
1739,37973;2,75747
1737,32857;2,76284
1735,27742;2,76364
1733,22626;2,77001
1731,17511;2,78141
1729,12395;2,78312
1727,07279;2,77968
1725,02164;2,78093
1722,97048;2,79178
1720,91933;2,80512
1718,86817;2,81706
1716,81702;2,84307
1714,76586;2,87628
1712,71471;2,88876
1710,66355;2,88554
1708,6124;2,8925
1706,56124;2,91801
1704,51009;2,95274
1702,45893;2,98563
1700,40778;3,02163
1698,35662;3,06099
1696,30546;3,07905
1694,25431;3,08701
1692,20315;3,0951
1690,152;3,11796
1688,10084;3,15519
1686,04969;3,157
1683,99853;3,11412
1681,94738;3,09358
1679,89622;3,0997
1677,84507;3,10491
1675,79391;3,10265
1673,74276;3,10697
1671,6916;3,11928
1669,64045;3,12849
1667,58929;3,13032
1665,53813;3,12277
1663,48698;3,10784
1661,43582;3,09049
1659,38467;3,06936
1657,33351;3,0379
1655,28236;2,99269
1653,2312;2,97064
1651,18005;3,01666
1649,12889;3,05519
1647,07774;3,03103
1645,02658;2,98984
1642,97543;2,97442
1640,92427;2,97079
1638,87312;2,96367
1636,82196;2,95468
1634,7708;2,95405
1632,71965;2,95492
1630,66849;2,94413
1628,61734;2,92885
1626,56618;2,92417
1624,51503;2,92825
1622,46387;2,92974
1620,41272;2,92349
1618,36156;2,90738
1616,31041;2,89486
1614,25925;2,90045
1612,2081;2,91315
1610,15694;2,92248
1608,10579;2,92281
1606,05463;2,91687
1604,00347;2,91487
1601,95232;2,91765
1599,90116;2,9149
1597,85001;2,90246
1595,79885;2,89049
1593,7477;2,88605
1591,69654;2,8852
1589,64539;2,88693
1587,59423;2,89761
1585,54308;2,91839
1583,49192;2,93743
1581,44077;2,94328
1579,38961;2,94085
1577,33846;2,93918
1575,2873;2,94472
1573,23614;2,95701
1571,18499;2,96786
1569,13383;2,97606
1567,08268;2,97858
1565,03152;2,97283
1562,98037;2,95906
1560,92921;2,92411
1558,87806;2,88995
1556,8269;2,90674
1554,77575;2,9352
1552,72459;2,94302
1550,67344;2,93639
1548,62228;2,93478
1546,57113;2,94377
1544,51997;2,94762
1542,46881;2,93845
1540,41766;2,93157
1538,3665;2,93775
1536,31535;2,93431
1534,26419;2,91343
1532,21304;2,89693
1530,16188;2,89128
1528,11073;2,88978
1526,05957;2,89749
1524,00842;2,90597
1521,95726;2,89618
1519,90611;2,88029
1517,85495;2,87232
1515,80379;2,86947
1513,75264;2,86495
1511,70148;2,85502
1509,65033;2,84558
1507,59917;2,83379
1505,54802;2,81995
1503,49686;2,80797
1501,44571;2,79378
1499,39455;2,78051
1497,3434;2,7708
1495,29224;2,76473
1493,24109;2,75812
1491,18993;2,74118
1489,13878;2,71869
1487,08762;2,70743
1485,03646;2,71379
1482,98531;2,72609
1480,93415;2,73276
1478,883;2,73493
1476,83184;2,73735
1474,78069;2,74326
1472,72953;2,75351
1470,67838;2,76736
1468,62722;2,77356
1466,57607;2,77128
1464,52491;2,77917
1462,47376;2,8042
1460,4226;2,82819
1458,37145;2,84372
1456,32029;2,85569
1454,26913;2,85184
1452,21798;2,8302
1450,16682;2,81128
1448,11567;2,80452
1446,06451;2,80093
1444,01336;2,79473
1441,9622;2,79388
1439,91105;2,79632
1437,85989;2,78722
1435,80874;2,77631
1433,75758;2,77976
1431,70643;2,78899
1429,65527;2,79527
1427,60412;2,79094
1425,55296;2,77649
1423,5018;2,76775
1421,45065;2,76931
1419,39949;2,77041
1417,34834;2,77233
1415,29718;2,77629
1413,24603;2,78015
1411,19487;2,77993
1409,14372;2,77312
1407,09256;2,76742
1405,04141;2,76996
1402,99025;2,78111
1400,9391;2,79504
1398,88794;2,80413
1396,83679;2,80466
1394,78563;2,80217
1392,73447;2,80373
1390,68332;2,80261
1388,63216;2,79641
1386,58101;2,79608
1384,52985;2,80579
1382,4787;2,8163
1380,42754;2,81762
1378,37639;2,80928
1376,32523;2,80263
1374,27408;2,80426
1372,22292;2,80937
1370,17177;2,81274
1368,12061;2,81845
1366,06946;2,82292
1364,0183;2,81767
1361,96714;2,81458
1359,91599;2,8231
1357,86483;2,83416
1355,81368;2,84071
1353,76252;2,8366
1351,71137;2,82181
1349,66021;2,81407
1347,60906;2,82418
1345,5579;2,83878
1343,50675;2,84619
1341,45559;2,84915
1339,40444;2,84934
1337,35328;2,84693
1335,30213;2,85018
1333,25097;2,86514
1331,19981;2,87922
1329,14866;2,87823
1327,0975;2,87067
1325,04635;2,86864
1322,99519;2,872
1320,94404;2,87733
1318,89288;2,8829
1316,84173;2,88676
1314,79057;2,88386
1312,73942;2,87779
1310,68826;2,87696
1308,63711;2,88093
1306,58595;2,88294
1304,5348;2,87224
1302,48364;2,85133
1300,43248;2,83714
1298,38133;2,84103
1296,33017;2,86281
1294,27902;2,88596
1292,22786;2,89296
1290,17671;2,88931
1288,12555;2,88616
1286,0744;2,88212
1284,02324;2,87782
1281,97209;2,87524
1279,92093;2,87337
1277,86978;2,8785
1275,81862;2,88962
1273,76747;2,89405
1271,71631;2,89189
1269,66515;2,89481
1267,614;2,91031
1265,56284;2,93397
1263,51169;2,94761
1261,46053;2,94462
1259,40938;2,93673
1257,35822;2,92582
1255,30707;2,91682
1253,25591;2,92671
1251,20476;2,9446
1249,1536;2,94534
1247,10245;2,93996
1245,05129;2,94362
1243,00013;2,94574
1240,94898;2,94719
1238,89782;2,95278
1236,84667;2,95701
1234,79551;2,95317
1232,74436;2,94589
1230,6932;2,94389
1228,64205;2,94204
1226,59089;2,92723
1224,53974;2,90899
1222,48858;2,90635
1220,43743;2,91687
1218,38627;2,91997
1216,33512;2,91185
1214,28396;2,90698
1212,2328;2,90457
1210,18165;2,89997
1208,13049;2,90544
1206,07934;2,92204
1204,02818;2,93377
1201,97703;2,93142
1199,92587;2,92312
1197,87472;2,92309
1195,82356;2,93476
1193,77241;2,95156
1191,72125;2,95424
1189,6701;2,94814
1187,61894;2,95275
1185,56779;2,95503
1183,51663;2,9496
1181,46547;2,94989
1179,41432;2,9591
1177,36316;2,97424
1175,31201;2,99031
1173,26085;3,00701
1171,2097;3,02425
1169,15854;3,03336
1167,10739;3,03951
1165,05623;3,05936
1163,00508;3,08202
1160,95392;3,07321
1158,90277;3,03659
1156,85161;3,01425
1154,80046;3,026
1152,7493;3,051
1150,69814;3,06737
1148,64699;3,08647
1146,59583;3,10699
1144,54468;3,11822
1142,49352;3,12829
1140,44237;3,13312
1138,39121;3,12571
1136,34006;3,12083
1134,2889;3,1311
1132,23775;3,11997
1130,18659;3,09278
1128,13544;3,07817
1126,08428;3,07728
1124,03313;3,08704
1121,98197;3,10363
1119,93081;3,10695
1117,87966;3,08341
1115,8285;3,05599
1113,77735;3,03951
1111,72619;3,03132
1109,67504;3,02081
1107,62388;3,0041
1105,57273;2,99078
1103,52157;2,97658
1101,47042;2,96017
1099,41926;2,9433
1097,36811;2,9217
1095,31695;2,89939
1093,2658;2,88437
1091,21464;2,8658
1089,16348;2,83163
1087,11233;2,79786
1085,06117;2,77442
1083,01002;2,74717
1080,95886;2,71213
1078,90771;2,68969
1076,85655;2,68765
1074,8054;2,68979
1072,75424;2,68859
1070,70309;2,69108
1068,65193;2,69839
1066,60078;2,69491
1064,54962;2,67095
1062,49847;2,63485
1060,44731;2,59063
1058,39615;2,54345
1056,345;2,49899
1054,29384;2,45954
1052,24269;2,42374
1050,19153;2,38876
1048,14038;2,3583
1046,08922;2,33456
1044,03807;2,31505
1041,98691;2,29888
1039,93576;2,28366
1037,8846;2,26931
1035,83345;2,26164
1033,78229;2,26133
1031,73114;2,25942
1029,67998;2,25396
1027,62882;2,25083
1025,57767;2,24756
1023,52651;2,24361
1021,47536;2,24309
1019,4242;2,24359
1017,37305;2,24127
1015,32189;2,23765
1013,27074;2,23561
1011,21958;2,23317
1009,16843;2,22758
1007,11727;2,22007
1005,06612;2,21428
1003,01496;2,21041
1000,96381;2,20565
998,91265;2,19908
996,86149;2,1903
994,81034;2,17912
992,75918;2,16669
990,70803;2,15571
988,65687;2,14627
986,60572;2,13515
984,55456;2,12265
982,50341;2,11213
980,45225;2,10521
978,4011;2,1018
976,34994;2,10141
974,29879;2,10296
972,24763;2,1051
970,19647;2,10869
968,14532;2,11377
966,09416;2,11525
964,04301;2,10976
961,99185;2,10172
959,9407;2,09595
957,88954;2,0925
955,83839;2,09237
953,78723;2,09871
951,73608;2,11178
949,68492;2,13058
947,63377;2,1537
945,58261;2,1776
943,53146;2,20051
941,4803;2,2229
939,42914;2,24567
937,37799;2,26748
935,32683;2,28535
933,27568;2,30264
931,22452;2,32115
929,17337;2,33725
927,12221;2,34899
925,07106;2,35794
923,0199;2,36818
920,96875;2,38008
918,91759;2,39464
916,86644;2,4089
914,81528;2,41708
912,76413;2,42529
910,71297;2,43586
908,66181;2,44563
906,61066;2,45354
904,5595;2,46064
902,50835;2,47167
900,45719;2,48201
898,40604;2,48323
896,35488;2,48169
894,30373;2,48425
892,25257;2,49022
890,20142;2,50103
888,15026;2,51199
886,09911;2,51742
884,04795;2,52246
881,9968;2,5305
879,94564;2,53765
877,89448;2,53834
875,84333;2,5339
873,79217;2,53447
871,74102;2,54144
869,68986;2,55442
867,63871;2,56809
865,58755;2,57302
863,5364;2,57748
861,48524;2,58804
859,43409;2,60072
857,38293;2,61351
855,33178;2,6262
853,28062;2,63748
851,22947;2,64643
849,17831;2,65199
847,12715;2,65369
845,076;2,64839
843,02484;2,63901
840,97369;2,63777
838,92253;2,63915
836,87138;2,63565
834,82022;2,63775
832,76907;2,644
830,71791;2,65073
828,66676;2,65463
826,6156;2,65448
824,56445;2,66804
822,51329;2,69363
820,46214;2,71194
818,41098;2,71703
816,35982;2,70233
814,30867;2,68231
812,25751;2,67588
810,20636;2,67903
808,1552;2,69842
806,10405;2,71935
804,05289;2,71742
802,00174;2,71439
799,95058;2,70216
797,89943;2,67135
795,84827;2,65746
793,79712;2,66645
791,74596;2,67687
789,69481;2,68309
787,64365;2,67943
785,59249;2,66889
783,54134;2,67809
781,49018;2,69914
779,43903;2,70391
777,38787;2,70499
775,33672;2,71902
773,28556;2,73509
771,23441;2,73836
769,18325;2,73584
767,1321;2,7391
765,08094;2,74395
763,02979;2,74389
760,97863;2,73721
758,92748;2,73844
756,87632;2,75959
754,82516;2,77447
752,77401;2,7694
750,72285;2,77618
748,6717;2,80372
746,62054;2,8089
744,56939;2,77826
742,51823;2,74862
740,46708;2,74197
738,41592;2,76254
736,36477;2,79209
734,31361;2,80223
732,26246;2,79829
730,2113;2,7982
728,16015;2,80681
726,10899;2,82284
724,05783;2,83258
722,00668;2,82601
719,95552;2,81042
717,90437;2,80265
715,85321;2,81157
713,80206;2,8443
711,7509;2,89594
709,69975;2,91782
707,64859;2,88738
705,59744;2,8615
703,54628;2,86412
701,49513;2,87394
699,44397;2,89051
697,39281;2,91401
695,34166;2,9216
693,2905;2,90763
691,23935;2,89204
689,18819;2,87217
687,13704;2,83068
685,08588;2,79163
683,03473;2,79287
680,98357;2,82543
678,93242;2,84822
676,88126;2,84558
674,83011;2,81759
672,77895;2,77031
670,7278;2,73446
668,67664;2,74355
666,62548;2,78933
664,57433;2,8082
662,52317;2,78423
660,47202;2,75619
658,42086;2,75055
656,36971;2,75558
654,31855;2,759
652,2674;2,76854
650,21624;2,79756
648,16509;2,84132
646,11393;2,87405
644,06278;2,87719
642,01162;2,8706
639,96047;2,88041
637,90931;2,88322
635,85815;2,86601
633,807;2,85634
631,75584;2,86857
629,70469;2,87535
627,65353;2,85815
625,60238;2,86363
623,55122;2,92502
621,50007;2,96997
619,44891;2,92472
617,39776;2,84492
615,3466;2,82459
613,29545;2,86882
611,24429;2,89592
609,19314;2,87664
607,14198;2,87434
605,09082;2,91754
603,03967;2,96565
600,98851;2,97896
598,93736;2,96294
596,8862;2,95225
594,83505;2,97643
592,78389;3,01828
590,73274;3,01172
588,68158;2,99165
586,63043;2,97823
584,57927;2,98274
582,52812;2,98927
580,47696;2,98498
578,42581;3,00833
576,37465;3,02018
574,32349;2,9691
572,27234;2,91425
570,22118;2,89796
568,17003;2,90795
566,11887;2,9155
564,06772;2,92425
562,01656;2,94604
559,96541;2,91428
557,91425;2,80823
555,8631;2,70478
553,81194;2,6475
551,76079;2,62046
549,70963;2,60431
547,65848;2,6051
545,60732;2,60749
543,55616;2,5737
541,50501;2,5162
539,45385;2,46928
537,4027;2,43066
535,35154;2,40027
533,30039;2,39413
531,24923;2,38886
529,19808;2,35251
527,14692;2,31295
525,09577;2,28885
523,04461;2,26309
520,99346;2,23918
518,9423;2,21355
516,89115;2,16893
514,83999;2,12174
512,78883;2,09404
510,73768;2,08332
508,68652;2,07502
506,63537;2,06398
504,58421;2,04811
502,53306;2,02262
500,4819;2,00212
498,43075;1,9991
496,37959;2,00238
494,32844;2,00548
492,27728;2,0209
490,22613;2,04655
488,17497;2,06259
486,12382;2,07488
484,07266;2,09765
482,0215;2,1166
479,97035;2,12115
477,91919;2,12189
475,86804;2,12464
473,81688;2,12119
471,76573;2,09808
469,71457;2,05984
467,66342;2,02813
465,61226;2,00974
463,56111;1,98878
461,50995;1,96297
459,4588;1,94896
457,40764;1,95184
455,35649;1,95814
453,30533;1,95778
451,25417;1,95801
449,20302;1,96159
447,15186;1,96086
445,10071;1,94331
443,04955;1,90537
440,9984;1,8685
438,94724;1,85581
436,89609;1,87005
434,84493;1,89722
432,79378;1,9193
430,74262;1,93633
428,69147;1,9537
426,64031;1,96734
424,58916;1,98381
422,538;2,0118
420,48684;2,04405
418,43569;2,07806
416,38453;2,09713
414,33338;2,08855
412,28222;2,08371
410,23107;2,10352
408,17991;2,13019
406,12876;2,14204
404,0776;2,14367
402,02645;2,14591
399,97529;2,15237
