3997,70175;1,90791
3995,6506;1,90794
3993,59944;1,91071
3991,54829;1,91288
3989,49713;1,91409
3987,44598;1,9154
3985,39482;1,91645
3983,34367;1,91912
3981,29251;1,92214
3979,24136;1,92203
3977,1902;1,92123
3975,13905;1,92373
3973,08789;1,92798
3971,03673;1,93058
3968,98558;1,93166
3966,93442;1,93362
3964,88327;1,93686
3962,83211;1,93986
3960,78096;1,94238
3958,7298;1,94432
3956,67865;1,9457
3954,62749;1,94734
3952,57634;1,94987
3950,52518;1,95262
3948,47403;1,95448
3946,42287;1,95586
3944,37172;1,95674
3942,32056;1,95708
3940,2694;1,95657
3938,21825;1,95514
3936,16709;1,95376
3934,11594;1,95001
3932,06478;1,94374
3930,01363;1,93853
3927,96247;1,9345
3925,91132;1,93043
3923,86016;1,92802
3921,80901;1,92482
3919,75785;1,91715
3917,7067;1,90891
3915,65554;1,90475
3913,60439;1,90156
3911,55323;1,89563
3909,50207;1,89086
3907,45092;1,89003
3905,39976;1,89115
3903,34861;1,89167
3901,29745;1,88704
3899,2463;1,87957
3897,19514;1,8785
3895,14399;1,88022
3893,09283;1,87633
3891,04168;1,86948
3888,99052;1,86582
3886,93937;1,86212
3884,88821;1,8634
3882,83706;1,86857
3880,7859;1,86763
3878,73474;1,86702
3876,68359;1,86826
3874,63243;1,8689
3872,58128;1,87194
3870,53012;1,87365
3868,47897;1,8759
3866,42781;1,87484
3864,37666;1,86849
3862,3255;1,86382
3860,27435;1,86133
3858,22319;1,85875
3856,17204;1,85348
3854,12088;1,84993
3852,06973;1,85621
3850,01857;1,86208
3847,96741;1,86197
3845,91626;1,86035
3843,8651;1,86049
3841,81395;1,86348
3839,76279;1,86425
3837,71164;1,86257
3835,66048;1,86298
3833,60933;1,86394
3831,55817;1,86563
3829,50702;1,8686
3827,45586;1,86963
3825,40471;1,87121
3823,35355;1,87092
3821,3024;1,86931
3819,25124;1,87364
3817,20008;1,8728
3815,14893;1,86985
3813,09777;1,87195
3811,04662;1,87197
3808,99546;1,86905
3806,94431;1,86974
3804,89315;1,87703
3802,842;1,87847
3800,79084;1,87843
3798,73969;1,88324
3796,68853;1,88424
3794,63738;1,88357
3792,58622;1,88169
3790,53506;1,88017
3788,48391;1,88326
3786,43275;1,88862
3784,3816;1,89288
3782,33044;1,89593
3780,27929;1,8975
3778,22813;1,90018
3776,17698;1,90329
3774,12582;1,90502
3772,07467;1,90533
3770,02351;1,90595
3767,97236;1,90967
3765,9212;1,91307
3763,87005;1,91746
3761,81889;1,92101
3759,76773;1,92161
3757,71658;1,92241
3755,66542;1,92277
3753,61427;1,92074
3751,56311;1,9218
3749,51196;1,93352
3747,4608;1,94588
3745,40965;1,94486
3743,35849;1,94628
3741,30734;1,95607
3739,25618;1,96083
3737,20503;1,96283
3735,15387;1,96794
3733,10272;1,97343
3731,05156;1,9789
3729,0004;1,98521
3726,94925;1,98957
3724,89809;1,99461
3722,84694;2,00076
3720,79578;2,00764
3718,74463;2,01563
3716,69347;2,02664
3714,64232;2,04007
3712,59116;2,05556
3710,54001;2,07512
3708,48885;2,09343
3706,4377;2,10857
3704,38654;2,12584
3702,33539;2,14921
3700,28423;2,17867
3698,23307;2,20793
3696,18192;2,23245
3694,13076;2,25121
3692,07961;2,26275
3690,02845;2,26954
3687,9773;2,27693
3685,92614;2,28415
3683,87499;2,28756
3681,82383;2,29632
3679,77268;2,31661
3677,72152;2,34222
3675,67037;2,3694
3673,61921;2,39931
3671,56806;2,42307
3669,5169;2,44681
3667,46574;2,47672
3665,41459;2,50591
3663,36343;2,53557
3661,31228;2,56515
3659,26112;2,58801
3657,20997;2,60225
3655,15881;2,62097
3653,10766;2,6529
3651,0565;2,69399
3649,00535;2,73178
3646,95419;2,75015
3644,90304;2,76251
3642,85188;2,77959
3640,80073;2,79707
3638,74957;2,80568
3636,69841;2,80326
3634,64726;2,80127
3632,5961;2,81039
3630,54495;2,8239
3628,49379;2,84298
3626,44264;2,86706
3624,39148;2,87285
3622,34033;2,86062
3620,28917;2,86255
3618,23802;2,8968
3616,18686;2,93097
3614,13571;2,94094
3612,08455;2,93958
3610,0334;2,9432
3607,98224;2,95211
3605,93108;2,95318
3603,87993;2,94579
3601,82877;2,94564
3599,77762;2,97209
3597,72646;3,00912
3595,67531;3,01109
3593,62415;2,98292
3591,573;2,96844
3589,52184;2,97968
3587,47069;3,00747
3585,41953;3,03308
3583,36838;3,04203
3581,31722;3,03494
3579,26607;3,01775
3577,21491;3,00027
3575,16375;2,99636
3573,1126;3,01455
3571,06144;3,04682
3569,01029;3,07257
3566,95913;3,07342
3564,90798;3,06469
3562,85682;3,06724
3560,80567;3,05408
3558,75451;3,00208
3556,70336;2,94597
3554,6522;2,92506
3552,60105;2,93848
3550,54989;2,96576
3548,49874;2,99233
3546,44758;3,00607
3544,39642;3,00601
3542,34527;3,0079
3540,29411;3,01298
3538,24296;3,00589
3536,1918;2,99308
3534,14065;2,99995
3532,08949;3,02595
3530,03834;3,04041
3527,98718;3,02313
3525,93603;2,99862
3523,88487;3,00044
3521,83372;3,01361
3519,78256;3,00181
3517,73141;2,98259
3515,68025;2,9942
3513,62909;3,02351
3511,57794;3,02872
3509,52678;3,01053
3507,47563;2,98877
3505,42447;2,9695
3503,37332;2,97129
3501,32216;2,99777
3499,27101;3,01863
3497,21985;3,02656
3495,1687;3,03505
3493,11754;3,02875
3491,06639;2,99583
3489,01523;2,96495
3486,96407;2,97776
3484,91292;3,02519
3482,86176;3,04523
3480,81061;3,02107
3478,75945;3,00269
3476,7083;3,00979
3474,65714;3,01928
3472,60599;3,02014
3470,55483;3,01961
3468,50368;3,01711
3466,45252;2,99678
3464,40137;2,97633
3462,35021;2,97669
3460,29906;2,9881
3458,2479;3,00653
3456,19674;3,02454
3454,14559;3,01642
3452,09443;2,98281
3450,04328;2,96752
3447,99212;2,97581
3445,94097;2,98742
3443,88981;3,00071
3441,83866;3,01643
3439,7875;3,03377
3437,73635;3,04009
3435,68519;3,02659
3433,63404;3,00612
3431,58288;2,98967
3429,53173;2,98788
3427,48057;3,00194
3425,42941;3,01585
3423,37826;3,0212
3421,3271;3,01503
3419,27595;3,00273
3417,22479;2,98855
3415,17364;2,97871
3413,12248;2,98299
3411,07133;3,00708
3409,02017;3,04189
3406,96902;3,05718
3404,91786;3,03648
3402,86671;2,99625
3400,81555;2,96401
3398,7644;2,9584
3396,71324;2,96968
3394,66208;2,98059
3392,61093;2,99318
3390,55977;3,01153
3388,50862;3,02346
3386,45746;3,01649
3384,40631;3,01355
3382,35515;3,02857
3380,304;3,03607
3378,25284;3,03669
3376,20169;3,03933
3374,15053;3,02578
3372,09938;3,01171
3370,04822;3,01694
3367,99707;3,01053
3365,94591;2,98014
3363,89475;2,97407
3361,8436;3,0065
3359,79244;3,01758
3357,74129;2,98017
3355,69013;2,94707
3353,63898;2,94524
3351,58782;2,96264
3349,53667;2,99164
3347,48551;3,01371
3345,43436;3,01195
3343,3832;3,00136
3341,33205;3,00256
3339,28089;3,01333
3337,22974;3,02706
3335,17858;3,03987
3333,12742;3,02489
3331,07627;2,9847
3329,02511;2,97065
3326,97396;2,98519
3324,9228;2,99935
3322,87165;3,00685
3320,82049;2,99844
3318,76934;2,98631
3316,71818;2,9891
3314,66703;2,99446
3312,61587;2,99065
3310,56472;2,98979
3308,51356;2,99294
3306,46241;2,98982
3304,41125;2,98778
3302,36009;2,9886
3300,30894;2,97886
3298,25778;2,96997
3296,20663;2,97914
3294,15547;2,99992
3292,10432;3,01069
3290,05316;3,00187
3288,00201;2,98722
3285,95085;2,98201
3283,8997;2,98137
3281,84854;2,97249
3279,79739;2,95583
3277,74623;2,95022
3275,69508;2,96029
3273,64392;2,96085
3271,59276;2,95452
3269,54161;2,96213
3267,49045;2,96143
3265,4393;2,94441
3263,38814;2,94527
3261,33699;2,96942
3259,28583;2,97773
3257,23468;2,95138
3255,18352;2,92513
3253,13237;2,91896
3251,08121;2,91729
3249,03006;2,91733
3246,9789;2,92729
3244,92775;2,94113
3242,87659;2,94708
3240,82543;2,94028
3238,77428;2,92696
3236,72312;2,9294
3234,67197;2,944
3232,62081;2,94118
3230,56966;2,9368
3228,5185;2,94801
3226,46735;2,95148
3224,41619;2,94259
3222,36504;2,9363
3220,31388;2,93239
3218,26273;2,93257
3216,21157;2,93958
3214,16041;2,93838
3212,10926;2,92995
3210,0581;2,93312
3208,00695;2,94282
3205,95579;2,94185
3203,90464;2,93089
3201,85348;2,92047
3199,80233;2,91852
3197,75117;2,90852
3195,70002;2,88614
3193,64886;2,87801
3191,59771;2,89351
3189,54655;2,9216
3187,4954;2,93949
3185,44424;2,93003
3183,39308;2,91229
3181,34193;2,90784
3179,29077;2,90956
3177,23962;2,90941
3175,18846;2,91433
3173,13731;2,91554
3171,08615;2,90649
3169,035;2,90114
3166,98384;2,90177
3164,93269;2,903
3162,88153;2,91076
3160,83038;2,92046
3158,77922;2,91496
3156,72807;2,90077
3154,67691;2,89009
3152,62575;2,88692
3150,5746;2,90132
3148,52344;2,9149
3146,47229;2,90187
3144,42113;2,88002
3142,36998;2,87068
3140,31882;2,8742
3138,26767;2,88585
3136,21651;2,90104
3134,16536;2,9073
3132,1142;2,89439
3130,06305;2,87528
3128,01189;2,86279
3125,96074;2,85823
3123,90958;2,86541
3121,85842;2,87915
3119,80727;2,87936
3117,75611;2,87169
3115,70496;2,88197
3113,6538;2,89618
3111,60265;2,89013
3109,55149;2,88283
3107,50034;2,88638
3105,44918;2,8861
3103,39803;2,88048
3101,34687;2,87235
3099,29572;2,86146
3097,24456;2,85622
3095,19341;2,8592
3093,14225;2,86691
3091,09109;2,87375
3089,03994;2,87217
3086,98878;2,87393
3084,93763;2,8833
3082,88647;2,88365
3080,83532;2,87191
3078,78416;2,86322
3076,73301;2,86716
3074,68185;2,87239
3072,6307;2,87182
3070,57954;2,87607
3068,52839;2,87695
3066,47723;2,86397
3064,42608;2,85187
3062,37492;2,85247
3060,32376;2,86512
3058,27261;2,88008
3056,22145;2,88659
3054,1703;2,87911
3052,11914;2,85822
3050,06799;2,84363
3048,01683;2,8484
3045,96568;2,8501
3043,91452;2,8401
3041,86337;2,83245
3039,81221;2,82474
3037,76106;2,81759
3035,7099;2,82115
3033,65875;2,83448
3031,60759;2,84502
3029,55643;2,84373
3027,50528;2,83546
3025,45412;2,83095
3023,40297;2,82555
3021,35181;2,81798
3019,30066;2,81238
3017,2495;2,80956
3015,19835;2,81128
3013,14719;2,81064
3011,09604;2,79991
3009,04488;2,79192
3006,99373;2,79862
3004,94257;2,80935
3002,89142;2,8199
3000,84026;2,83566
2998,7891;2,85002
2996,73795;2,8621
2994,68679;2,87611
2992,63564;2,88171
2990,58448;2,87358
2988,53333;2,86282
2986,48217;2,86232
2984,43102;2,87431
2982,37986;2,88654
2980,32871;2,88472
2978,27755;2,87473
2976,2264;2,87387
2974,17524;2,88063
2972,12409;2,88822
2970,07293;2,88498
2968,02177;2,8716
2965,97062;2,86698
2963,91946;2,87071
2961,86831;2,87318
2959,81715;2,86902
2957,766;2,86181
2955,71484;2,86435
2953,66369;2,87579
2951,61253;2,87607
2949,56138;2,86683
2947,51022;2,86928
2945,45907;2,87728
2943,40791;2,87473
2941,35675;2,8686
2939,3056;2,85975
2937,25444;2,84561
2935,20329;2,84723
2933,15213;2,86309
2931,10098;2,86718
2929,04982;2,85874
2926,99867;2,8468
2924,94751;2,84296
2922,89636;2,85383
2920,8452;2,85351
2918,79405;2,83765
2916,74289;2,83831
2914,69174;2,84927
2912,64058;2,84114
2910,58942;2,82605
2908,53827;2,8199
2906,48711;2,81748
2904,43596;2,81254
2902,3848;2,80921
2900,33365;2,81171
2898,28249;2,81626
2896,23134;2,81461
2894,18018;2,81082
2892,12903;2,81372
2890,07787;2,8176
2888,02672;2,81713
2885,97556;2,81183
2883,92441;2,81344
2881,87325;2,82786
2879,82209;2,83367
2877,77094;2,8309
2875,71978;2,83427
2873,66863;2,8252
2871,61747;2,80302
2869,56632;2,79657
2867,51516;2,81072
2865,46401;2,82554
2863,41285;2,83118
2861,3617;2,82972
2859,31054;2,82209
2857,25939;2,80852
2855,20823;2,7942
2853,15708;2,78663
2851,10592;2,77759
2849,05476;2,76054
2847,00361;2,7544
2844,95245;2,76348
2842,9013;2,76598
2840,85014;2,75051
2838,79899;2,72854
2836,74783;2,71684
2834,69668;2,71215
2832,64552;2,70292
2830,59437;2,68954
2828,54321;2,67832
2826,49206;2,67113
2824,4409;2,66254
2822,38975;2,65255
2820,33859;2,64524
2818,28743;2,64085
2816,23628;2,63491
2814,18512;2,62665
2812,13397;2,62605
2810,08281;2,63087
2808,03166;2,63037
2805,9805;2,62368
2803,92935;2,6148
2801,87819;2,60947
2799,82704;2,60673
2797,77588;2,60034
2795,72473;2,59117
2793,67357;2,58511
2791,62242;2,58163
2789,57126;2,57683
2787,5201;2,57045
2785,46895;2,56389
2783,41779;2,561
2781,36664;2,55979
2779,31548;2,55379
2777,26433;2,54702
2775,21317;2,5446
2773,16202;2,54076
2771,11086;2,53419
2769,05971;2,53173
2767,00855;2,53044
2764,9574;2,52575
2762,90624;2,52272
2760,85509;2,52484
2758,80393;2,52778
2756,75277;2,52527
2754,70162;2,51819
2752,65046;2,51142
2750,59931;2,50883
2748,54815;2,50995
2746,497;2,5096
2744,44584;2,50671
2742,39469;2,50205
2740,34353;2,49569
2738,29238;2,49098
2736,24122;2,49039
2734,19007;2,49181
2732,13891;2,48904
2730,08776;2,48087
2728,0366;2,47157
2725,98544;2,46153
2723,93429;2,45482
2721,88313;2,45559
2719,83198;2,45825
2717,78082;2,45814
2715,72967;2,45538
2713,67851;2,45312
2711,62736;2,45474
2709,5762;2,45784
2707,52505;2,45835
2705,47389;2,45584
2703,42274;2,45267
2701,37158;2,45073
2699,32043;2,44923
2697,26927;2,44656
2695,21811;2,44111
2693,16696;2,43672
2691,1158;2,43922
2689,06465;2,44273
2687,01349;2,44223
2684,96234;2,44131
2682,91118;2,43724
2680,86003;2,43278
2678,80887;2,43535
2676,75772;2,43905
2674,70656;2,43789
2672,65541;2,43595
2670,60425;2,43741
2668,55309;2,43957
2666,50194;2,43578
2664,45078;2,4287
2662,39963;2,42766
2660,34847;2,43315
2658,29732;2,44004
2656,24616;2,44203
2654,19501;2,43769
2652,14385;2,43497
2650,0927;2,43555
2648,04154;2,43718
2645,99039;2,44125
2643,93923;2,44777
2641,88808;2,45776
2639,83692;2,46705
2637,78576;2,473
2635,73461;2,4818
2633,68345;2,49467
2631,6323;2,50851
2629,58114;2,52036
2627,52999;2,52969
2625,47883;2,53688
2623,42768;2,54022
2621,37652;2,54292
2619,32537;2,54778
2617,27421;2,55265
2615,22306;2,55906
2613,1719;2,56811
2611,12075;2,57401
2609,06959;2,578
2607,01843;2,58636
2604,96728;2,59659
2602,91612;2,60005
2600,86497;2,59404
2598,81381;2,58961
2596,76266;2,59332
2594,7115;2,5979
2592,66035;2,6001
2590,60919;2,60292
2588,55804;2,60221
2586,50688;2,59589
2584,45573;2,59414
2582,40457;2,59841
2580,35342;2,60008
2578,30226;2,59928
2576,2511;2,59747
2574,19995;2,5986
2572,14879;2,60807
2570,09764;2,61484
2568,04648;2,60825
2565,99533;2,60024
2563,94417;2,60339
2561,89302;2,61229
2559,84186;2,6157
2557,79071;2,61368
2555,73955;2,61158
2553,6884;2,60912
2551,63724;2,6097
2549,58609;2,61645
2547,53493;2,62199
2545,48377;2,6222
2543,43262;2,62106
2541,38146;2,62775
2539,33031;2,64396
2537,27915;2,65529
2535,228;2,65917
2533,17684;2,66468
2531,12569;2,6705
2529,07453;2,67904
2527,02338;2,69261
2524,97222;2,70208
2522,92107;2,7051
2520,86991;2,70761
2518,81876;2,71376
2516,7676;2,71775
2514,71644;2,71378
2512,66529;2,70878
2510,61413;2,70709
2508,56298;2,70711
2506,51182;2,70822
2504,46067;2,70939
2502,40951;2,7027
2500,35836;2,68412
2498,3072;2,66844
2496,25605;2,66245
2494,20489;2,65147
2492,15374;2,63112
2490,10258;2,61383
2488,05143;2,60284
2486,00027;2,59094
2483,94911;2,5755
2481,89796;2,56016
2479,8468;2,54437
2477,79565;2,52806
2475,74449;2,51473
2473,69334;2,50228
2471,64218;2,4862
2469,59103;2,47024
2467,53987;2,45967
2465,48872;2,45209
2463,43756;2,44409
2461,38641;2,43524
2459,33525;2,42762
2457,2841;2,42089
2455,23294;2,41108
2453,18178;2,39993
2451,13063;2,39287
2449,07947;2,39026
2447,02832;2,38837
2444,97716;2,38497
2442,92601;2,38064
2440,87485;2,37594
2438,8237;2,36979
2436,77254;2,36143
2434,72139;2,35344
2432,67023;2,34811
2430,61908;2,34505
2428,56792;2,34426
2426,51677;2,34466
2424,46561;2,34223
2422,41445;2,33626
2420,3633;2,33139
2418,31214;2,32813
2416,26099;2,32186
2414,20983;2,3133
2412,15868;2,30877
2410,10752;2,30991
2408,05637;2,31114
2406,00521;2,30928
2403,95406;2,30513
2401,9029;2,30028
2399,85175;2,29913
2397,80059;2,3008
2395,74944;2,30148
2393,69828;2,29968
2391,64712;2,29672
2389,59597;2,29501
2387,54481;2,29513
2385,49366;2,29431
2383,4425;2,2911
2381,39135;2,28887
2379,34019;2,29074
2377,28904;2,29372
2375,23788;2,29294
2373,18673;2,2897
2371,13557;2,28841
2369,08442;2,28878
2367,03326;2,28727
2364,9821;2,28438
2362,93095;2,28612
2360,87979;2,2926
2358,82864;2,29549
2356,77748;2,29443
2354,72633;2,29272
2352,67517;2,29038
2350,62402;2,29086
2348,57286;2,29185
2346,52171;2,28812
2344,47055;2,28496
2342,4194;2,28954
2340,36824;2,29704
2338,31709;2,30289
2336,26593;2,30814
2334,21477;2,30949
2332,16362;2,30504
2330,11246;2,30007
2328,06131;2,2994
2326,01015;2,30427
2323,959;2,30866
2321,90784;2,30616
2319,85669;2,30066
2317,80553;2,29902
2315,75438;2,3023
2313,70322;2,30599
2311,65207;2,30538
2309,60091;2,30106
2307,54976;2,29732
2305,4986;2,29767
2303,44744;2,30042
2301,39629;2,30072
2299,34513;2,29808
2297,29398;2,29517
2295,24282;2,29306
2293,19167;2,29156
2291,14051;2,29121
2289,08936;2,29272
2287,0382;2,29423
2284,98705;2,29349
2282,93589;2,29205
2280,88474;2,29268
2278,83358;2,29486
2276,78243;2,29661
2274,73127;2,29809
2272,68011;2,30024
2270,62896;2,3016
2268,5778;2,30095
2266,52665;2,30084
2264,47549;2,30215
2262,42434;2,30318
2260,37318;2,30455
2258,32203;2,30721
2256,27087;2,31047
2254,21972;2,31258
2252,16856;2,31392
2250,11741;2,31665
2248,06625;2,31884
2246,0151;2,31887
2243,96394;2,3215
2241,91278;2,32618
2239,86163;2,32851
2237,81047;2,32848
2235,75932;2,32893
2233,70816;2,33222
2231,65701;2,33681
2229,60585;2,33956
2227,5547;2,34178
2225,50354;2,34458
2223,45239;2,34621
2221,40123;2,34715
2219,35008;2,34899
2217,29892;2,35243
2215,24777;2,35669
2213,19661;2,35916
2211,14545;2,35946
2209,0943;2,3595
2207,04314;2,36025
2204,99199;2,3599
2202,94083;2,35849
2200,88968;2,36042
2198,83852;2,3659
2196,78737;2,37076
2194,73621;2,37235
2192,68506;2,37219
2190,6339;2,37224
2188,58275;2,37108
2186,53159;2,3708
2184,48044;2,37378
2182,42928;2,37732
2180,37812;2,37934
2178,32697;2,38041
2176,27581;2,38293
2174,22466;2,38741
2172,1735;2,38945
2170,12235;2,38857
2168,07119;2,39339
2166,02004;2,40393
2163,96888;2,40876
2161,91773;2,40974
2159,86657;2,41557
2157,81542;2,42412
2155,76426;2,43275
2153,71311;2,44112
2151,66195;2,44926
2149,61079;2,45941
2147,55964;2,46949
2145,50848;2,47532
2143,45733;2,47647
2141,40617;2,47473
2139,35502;2,47277
2137,30386;2,47308
2135,25271;2,47603
2133,20155;2,47736
2131,1504;2,47359
2129,09924;2,4659
2127,04809;2,45583
2124,99693;2,44699
2122,94578;2,43904
2120,89462;2,42766
2118,84346;2,41697
2116,79231;2,41046
2114,74115;2,40481
2112,69;2,39929
2110,63884;2,39521
2108,58769;2,39063
2106,53653;2,38495
2104,48538;2,38151
2102,43422;2,38184
2100,38307;2,38437
2098,33191;2,38525
2096,28076;2,38366
2094,2296;2,38363
2092,17844;2,38603
2090,12729;2,38698
2088,07613;2,3874
2086,02498;2,39153
2083,97382;2,39709
2081,92267;2,39857
2079,87151;2,39632
2077,82036;2,39433
2075,7692;2,39341
2073,71805;2,39188
2071,66689;2,39083
2069,61574;2,39358
2067,56458;2,39749
2065,51343;2,39692
2063,46227;2,39394
2061,41111;2,39159
2059,35996;2,39021
2057,3088;2,39071
2055,25765;2,39201
2053,20649;2,39349
2051,15534;2,3943
2049,10418;2,3941
2047,05303;2,39716
2045,00187;2,40417
2042,95072;2,40893
2040,89956;2,40821
2038,84841;2,40435
2036,79725;2,40248
2034,7461;2,40469
2032,69494;2,40694
2030,64378;2,40792
2028,59263;2,40928
2026,54147;2,40978
2024,49032;2,40908
2022,43916;2,40956
2020,38801;2,41029
2018,33685;2,40925
2016,2857;2,41103
2014,23454;2,41634
2012,18339;2,41753
2010,13223;2,41294
2008,08108;2,40822
2006,02992;2,40867
2003,97877;2,41465
2001,92761;2,42142
1999,87645;2,42375
1997,8253;2,42187
1995,77414;2,42066
1993,72299;2,42246
1991,67183;2,42629
1989,62068;2,42985
1987,56952;2,43047
1985,51837;2,42874
1983,46721;2,42729
1981,41606;2,42624
1979,3649;2,42419
1977,31375;2,42499
1975,26259;2,43024
1973,21144;2,43469
1971,16028;2,43566
1969,10912;2,43707
1967,05797;2,44517
1965,00681;2,45934
1962,95566;2,47045
1960,9045;2,47201
1958,85335;2,46565
1956,80219;2,45873
1954,75104;2,45342
1952,69988;2,44839
1950,64873;2,44816
1948,59757;2,45155
1946,54642;2,4509
1944,49526;2,44891
1942,44411;2,45186
1940,39295;2,45757
1938,34179;2,45965
1936,29064;2,45724
1934,23948;2,45537
1932,18833;2,4598
1930,13717;2,46691
1928,08602;2,47034
1926,03486;2,47185
1923,98371;2,47333
1921,93255;2,47598
1919,8814;2,4792
1917,83024;2,48247
1915,77909;2,48737
1913,72793;2,49308
1911,67678;2,49889
1909,62562;2,50067
1907,57446;2,49983
1905,52331;2,50145
1903,47215;2,50392
1901,421;2,50408
1899,36984;2,50508
1897,31869;2,51195
1895,26753;2,52191
1893,21638;2,52854
1891,16522;2,53072
1889,11407;2,53174
1887,06291;2,53269
1885,01176;2,5336
1882,9606;2,53686
1880,90945;2,54185
1878,85829;2,54801
1876,80713;2,55509
1874,75598;2,5613
1872,70482;2,56796
1870,65367;2,57307
1868,60251;2,57449
1866,55136;2,57862
1864,5002;2,58629
1862,44905;2,59193
1860,39789;2,59443
1858,34674;2,59677
1856,29558;2,60029
1854,24443;2,60493
1852,19327;2,61062
1850,14212;2,6182
1848,09096;2,63028
1846,0398;2,64474
1843,98865;2,65638
1841,93749;2,66487
1839,88634;2,67015
1837,83518;2,67501
1835,78403;2,68279
1833,73287;2,69386
1831,68172;2,70604
1829,63056;2,7194
1827,57941;2,73268
1825,52825;2,73937
1823,4771;2,74464
1821,42594;2,75267
1819,37478;2,76001
1817,32363;2,76917
1815,27247;2,7864
1813,22132;2,8105
1811,17016;2,83243
1809,11901;2,84656
1807,06785;2,85807
1805,0167;2,87253
1802,96554;2,88752
1800,91439;2,90178
1798,86323;2,91994
1796,81208;2,94399
1794,76092;2,96892
1792,70977;2,98136
1790,65861;2,97173
1788,60745;2,94829
1786,5563;2,9218
1784,50514;2,89968
1782,45399;2,88718
1780,40283;2,88333
1778,35168;2,88336
1776,30052;2,87808
1774,24937;2,86048
1772,19821;2,84464
1770,14706;2,85495
1768,0959;2,8794
1766,04475;2,89269
1763,99359;2,8897
1761,94244;2,88732
1759,89128;2,89674
1757,84012;2,9083
1755,78897;2,92425
1753,73781;2,94974
1751,68666;2,97331
1749,6355;2,98385
1747,58435;2,98401
1745,53319;2,98672
1743,48204;2,99468
1741,43088;2,99652
1739,37973;2,98855
1737,32857;2,98226
1735,27742;2,98176
1733,22626;3,00101
1731,17511;3,03653
1729,12395;3,06036
1727,07279;3,06378
1725,02164;3,05219
1722,97048;3,03872
1720,91933;3,03311
1718,86817;3,04358
1716,81702;3,07802
1714,76586;3,11232
1712,71471;3,12888
1710,66355;3,13993
1708,6124;3,16281
1706,56124;3,19593
1704,51009;3,21055
1702,45893;3,19263
1700,40778;3,17532
1698,35662;3,17985
1696,30546;3,18633
1694,25431;3,2095
1692,20315;3,24571
1690,152;3,26531
1688,10084;3,26442
1686,04969;3,25635
1683,99853;3,24947
1681,94738;3,23768
1679,89622;3,22587
1677,84507;3,22921
1675,79391;3,23639
1673,74276;3,22883
1671,6916;3,20164
1669,64045;3,16404
1667,58929;3,13469
1665,53813;3,11875
1663,48698;3,11032
1661,43582;3,09837
1659,38467;3,07314
1657,33351;3,05186
1655,28236;3,04341
1653,2312;3,03316
1651,18005;3,03096
1649,12889;3,03451
1647,07774;3,02514
1645,02658;3,00792
1642,97543;2,99223
1640,92427;2,98027
1638,87312;2,97555
1636,82196;2,96893
1634,7708;2,96213
1632,71965;2,96587
1630,66849;2,96602
1628,61734;2,95464
1626,56618;2,94051
1624,51503;2,93128
1622,46387;2,93526
1620,41272;2,95271
1618,36156;2,96515
1616,31041;2,96625
1614,25925;2,96336
1612,2081;2,96066
1610,15694;2,9587
1608,10579;2,95464
1606,05463;2,95144
1604,00347;2,95409
1601,95232;2,95955
1599,90116;2,96249
1597,85001;2,96179
1595,79885;2,9616
1593,7477;2,96528
1591,69654;2,96862
1589,64539;2,97153
1587,59423;2,97756
1585,54308;2,98396
1583,49192;2,99213
1581,44077;3,00646
1579,38961;3,02029
1577,33846;3,02405
1575,2873;3,02416
1573,23614;3,02135
1571,18499;3,00684
1569,13383;2,99499
1567,08268;2,99622
1565,03152;3
1562,98037;3,0103
1560,92921;3,02444
1558,87806;3,02815
1556,8269;3,01772
1554,77575;2,99992
1552,72459;2,98128
1550,67344;2,96269
1548,62228;2,94775
1546,57113;2,94049
1544,51997;2,9468
1542,46881;2,96631
1540,41766;2,96582
1538,3665;2,94012
1536,31535;2,9254
1534,26419;2,91743
1532,21304;2,90875
1530,16188;2,90152
1528,11073;2,89747
1526,05957;2,8968
1524,00842;2,89526
1521,95726;2,89442
1519,90611;2,89855
1517,85495;2,89142
1515,80379;2,87093
1513,75264;2,85474
1511,70148;2,85028
1509,65033;2,84948
1507,59917;2,83948
1505,54802;2,83286
1503,49686;2,83469
1501,44571;2,82823
1499,39455;2,81112
1497,3434;2,78958
1495,29224;2,77498
1493,24109;2,76833
1491,18993;2,76061
1489,13878;2,76039
1487,08762;2,76926
1485,03646;2,77364
1482,98531;2,77396
1480,93415;2,777
1478,883;2,78254
1476,83184;2,79221
1474,78069;2,81207
1472,72953;2,83473
1470,67838;2,84766
1468,62722;2,84762
1466,57607;2,84412
1464,52491;2,85368
1462,47376;2,87201
1460,4226;2,87457
1458,37145;2,86119
1456,32029;2,86421
1454,26913;2,8898
1452,21798;2,90637
1450,16682;2,90378
1448,11567;2,89257
1446,06451;2,88424
1444,01336;2,87923
1441,9622;2,88198
1439,91105;2,88973
1437,85989;2,88201
1435,80874;2,86636
1433,75758;2,8667
1431,70643;2,87663
1429,65527;2,88236
1427,60412;2,87478
1425,55296;2,85726
1423,5018;2,84372
1421,45065;2,83505
1419,39949;2,82578
1417,34834;2,82464
1415,29718;2,8276
1413,24603;2,82665
1411,19487;2,82943
1409,14372;2,84337
1407,09256;2,86349
1405,04141;2,88091
1402,99025;2,88442
1400,9391;2,8694
1398,88794;2,85526
1396,83679;2,86079
1394,78563;2,87856
1392,73447;2,89284
1390,68332;2,89413
1388,63216;2,88597
1386,58101;2,87902
1384,52985;2,87958
1382,4787;2,88835
1380,42754;2,90486
1378,37639;2,92428
1376,32523;2,93328
1374,27408;2,92168
1372,22292;2,90374
1370,17177;2,89677
1368,12061;2,90207
1366,06946;2,90801
1364,0183;2,90547
1361,96714;2,90258
1359,91599;2,90208
1357,86483;2,89742
1355,81368;2,89521
1353,76252;2,90202
1351,71137;2,91054
1349,66021;2,91314
1347,60906;2,90992
1345,5579;2,90742
1343,50675;2,91686
1341,45559;2,93741
1339,40444;2,95374
1337,35328;2,95422
1335,30213;2,94698
1333,25097;2,94129
1331,19981;2,93062
1329,14866;2,91463
1327,0975;2,90753
1325,04635;2,91551
1322,99519;2,93028
1320,94404;2,94201
1318,89288;2,951
1316,84173;2,95766
1314,79057;2,95536
1312,73942;2,9515
1310,68826;2,9526
1308,63711;2,95051
1306,58595;2,94101
1304,5348;2,92793
1302,48364;2,92197
1300,43248;2,92392
1298,38133;2,92849
1296,33017;2,94089
1294,27902;2,95057
1292,22786;2,9432
1290,17671;2,93558
1288,12555;2,94195
1286,0744;2,95239
1284,02324;2,95256
1281,97209;2,94289
1279,92093;2,9384
1277,86978;2,94157
1275,81862;2,94423
1273,76747;2,94021
1271,71631;2,93851
1269,66515;2,95422
1267,614;2,98346
1265,56284;3,00166
1263,51169;2,99487
1261,46053;2,97682
1259,40938;2,96181
1257,35822;2,9538
1255,30707;2,95809
1253,25591;2,97559
1251,20476;2,99729
1249,1536;3,01063
1247,10245;3,00661
1245,05129;2,99293
1243,00013;2,98418
1240,94898;2,97767
1238,89782;2,96835
1236,84667;2,96784
1234,79551;2,98035
1232,74436;2,98425
1230,6932;2,96548
1228,64205;2,94442
1226,59089;2,93597
1224,53974;2,93601
1222,48858;2,94061
1220,43743;2,94414
1218,38627;2,93473
1216,33512;2,9176
1214,28396;2,90859
1212,2328;2,90791
1210,18165;2,90812
1208,13049;2,90721
1206,07934;2,90479
1204,02818;2,90558
1201,97703;2,91505
1199,92587;2,92321
1197,87472;2,91714
1195,82356;2,91224
1193,77241;2,91943
1191,72125;2,92701
1189,6701;2,93398
1187,61894;2,94742
1185,56779;2,96758
1183,51663;2,98333
1181,46547;2,98365
1179,41432;2,97676
1177,36316;2,97621
1175,31201;2,98683
1173,26085;2,98944
1171,2097;2,97732
1169,15854;2,97822
1167,10739;2,9973
1165,05623;3,01553
1163,00508;3,02848
1160,95392;3,03988
1158,90277;3,04159
1156,85161;3,03059
1154,80046;3,02003
1152,7493;3,01624
1150,69814;3,01604
1148,64699;3,02279
1146,59583;3,02654
1144,54468;3,02839
1142,49352;3,04464
1140,44237;3,06108
1138,39121;3,06382
1136,34006;3,06996
1134,2889;3,07944
1132,23775;3,07881
1130,18659;3,09689
1128,13544;3,15761
1126,08428;3,20368
1124,03313;3,1899
1121,98197;3,17914
1119,93081;3,19749
1117,87966;3,22162
1115,8285;3,24026
1113,77735;3,24216
1111,72619;3,22875
1109,67504;3,22856
1107,62388;3,23644
1105,57273;3,22287
1103,52157;3,20468
1101,47042;3,18987
1099,41926;3,16793
1097,36811;3,15375
1095,31695;3,16081
1093,2658;3,17645
1091,21464;3,17035
1089,16348;3,12548
1087,11233;3,09649
1085,06117;3,11191
1083,01002;3,12541
1080,95886;3,11214
1078,90771;3,08154
1076,85655;3,03967
1074,8054;3,01232
1072,75424;3,01654
1070,70309;3,0284
1068,65193;3,01829
1066,60078;2,99896
1064,54962;2,99288
1062,49847;2,99327
1060,44731;2,97334
1058,39615;2,93852
1056,345;2,9125
1054,29384;2,89252
1052,24269;2,86984
1050,19153;2,84323
1048,14038;2,80764
1046,08922;2,7717
1044,03807;2,75662
1041,98691;2,75191
1039,93576;2,73059
1037,8846;2,70401
1035,83345;2,68921
1033,78229;2,67596
1031,73114;2,65833
1029,67998;2,64823
1027,62882;2,64923
1025,57767;2,6526
1023,52651;2,65334
1021,47536;2,65026
1019,4242;2,64021
1017,37305;2,62543
1015,32189;2,61417
1013,27074;2,61145
1011,21958;2,61309
1009,16843;2,61159
1007,11727;2,60457
1005,06612;2,59329
1003,01496;2,57879
1000,96381;2,56602
998,91265;2,55514
996,86149;2,53871
994,81034;2,52176
992,75918;2,50991
990,70803;2,4978
988,65687;2,48418
986,60572;2,47382
984,55456;2,46835
982,50341;2,46241
980,45225;2,45407
978,4011;2,44925
976,34994;2,44669
974,29879;2,44044
972,24763;2,43696
970,19647;2,4395
968,14532;2,43858
966,09416;2,43457
964,04301;2,43302
961,99185;2,42813
959,9407;2,41673
957,88954;2,40559
955,83839;2,40204
953,78723;2,4103
951,73608;2,42671
949,68492;2,44353
947,63377;2,46213
945,58261;2,48565
943,53146;2,50743
941,4803;2,52467
939,42914;2,54396
937,37799;2,56682
935,32683;2,58637
933,27568;2,59824
931,22452;2,6046
929,17337;2,60709
927,12221;2,6109
925,07106;2,62307
923,0199;2,63687
920,96875;2,64169
918,91759;2,64663
916,86644;2,65993
914,81528;2,66892
912,76413;2,66996
910,71297;2,67309
908,66181;2,67968
906,61066;2,69193
904,5595;2,70461
902,50835;2,70773
900,45719;2,70642
898,40604;2,70472
896,35488;2,70611
894,30373;2,71491
892,25257;2,72175
890,20142;2,72193
888,15026;2,72796
886,09911;2,7375
884,04795;2,73906
881,9968;2,74437
879,94564;2,7606
877,89448;2,77415
875,84333;2,78024
873,79217;2,78901
871,74102;2,80095
869,68986;2,81447
867,63871;2,82234
865,58755;2,81117
863,5364;2,79782
861,48524;2,80214
859,43409;2,81895
857,38293;2,84245
855,33178;2,86025
853,28062;2,85798
851,22947;2,84851
849,17831;2,86819
847,12715;2,89603
845,076;2,87366
843,02484;2,84617
840,97369;2,86268
838,92253;2,88803
836,87138;2,88952
834,82022;2,88623
832,76907;2,89592
830,71791;2,90048
828,66676;2,89843
826,6156;2,89713
824,56445;2,88233
822,51329;2,86514
820,46214;2,87583
818,41098;2,90843
816,35982;2,93851
814,30867;2,95416
812,25751;2,93657
810,20636;2,90295
808,1552;2,8938
806,10405;2,9136
804,05289;2,93753
802,00174;2,95913
799,95058;2,96721
797,89943;2,95662
795,84827;2,9316
793,79712;2,90596
791,74596;2,8871
789,69481;2,87185
787,64365;2,86146
785,59249;2,86406
783,54134;2,89624
781,49018;2,9386
779,43903;2,95445
777,38787;2,93541
775,33672;2,88456
773,28556;2,85172
771,23441;2,8699
769,18325;2,90657
767,1321;2,92522
765,08094;2,93874
763,02979;2,9502
760,97863;2,95442
758,92748;2,93284
756,87632;2,9024
754,82516;2,9112
752,77401;2,96177
750,72285;2,98074
748,6717;2,96898
746,62054;2,96618
744,56939;2,95948
742,51823;2,94182
740,46708;2,92046
738,41592;2,91993
736,36477;2,94442
734,31361;2,97713
732,26246;3,00981
730,2113;3,01483
728,16015;2,98156
726,10899;2,96499
724,05783;2,98596
722,00668;3,02378
719,95552;3,04813
717,90437;3,066
715,85321;3,08599
713,80206;3,06662
711,7509;3,0173
709,69975;3,01563
707,64859;3,06298
705,59744;3,0907
703,54628;3,07453
701,49513;3,03607
699,44397;2,98732
697,39281;2,95039
695,34166;2,9501
693,2905;2,98319
691,23935;3,03328
689,18819;3,0688
687,13704;3,05033
685,08588;2,99256
683,03473;2,95342
680,98357;2,9614
678,93242;2,97329
676,88126;2,9474
674,83011;2,91783
672,77895;2,91026
670,7278;2,8942
668,67664;2,87403
666,62548;2,91218
664,57433;2,99168
662,52317;3,03489
660,47202;3,02685
658,42086;3,01037
656,36971;3,04221
654,31855;3,12039
652,2674;3,14529
650,21624;3,0603
648,16509;2,96484
646,11393;2,92669
644,06278;2,93107
642,01162;2,961
639,96047;2,99926
637,90931;3,01639
635,85815;3,01813
633,807;3,01749
631,75584;3,00897
629,70469;3,01822
627,65353;3,08456
625,60238;3,14437
623,55122;3,09502
621,50007;3,00558
619,44891;2,9846
617,39776;3,05151
615,3466;3,14006
613,29545;3,1574
611,24429;3,06238
609,19314;2,98662
607,14198;2,99759
605,09082;3,02484
603,03967;3,0545
600,98851;3,09743
598,93736;3,08526
596,8862;3,04682
594,83505;3,00219
592,78389;2,95033
590,73274;2,94487
588,68158;3,00749
586,63043;3,05945
584,57927;3,08042
582,52812;3,10038
580,47696;3,11337
578,42581;3,12191
576,37465;3,1746
574,32349;3,28067
572,27234;3,27909
570,22118;3,25923
568,17003;3,17377
566,11887;3,05493
564,06772;2,99331
562,01656;2,97899
559,96541;2,96452
557,91425;2,94655
555,8631;2,93778
553,81194;2,90589
551,76079;2,87725
549,70963;2,90469
547,65848;2,95557
545,60732;2,98445
543,55616;2,97912
541,50501;2,93507
539,45385;2,88418
537,4027;2,8528
535,35154;2,82719
533,30039;2,79474
531,24923;2,76193
529,19808;2,75334
527,14692;2,76317
525,09577;2,74498
523,04461;2,6923
520,99346;2,63355
518,9423;2,60714
516,89115;2,60561
514,83999;2,58692
512,78883;2,54863
510,73768;2,50195
508,68652;2,46062
506,63537;2,43663
504,58421;2,42965
502,53306;2,42163
500,4819;2,40281
498,43075;2,38778
496,37959;2,38256
494,32844;2,37681
492,27728;2,38092
490,22613;2,41709
488,17497;2,4581
486,12382;2,46605
484,07266;2,48155
482,0215;2,52528
479,97035;2,54392
477,91919;2,53252
475,86804;2,52146
473,81688;2,50467
471,76573;2,47084
469,71457;2,43647
467,66342;2,40833
465,61226;2,37755
463,56111;2,35076
461,50995;2,34405
459,4588;2,35338
457,40764;2,35939
455,35649;2,35535
453,30533;2,3615
451,25417;2,38912
449,20302;2,41118
447,15186;2,4136
445,10071;2,40569
443,04955;2,37283
440,9984;2,31007
438,94724;2,26051
436,89609;2,26309
434,84493;2,28597
432,79378;2,29903
430,74262;2,32695
428,69147;2,35827
426,64031;2,36155
424,58916;2,36605
422,538;2,41001
420,48684;2,47635
418,43569;2,50118
416,38453;2,4833
414,33338;2,49485
412,28222;2,52276
410,23107;2,50599
408,17991;2,50484
406,12876;2,56719
404,0776;2,60557
402,02645;2,58184
399,97529;2,50985
