3997,70175;1,76574
3995,6506;1,767
3993,59944;1,76817
3991,54829;1,76857
3989,49713;1,76926
3987,44598;1,77134
3985,39482;1,77278
3983,34367;1,77278
3981,29251;1,77288
3979,24136;1,77407
3977,1902;1,77588
3975,13905;1,77685
3973,08789;1,77708
3971,03673;1,77883
3968,98558;1,78221
3966,93442;1,78522
3964,88327;1,78726
3962,83211;1,78903
3960,78096;1,79141
3958,7298;1,79409
3956,67865;1,79667
3954,62749;1,79962
3952,57634;1,80222
3950,52518;1,80298
3948,47403;1,80261
3946,42287;1,80388
3944,37172;1,80655
3942,32056;1,80825
3940,2694;1,80738
3938,21825;1,80465
3936,16709;1,80315
3934,11594;1,8025
3932,06478;1,80046
3930,01363;1,7973
3927,96247;1,79408
3925,91132;1,79029
3923,86016;1,78577
3921,80901;1,78091
3919,75785;1,77598
3917,7067;1,77134
3915,65554;1,76702
3913,60439;1,76335
3911,55323;1,76118
3909,50207;1,76123
3907,45092;1,76203
3905,39976;1,76159
3903,34861;1,75963
3901,29745;1,7561
3899,2463;1,75211
3897,19514;1,75027
3895,14399;1,7494
3893,09283;1,74738
3891,04168;1,74622
3888,99052;1,74802
3886,93937;1,74886
3884,88821;1,75018
3882,83706;1,75141
3880,7859;1,74806
3878,73474;1,7464
3876,68359;1,74758
3874,63243;1,74799
3872,58128;1,74862
3870,53012;1,74835
3868,47897;1,75048
3866,42781;1,75233
3864,37666;1,74968
3862,3255;1,74593
3860,27435;1,74369
3858,22319;1,7428
3856,17204;1,74003
3854,12088;1,73539
3852,06973;1,73675
3850,01857;1,74211
3847,96741;1,74379
3845,91626;1,74196
3843,8651;1,74118
3841,81395;1,74313
3839,76279;1,74289
3837,71164;1,73999
3835,66048;1,73928
3833,60933;1,7402
3831,55817;1,74102
3829,50702;1,74213
3827,45586;1,74192
3825,40471;1,74133
3823,35355;1,73982
3821,3024;1,73877
3819,25124;1,743
3817,20008;1,74382
3815,14893;1,74126
3813,09777;1,74227
3811,04662;1,74453
3808,99546;1,74545
3806,94431;1,74615
3804,89315;1,74958
3802,842;1,74999
3800,79084;1,74891
3798,73969;1,75102
3796,68853;1,75163
3794,63738;1,7514
3792,58622;1,75128
3790,53506;1,75171
3788,48391;1,75373
3786,43275;1,75708
3784,3816;1,76184
3782,33044;1,76665
3780,27929;1,76789
3778,22813;1,76734
3776,17698;1,76862
3774,12582;1,77155
3772,07467;1,77337
3770,02351;1,7738
3767,97236;1,77549
3765,9212;1,77645
3763,87005;1,77819
3761,81889;1,78166
3759,76773;1,78581
3757,71658;1,7909
3755,66542;1,79529
3753,61427;1,79724
3751,56311;1,79905
3749,51196;1,8056
3747,4608;1,81289
3745,40965;1,81281
3743,35849;1,81498
3741,30734;1,82476
3739,25618;1,83492
3737,20503;1,8445
3735,15387;1,85337
3733,10272;1,86019
3731,05156;1,86865
3729,0004;1,87981
3726,94925;1,88976
3724,89809;1,90046
3722,84694;1,91421
3720,79578;1,93105
3718,74463;1,9504
3716,69347;1,97168
3714,64232;1,99517
3712,59116;2,02394
3710,54001;2,05773
3708,48885;2,09168
3706,4377;2,1289
3704,38654;2,17554
3702,33539;2,2366
3700,28423;2,30635
3698,23307;2,36078
3696,18192;2,38587
3694,13076;2,38738
3692,07961;2,3693
3690,02845;2,33148
3687,9773;2,29052
3685,92614;2,26778
3683,87499;2,2581
3681,82383;2,25181
3679,77268;2,24926
3677,72152;2,25769
3675,67037;2,28472
3673,61921;2,32186
3671,56806;2,34461
3669,5169;2,35392
3667,46574;2,36154
3665,41459;2,36552
3663,36343;2,366
3661,31228;2,36984
3659,26112;2,38245
3657,20997;2,40164
3655,15881;2,42295
3653,10766;2,44046
3651,0565;2,45293
3649,00535;2,45953
3646,95419;2,45161
3644,90304;2,4394
3642,85188;2,43051
3640,80073;2,42087
3638,74957;2,40769
3636,69841;2,39443
3634,64726;2,3876
3632,5961;2,39407
3630,54495;2,41838
3628,49379;2,46109
3626,44264;2,50662
3624,39148;2,54573
3622,34033;2,58622
3620,28917;2,60949
3618,23802;2,5841
3616,18686;2,53085
3614,13571;2,48337
3612,08455;2,44878
3610,0334;2,42627
3607,98224;2,41643
3605,93108;2,41986
3603,87993;2,42945
3601,82877;2,43638
3599,77762;2,4391
3597,72646;2,43709
3595,67531;2,42599
3593,62415;2,41026
3591,573;2,40267
3589,52184;2,40644
3587,47069;2,41502
3585,41953;2,42147
3583,36838;2,42333
3581,31722;2,42456
3579,26607;2,43034
3577,21491;2,43676
3575,16375;2,43849
3573,1126;2,43926
3571,06144;2,4399
3569,01029;2,43815
3566,95913;2,43941
3564,90798;2,44667
3562,85682;2,4522
3560,80567;2,45284
3558,75451;2,45496
3556,70336;2,46222
3554,6522;2,4696
3552,60105;2,47278
3550,54989;2,47474
3548,49874;2,48108
3546,44758;2,4919
3544,39642;2,5015
3542,34527;2,50469
3540,29411;2,50183
3538,24296;2,5009
3536,1918;2,50718
3534,14065;2,51489
3532,08949;2,51962
3530,03834;2,52641
3527,98718;2,5329
3525,93603;2,53158
3523,88487;2,52872
3521,83372;2,53172
3519,78256;2,53576
3517,73141;2,53591
3515,68025;2,53881
3513,62909;2,55058
3511,57794;2,5602
3509,52678;2,55653
3507,47563;2,54606
3505,42447;2,54224
3503,37332;2,55313
3501,32216;2,57152
3499,27101;2,58172
3497,21985;2,57842
3495,1687;2,57124
3493,11754;2,57336
3491,06639;2,58263
3489,01523;2,58785
3486,96407;2,5892
3484,91292;2,59203
3482,86176;2,59439
3480,81061;2,5926
3478,75945;2,58597
3476,7083;2,57569
3474,65714;2,5697
3472,60599;2,57751
3470,55483;2,59438
3468,50368;2,60607
3466,45252;2,60383
3464,40137;2,59304
3462,35021;2,58875
3460,29906;2,59267
3458,2479;2,59701
3456,19674;2,60062
3454,14559;2,60369
3452,09443;2,60559
3450,04328;2,60523
3447,99212;2,60185
3445,94097;2,59697
3443,88981;2,59256
3441,83866;2,59487
3439,7875;2,60421
3437,73635;2,60965
3435,68519;2,61204
3433,63404;2,62169
3431,58288;2,63615
3429,53173;2,6419
3427,48057;2,63336
3425,42941;2,62246
3423,37826;2,62011
3421,3271;2,62461
3419,27595;2,63061
3417,22479;2,63182
3415,17364;2,63183
3413,12248;2,63995
3411,07133;2,65033
3409,02017;2,65202
3406,96902;2,64617
3404,91786;2,64087
3402,86671;2,64319
3400,81555;2,64451
3398,7644;2,63771
3396,71324;2,63725
3394,66208;2,64766
3392,61093;2,65343
3390,55977;2,65246
3388,50862;2,65142
3386,45746;2,65248
3384,40631;2,66112
3382,35515;2,67303
3380,304;2,67634
3378,25284;2,67374
3376,20169;2,67077
3374,15053;2,66698
3372,09938;2,66474
3370,04822;2,66949
3367,99707;2,67368
3365,94591;2,66593
3363,89475;2,65723
3361,8436;2,66019
3359,79244;2,66439
3357,74129;2,66023
3355,69013;2,65857
3353,63898;2,66891
3351,58782;2,68307
3349,53667;2,68548
3347,48551;2,67912
3345,43436;2,67824
3343,3832;2,68511
3341,33205;2,69427
3339,28089;2,69901
3337,22974;2,69442
3335,17858;2,68558
3333,12742;2,68147
3331,07627;2,67973
3329,02511;2,6788
3326,97396;2,68487
3324,9228;2,69435
3322,87165;2,70024
3320,82049;2,70658
3318,76934;2,71183
3316,71818;2,70711
3314,66703;2,70121
3312,61587;2,7027
3310,56472;2,70546
3308,51356;2,7061
3306,46241;2,70354
3304,41125;2,6994
3302,36009;2,70135
3300,30894;2,7057
3298,25778;2,70281
3296,20663;2,69986
3294,15547;2,70355
3292,10432;2,70301
3290,05316;2,69318
3288,00201;2,68745
3285,95085;2,68743
3283,8997;2,68387
3281,84854;2,68031
3279,79739;2,68575
3277,74623;2,69695
3275,69508;2,70085
3273,64392;2,6991
3271,59276;2,69889
3269,54161;2,69622
3267,49045;2,68969
3265,4393;2,68454
3263,38814;2,67906
3261,33699;2,66934
3259,28583;2,66634
3257,23468;2,67358
3255,18352;2,6748
3253,13237;2,66797
3251,08121;2,6648
3249,03006;2,66625
3246,9789;2,67003
3244,92775;2,67426
3242,87659;2,67382
3240,82543;2,66848
3238,77428;2,66813
3236,72312;2,67748
3234,67197;2,68656
3232,62081;2,68433
3230,56966;2,67307
3228,5185;2,66507
3226,46735;2,66736
3224,41619;2,67409
3222,36504;2,67314
3220,31388;2,66289
3218,26273;2,65574
3216,21157;2,65788
3214,16041;2,66189
3212,10926;2,66105
3210,0581;2,65748
3208,00695;2,65463
3205,95579;2,65278
3203,90464;2,65563
3201,85348;2,66404
3199,80233;2,67005
3197,75117;2,67081
3195,70002;2,67264
3193,64886;2,67479
3191,59771;2,67229
3189,54655;2,67115
3187,4954;2,67598
3185,44424;2,67844
3183,39308;2,67697
3181,34193;2,67589
3179,29077;2,67345
3177,23962;2,66995
3175,18846;2,66826
3173,13731;2,66528
3171,08615;2,6544
3169,035;2,64296
3166,98384;2,63968
3164,93269;2,64029
3162,88153;2,64204
3160,83038;2,64457
3158,77922;2,64615
3156,72807;2,64832
3154,67691;2,65165
3152,62575;2,65319
3150,5746;2,64965
3148,52344;2,64475
3146,47229;2,64525
3144,42113;2,64849
3142,36998;2,64763
3140,31882;2,64042
3138,26767;2,62997
3136,21651;2,62514
3134,16536;2,63104
3132,1142;2,63835
3130,06305;2,63666
3128,01189;2,63206
3125,96074;2,63242
3123,90958;2,63323
3121,85842;2,62953
3119,80727;2,6269
3117,75611;2,62895
3115,70496;2,62851
3113,6538;2,62076
3111,60265;2,61302
3109,55149;2,61231
3107,50034;2,61465
3105,44918;2,61385
3103,39803;2,61107
3101,34687;2,60988
3099,29572;2,60781
3097,24456;2,60157
3095,19341;2,59547
3093,14225;2,59746
3091,09109;2,60714
3089,03994;2,61203
3086,98878;2,60434
3084,93763;2,59068
3082,88647;2,57975
3080,83532;2,57308
3078,78416;2,56633
3076,73301;2,56289
3074,68185;2,57013
3072,6307;2,58277
3070,57954;2,58914
3068,52839;2,58582
3066,47723;2,5822
3064,42608;2,58289
3062,37492;2,58048
3060,32376;2,57412
3058,27261;2,56829
3056,22145;2,5624
3054,1703;2,55479
3052,11914;2,54845
3050,06799;2,54779
3048,01683;2,54943
3045,96568;2,5465
3043,91452;2,54195
3041,86337;2,54118
3039,81221;2,5404
3037,76106;2,53519
3035,7099;2,52849
3033,65875;2,52473
3031,60759;2,52356
3029,55643;2,52234
3027,50528;2,52014
3025,45412;2,51658
3023,40297;2,51077
3021,35181;2,50471
3019,30066;2,50153
3017,2495;2,50077
3015,19835;2,49832
3013,14719;2,49424
3011,09604;2,49307
3009,04488;2,49426
3006,99373;2,49704
3004,94257;2,49953
3002,89142;2,49695
3000,84026;2,49446
2998,7891;2,49783
2996,73795;2,50372
2994,68679;2,51093
2992,63564;2,51767
2990,58448;2,52089
2988,53333;2,52442
2986,48217;2,5298
2984,43102;2,53235
2982,37986;2,53269
2980,32871;2,53472
2978,27755;2,5372
2976,2264;2,54207
2974,17524;2,54657
2972,12409;2,54238
2970,07293;2,53585
2968,02177;2,53548
2965,97062;2,53995
2963,91946;2,54627
2961,86831;2,55041
2959,81715;2,54827
2957,766;2,54341
2955,71484;2,53623
2953,66369;2,52615
2951,61253;2,52013
2949,56138;2,52279
2947,51022;2,52611
2945,45907;2,52072
2943,40791;2,51376
2941,35675;2,51152
2939,3056;2,51442
2937,25444;2,51818
2935,20329;2,51635
2933,15213;2,51503
2931,10098;2,5148
2929,04982;2,512
2926,99867;2,51055
2924,94751;2,51106
2922,89636;2,51361
2920,8452;2,51383
2918,79405;2,50704
2916,74289;2,49864
2914,69174;2,49197
2912,64058;2,487
2910,58942;2,48454
2908,53827;2,48559
2906,48711;2,49026
2904,43596;2,49159
2902,3848;2,48548
2900,33365;2,47993
2898,28249;2,47781
2896,23134;2,47415
2894,18018;2,47005
2892,12903;2,46964
2890,07787;2,47385
2888,02672;2,47997
2885,97556;2,48183
2883,92441;2,47917
2881,87325;2,48056
2879,82209;2,48841
2877,77094;2,49578
2875,71978;2,49718
2873,66863;2,49444
2871,61747;2,49
2869,56632;2,4849
2867,51516;2,4813
2865,46401;2,47561
2863,41285;2,46745
2861,3617;2,46031
2859,31054;2,4535
2857,25939;2,45043
2855,20823;2,44851
2853,15708;2,44375
2851,10592;2,43892
2849,05476;2,4319
2847,00361;2,42346
2844,95245;2,4171
2842,9013;2,41239
2840,85014;2,40912
2838,79899;2,4055
2836,74783;2,39934
2834,69668;2,39287
2832,64552;2,38763
2830,59437;2,37951
2828,54321;2,36898
2826,49206;2,36491
2824,4409;2,36452
2822,38975;2,35679
2820,33859;2,34551
2818,28743;2,33945
2816,23628;2,33857
2814,18512;2,33861
2812,13397;2,33754
2810,08281;2,33696
2808,03166;2,33696
2805,9805;2,33401
2803,92935;2,32769
2801,87819;2,32454
2799,82704;2,32636
2797,77588;2,32479
2795,72473;2,31753
2793,67357;2,3107
2791,62242;2,30541
2789,57126;2,30164
2787,5201;2,30046
2785,46895;2,2984
2783,41779;2,29371
2781,36664;2,28964
2779,31548;2,28764
2777,26433;2,28713
2775,21317;2,28688
2773,16202;2,28427
2771,11086;2,28114
2769,05971;2,28063
2767,00855;2,27869
2764,9574;2,2738
2762,90624;2,2703
2760,85509;2,26687
2758,80393;2,26321
2756,75277;2,2642
2754,70162;2,26784
2752,65046;2,26757
2750,59931;2,26298
2748,54815;2,2586
2746,497;2,25651
2744,44584;2,25523
2742,39469;2,25376
2740,34353;2,25356
2738,29238;2,25389
2736,24122;2,25119
2734,19007;2,24802
2732,13891;2,24811
2730,08776;2,2474
2728,0366;2,24252
2725,98544;2,23711
2723,93429;2,23605
2721,88313;2,23842
2719,83198;2,23987
2717,78082;2,23983
2715,72967;2,2399
2713,67851;2,23892
2711,62736;2,23578
2709,5762;2,23286
2707,52505;2,23145
2705,47389;2,23005
2703,42274;2,22833
2701,37158;2,22642
2699,32043;2,22357
2697,26927;2,22171
2695,21811;2,22231
2693,16696;2,22197
2691,1158;2,22066
2689,06465;2,22149
2687,01349;2,22291
2684,96234;2,22159
2682,91118;2,21685
2680,86003;2,21308
2678,80887;2,21446
2676,75772;2,21844
2674,70656;2,22033
2672,65541;2,2194
2670,60425;2,21783
2668,55309;2,21729
2666,50194;2,21595
2664,45078;2,21258
2662,39963;2,21169
2660,34847;2,21524
2658,29732;2,21869
2656,24616;2,21866
2654,19501;2,21668
2652,14385;2,2171
2650,0927;2,21962
2648,04154;2,21935
2645,99039;2,21854
2643,93923;2,22051
2641,88808;2,22365
2639,83692;2,22879
2637,78576;2,23626
2635,73461;2,24369
2633,68345;2,24892
2631,6323;2,25227
2629,58114;2,25696
2627,52999;2,26552
2625,47883;2,27442
2623,42768;2,27862
2621,37652;2,28176
2619,32537;2,28784
2617,27421;2,29235
2615,22306;2,29344
2613,1719;2,29833
2611,12075;2,30717
2609,06959;2,3115
2607,01843;2,31174
2604,96728;2,31397
2602,91612;2,31808
2600,86497;2,32199
2598,81381;2,3248
2596,76266;2,32612
2594,7115;2,32758
2592,66035;2,32749
2590,60919;2,32599
2588,55804;2,3262
2586,50688;2,32585
2584,45573;2,32443
2582,40457;2,32547
2580,35342;2,32919
2578,30226;2,33203
2576,2511;2,33242
2574,19995;2,33165
2572,14879;2,32998
2570,09764;2,32842
2568,04648;2,32855
2565,99533;2,32939
2563,94417;2,33038
2561,89302;2,33246
2559,84186;2,33595
2557,79071;2,33996
2555,73955;2,34298
2553,6884;2,34486
2551,63724;2,34649
2549,58609;2,34941
2547,53493;2,35246
2545,48377;2,35285
2543,43262;2,35341
2541,38146;2,35672
2539,33031;2,36135
2537,27915;2,36684
2535,228;2,37402
2533,17684;2,38167
2531,12569;2,38758
2529,07453;2,39456
2527,02338;2,40417
2524,97222;2,41019
2522,92107;2,41086
2520,86991;2,41083
2518,81876;2,41385
2516,7676;2,41936
2514,71644;2,42123
2512,66529;2,41884
2510,61413;2,41555
2508,56298;2,41189
2506,51182;2,40842
2504,46067;2,40535
2502,40951;2,40018
2500,35836;2,39012
2498,3072;2,37869
2496,25605;2,36908
2494,20489;2,36094
2492,15374;2,35324
2490,10258;2,3457
2488,05143;2,33784
2486,00027;2,32759
2483,94911;2,31727
2481,89796;2,31044
2479,8468;2,30399
2477,79565;2,2922
2475,74449;2,27729
2473,69334;2,26546
2471,64218;2,2579
2469,59103;2,25253
2467,53987;2,24689
2465,48872;2,23904
2463,43756;2,22949
2461,38641;2,22212
2459,33525;2,21801
2457,2841;2,21306
2455,23294;2,20585
2453,18178;2,19892
2451,13063;2,19411
2449,07947;2,192
2447,02832;2,19052
2444,97716;2,18735
2442,92601;2,18382
2440,87485;2,18072
2438,8237;2,17698
2436,77254;2,17278
2434,72139;2,16968
2432,67023;2,16789
2430,61908;2,16654
2428,56792;2,1656
2426,51677;2,16337
2424,46561;2,15796
2422,41445;2,15234
2420,3633;2,14987
2418,31214;2,14942
2416,26099;2,14873
2414,20983;2,14633
2412,15868;2,14291
2410,10752;2,14131
2408,05637;2,14083
2406,00521;2,13857
2403,95406;2,13513
2401,9029;2,13351
2399,85175;2,13532
2397,80059;2,13692
2395,74944;2,13569
2393,69828;2,13347
2391,64712;2,13222
2389,59597;2,13164
2387,54481;2,13131
2385,49366;2,1314
2383,4425;2,13218
2381,39135;2,13335
2379,34019;2,13313
2377,28904;2,13113
2375,23788;2,13191
2373,18673;2,1386
2371,13557;2,14714
2369,08442;2,15249
2367,03326;2,15167
2364,9821;2,14538
2362,93095;2,1402
2360,87979;2,13725
2358,82864;2,13264
2356,77748;2,12742
2354,72633;2,12412
2352,67517;2,12632
2350,62402;2,13382
2348,57286;2,14045
2346,52171;2,14301
2344,47055;2,14317
2342,4194;2,14069
2340,36824;2,13383
2338,31709;2,12748
2336,26593;2,12693
2334,21477;2,12839
2332,16362;2,12799
2330,11246;2,12925
2328,06131;2,1349
2326,01015;2,14106
2323,959;2,14271
2321,90784;2,13996
2319,85669;2,13835
2317,80553;2,14089
2315,75438;2,14379
2313,70322;2,14452
2311,65207;2,14443
2309,60091;2,14421
2307,54976;2,1431
2305,4986;2,14104
2303,44744;2,13958
2301,39629;2,13935
2299,34513;2,13904
2297,29398;2,13825
2295,24282;2,1381
2293,19167;2,13877
2291,14051;2,13937
2289,08936;2,13898
2287,0382;2,13802
2284,98705;2,13768
2282,93589;2,13775
2280,88474;2,13785
2278,83358;2,13854
2276,78243;2,13965
2274,73127;2,14055
2272,68011;2,14113
2270,62896;2,14183
2268,5778;2,14344
2266,52665;2,14569
2264,47549;2,14685
2262,42434;2,14684
2260,37318;2,1479
2258,32203;2,15108
2256,27087;2,15421
2254,21972;2,15491
2252,16856;2,15501
2250,11741;2,15658
2248,06625;2,15839
2246,0151;2,15914
2243,96394;2,16088
2241,91278;2,16412
2239,86163;2,16733
2237,81047;2,16956
2235,75932;2,16991
2233,70816;2,16912
2231,65701;2,17034
2229,60585;2,17434
2227,5547;2,17969
2225,50354;2,18373
2223,45239;2,18464
2221,40123;2,18523
2219,35008;2,1873
2217,29892;2,18777
2215,24777;2,18588
2213,19661;2,18494
2211,14545;2,18657
2209,0943;2,18843
2207,04314;2,18906
2204,99199;2,19104
2202,94083;2,19423
2200,88968;2,19572
2198,83852;2,19606
2196,78737;2,19608
2194,73621;2,19533
2192,68506;2,19583
2190,6339;2,1988
2188,58275;2,20171
2186,53159;2,20299
2184,48044;2,20409
2182,42928;2,20597
2180,37812;2,20806
2178,32697;2,20976
2176,27581;2,2108
2174,22466;2,21232
2172,1735;2,21614
2170,12235;2,22003
2168,07119;2,22133
2166,02004;2,22223
2163,96888;2,2234
2161,91773;2,22629
2159,86657;2,23422
2157,81542;2,24369
2155,76426;2,25008
2153,71311;2,2549
2151,66195;2,26143
2149,61079;2,26906
2147,55964;2,27514
2145,50848;2,27939
2143,45733;2,28186
2141,40617;2,28293
2139,35502;2,28401
2137,30386;2,28406
2135,25271;2,28104
2133,20155;2,27687
2131,1504;2,27391
2129,09924;2,27163
2127,04809;2,26771
2124,99693;2,26096
2122,94578;2,25386
2120,89462;2,24756
2118,84346;2,24218
2116,79231;2,23851
2114,74115;2,23605
2112,69;2,23402
2110,63884;2,23158
2108,58769;2,22908
2106,53653;2,22772
2104,48538;2,22785
2102,43422;2,22882
2100,38307;2,23022
2098,33191;2,23031
2096,28076;2,2278
2094,2296;2,22572
2092,17844;2,22661
2090,12729;2,22912
2088,07613;2,23125
2086,02498;2,23191
2083,97382;2,23259
2081,92267;2,23393
2079,87151;2,23427
2077,82036;2,23406
2075,7692;2,23469
2073,71805;2,23579
2071,66689;2,23673
2069,61574;2,23838
2067,56458;2,24082
2065,51343;2,24199
2063,46227;2,24206
2061,41111;2,24293
2059,35996;2,24504
2057,3088;2,24717
2055,25765;2,24928
2053,20649;2,25226
2051,15534;2,25369
2049,10418;2,25306
2047,05303;2,25398
2045,00187;2,25719
2042,95072;2,25962
2040,89956;2,26052
2038,84841;2,26254
2036,79725;2,26545
2034,7461;2,26748
2032,69494;2,26947
2030,64378;2,27125
2028,59263;2,27092
2026,54147;2,26902
2024,49032;2,26814
2022,43916;2,27232
2020,38801;2,28157
2018,33685;2,28725
2016,2857;2,28652
2014,23454;2,28727
2012,18339;2,29214
2010,13223;2,29672
2008,08108;2,29782
2006,02992;2,29771
2003,97877;2,30003
2001,92761;2,30368
1999,87645;2,30523
1997,8253;2,30505
1995,77414;2,30571
1993,72299;2,3056
1991,67183;2,30451
1989,62068;2,30685
1987,56952;2,31234
1985,51837;2,3168
1983,46721;2,31799
1981,41606;2,31841
1979,3649;2,32043
1977,31375;2,32188
1975,26259;2,3216
1973,21144;2,32264
1971,16028;2,32635
1969,10912;2,33187
1967,05797;2,34036
1965,00681;2,35127
1962,95566;2,35965
1960,9045;2,36325
1958,85335;2,36289
1956,80219;2,35944
1954,75104;2,35482
1952,69988;2,35296
1950,64873;2,354
1948,59757;2,35407
1946,54642;2,35412
1944,49526;2,35572
1942,44411;2,35642
1940,39295;2,35689
1938,34179;2,35867
1936,29064;2,3625
1934,23948;2,36513
1932,18833;2,36375
1930,13717;2,36273
1928,08602;2,36506
1926,03486;2,36886
1923,98371;2,37148
1921,93255;2,37306
1919,8814;2,37478
1917,83024;2,37782
1915,77909;2,38336
1913,72793;2,38835
1911,67678;2,3909
1909,62562;2,39259
1907,57446;2,39676
1905,52331;2,40199
1903,47215;2,40542
1901,421;2,40921
1899,36984;2,4133
1897,31869;2,41528
1895,26753;2,41755
1893,21638;2,42321
1891,16522;2,43044
1889,11407;2,43633
1887,06291;2,43945
1885,01176;2,44005
1882,9606;2,4408
1880,90945;2,44362
1878,85829;2,44889
1876,80713;2,45557
1874,75598;2,46223
1872,70482;2,46888
1870,65367;2,47522
1868,60251;2,47963
1866,55136;2,48046
1864,5002;2,48005
1862,44905;2,48286
1860,39789;2,48778
1858,34674;2,4909
1856,29558;2,49176
1854,24443;2,49286
1852,19327;2,49679
1850,14212;2,50209
1848,09096;2,50454
1846,0398;2,50422
1843,98865;2,50821
1841,93749;2,51841
1839,88634;2,52649
1837,83518;2,532
1835,78403;2,53914
1833,73287;2,54753
1831,68172;2,55324
1829,63056;2,5572
1827,57941;2,56663
1825,52825;2,57842
1823,4771;2,58529
1821,42594;2,58937
1819,37478;2,59651
1817,32363;2,60735
1815,27247;2,62069
1813,22132;2,63557
1811,17016;2,65042
1809,11901;2,66546
1807,06785;2,683
1805,0167;2,7042
1802,96554;2,72699
1800,91439;2,74859
1798,86323;2,76586
1796,81208;2,77453
1794,76092;2,77153
1792,70977;2,75883
1790,65861;2,74459
1788,60745;2,73235
1786,5563;2,72079
1784,50514;2,71135
1782,45399;2,70214
1780,40283;2,69349
1778,35168;2,69076
1776,30052;2,69037
1774,24937;2,68603
1772,19821;2,67785
1770,14706;2,67247
1768,0959;2,67273
1766,04475;2,67638
1763,99359;2,67996
1761,94244;2,68564
1759,89128;2,69596
1757,84012;2,70085
1755,78897;2,69868
1753,73781;2,69736
1751,68666;2,69834
1749,6355;2,70539
1747,58435;2,71965
1745,53319;2,73358
1743,48204;2,74194
1741,43088;2,7423
1739,37973;2,73595
1737,32857;2,7288
1735,27742;2,7224
1733,22626;2,72997
1731,17511;2,75037
1729,12395;2,75989
1727,07279;2,75993
1725,02164;2,76514
1722,97048;2,77737
1720,91933;2,78632
1718,86817;2,78972
1716,81702;2,79685
1714,76586;2,80289
1712,71471;2,80299
1710,66355;2,80659
1708,6124;2,82397
1706,56124;2,8544
1704,51009;2,87833
1702,45893;2,87537
1700,40778;2,86685
1698,35662;2,88759
1696,30546;2,91852
1694,25431;2,94782
1692,20315;2,979
1690,152;3,00994
1688,10084;3,03272
1686,04969;3,03216
1683,99853;3,0168
1681,94738;3,01745
1679,89622;3,03057
1677,84507;3,04115
1675,79391;3,04892
1673,74276;3,06036
1671,6916;3,06533
1669,64045;3,05823
1667,58929;3,05799
1665,53813;3,06627
1663,48698;3,07165
1661,43582;3,07596
1659,38467;3,0814
1657,33351;3,08816
1655,28236;3,08955
1653,2312;3,07161
1651,18005;3,05153
1649,12889;3,03474
1647,07774;3,01801
1645,02658;3,01963
1642,97543;3,03457
1640,92427;3,04162
1638,87312;3,03103
1636,82196;3,00528
1634,7708;2,98457
1632,71965;2,98385
1630,66849;2,98351
1628,61734;2,97064
1626,56618;2,95956
1624,51503;2,9589
1622,46387;2,96158
1620,41272;2,95823
1618,36156;2,93745
1616,31041;2,90966
1614,25925;2,90061
1612,2081;2,90132
1610,15694;2,89395
1608,10579;2,88107
1606,05463;2,87373
1604,00347;2,87836
1601,95232;2,8948
1599,90116;2,91067
1597,85001;2,90954
1595,79885;2,89243
1593,7477;2,87908
1591,69654;2,88213
1589,64539;2,8902
1587,59423;2,88843
1585,54308;2,8794
1583,49192;2,87302
1581,44077;2,87254
1579,38961;2,87115
1577,33846;2,85959
1575,2873;2,84474
1573,23614;2,83941
1571,18499;2,8344
1569,13383;2,82347
1567,08268;2,81493
1565,03152;2,80902
1562,98037;2,79484
1560,92921;2,75726
1558,87806;2,71032
1556,8269;2,69725
1554,77575;2,69682
1552,72459;2,682
1550,67344;2,65578
1548,62228;2,63329
1546,57113;2,61933
1544,51997;2,60506
1542,46881;2,58523
1540,41766;2,56153
1538,3665;2,54823
1536,31535;2,54291
1534,26419;2,53086
1532,21304;2,52112
1530,16188;2,52021
1528,11073;2,51754
1526,05957;2,51098
1524,00842;2,50438
1521,95726;2,49644
1519,90611;2,49313
1517,85495;2,49245
1515,80379;2,48886
1513,75264;2,48512
1511,70148;2,48346
1509,65033;2,48421
1507,59917;2,48122
1505,54802;2,47294
1503,49686;2,465
1501,44571;2,4566
1499,39455;2,44674
1497,3434;2,43504
1495,29224;2,42782
1493,24109;2,42762
1491,18993;2,42556
1489,13878;2,41993
1487,08762;2,4141
1485,03646;2,41035
1482,98531;2,40873
1480,93415;2,40775
1478,883;2,40772
1476,83184;2,4109
1474,78069;2,41651
1472,72953;2,41858
1470,67838;2,41921
1468,62722;2,41835
1466,57607;2,41297
1464,52491;2,41124
1462,47376;2,41782
1460,4226;2,42239
1458,37145;2,41913
1456,32029;2,41373
1454,26913;2,412
1452,21798;2,41115
1450,16682;2,40843
1448,11567;2,40363
1446,06451;2,40053
1444,01336;2,40007
1441,9622;2,40024
1439,91105;2,39835
1437,85989;2,38988
1435,80874;2,38129
1433,75758;2,37758
1431,70643;2,36886
1429,65527;2,35599
1427,60412;2,3464
1425,55296;2,33748
1423,5018;2,32751
1421,45065;2,31709
1419,39949;2,30432
1417,34834;2,29223
1415,29718;2,27993
1413,24603;2,26497
1411,19487;2,24955
1409,14372;2,23867
1407,09256;2,23715
1405,04141;2,24618
1402,99025;2,26182
1400,9391;2,27625
1398,88794;2,28826
1396,83679;2,30067
1394,78563;2,31404
1392,73447;2,33014
1390,68332;2,3456
1388,63216;2,35859
1386,58101;2,37401
1384,52985;2,39159
1382,4787;2,40645
1380,42754;2,41838
1378,37639;2,42759
1376,32523;2,43406
1374,27408;2,44104
1372,22292;2,45215
1370,17177;2,46394
1368,12061;2,47254
1366,06946;2,4782
1364,0183;2,48095
1361,96714;2,48327
1359,91599;2,48922
1357,86483;2,49785
1355,81368;2,50649
1353,76252;2,5146
1351,71137;2,5207
1349,66021;2,52211
1347,60906;2,51998
1345,5579;2,51974
1343,50675;2,52408
1341,45559;2,53046
1339,40444;2,53835
1337,35328;2,54583
1335,30213;2,54752
1333,25097;2,54575
1331,19981;2,54804
1329,14866;2,55712
1327,0975;2,56722
1325,04635;2,57201
1322,99519;2,57421
1320,94404;2,57882
1318,89288;2,58321
1316,84173;2,5841
1314,79057;2,58561
1312,73942;2,58823
1310,68826;2,58667
1308,63711;2,58349
1306,58595;2,58361
1304,5348;2,58365
1302,48364;2,58168
1300,43248;2,58038
1298,38133;2,58031
1296,33017;2,58361
1294,27902;2,59013
1292,22786;2,59443
1290,17671;2,59725
1288,12555;2,60054
1286,0744;2,60111
1284,02324;2,60187
1281,97209;2,60716
1279,92093;2,61105
1277,86978;2,60684
1275,81862;2,59962
1273,76747;2,59853
1271,71631;2,60341
1269,66515;2,60826
1267,614;2,61067
1265,56284;2,60955
1263,51169;2,60361
1261,46053;2,59621
1259,40938;2,59437
1257,35822;2,60107
1255,30707;2,60906
1253,25591;2,60903
1251,20476;2,60255
1249,1536;2,59665
1247,10245;2,59328
1245,05129;2,59208
1243,00013;2,59226
1240,94898;2,59421
1238,89782;2,59766
1236,84667;2,59702
1234,79551;2,58966
1232,74436;2,57967
1230,6932;2,57277
1228,64205;2,57117
1226,59089;2,56858
1224,53974;2,56335
1222,48858;2,56159
1220,43743;2,55986
1218,38627;2,55543
1216,33512;2,55658
1214,28396;2,56296
1212,2328;2,56287
1210,18165;2,56023
1208,13049;2,56762
1206,07934;2,57704
1204,02818;2,57784
1201,97703;2,57813
1199,92587;2,58648
1197,87472;2,59986
1195,82356;2,6078
1193,77241;2,60691
1191,72125;2,60589
1189,6701;2,61027
1187,61894;2,6165
1185,56779;2,62036
1183,51663;2,62355
1181,46547;2,62592
1179,41432;2,6235
1177,36316;2,62203
1175,31201;2,62722
1173,26085;2,63316
1171,2097;2,63405
1169,15854;2,63554
1167,10739;2,64091
1165,05623;2,64526
1163,00508;2,65141
1160,95392;2,66058
1158,90277;2,66168
1156,85161;2,65291
1154,80046;2,64345
1152,7493;2,63446
1150,69814;2,62485
1148,64699;2,618
1146,59583;2,61055
1144,54468;2,59763
1142,49352;2,58529
1140,44237;2,57749
1138,39121;2,56897
1136,34006;2,5569
1134,2889;2,54627
1132,23775;2,54271
1130,18659;2,54162
1128,13544;2,53333
1126,08428;2,52138
1124,03313;2,51471
1121,98197;2,51189
1119,93081;2,51279
1117,87966;2,51823
1115,8285;2,52808
1113,77735;2,54794
1111,72619;2,57739
1109,67504;2,59985
1107,62388;2,59896
1105,57273;2,57968
1103,52157;2,55561
1101,47042;2,53546
1099,41926;2,52181
1097,36811;2,50913
1095,31695;2,49509
1093,2658;2,485
1091,21464;2,47671
1089,16348;2,46395
1087,11233;2,45375
1085,06117;2,45097
1083,01002;2,44493
1080,95886;2,43122
1078,90771;2,41671
1076,85655;2,40855
1074,8054;2,40864
1072,75424;2,40923
1070,70309;2,40802
1068,65193;2,41042
1066,60078;2,41567
1064,54962;2,421
1062,49847;2,42281
1060,44731;2,41887
1058,39615;2,41214
1056,345;2,40299
1054,29384;2,39016
1052,24269;2,37732
1050,19153;2,3685
1048,14038;2,36185
1046,08922;2,35317
1044,03807;2,34195
1041,98691;2,32932
1039,93576;2,31634
1037,8846;2,30682
1035,83345;2,30424
1033,78229;2,30768
1031,73114;2,31678
1029,67998;2,33424
1027,62882;2,36206
1025,57767;2,39927
1023,52651;2,43693
1021,47536;2,46142
1019,4242;2,46764
1017,37305;2,46343
1015,32189;2,45666
1013,27074;2,44364
1011,21958;2,42165
1009,16843;2,39936
1007,11727;2,38675
1005,06612;2,38609
1003,01496;2,39768
1000,96381;2,4194
998,91265;2,44306
996,86149;2,46502
994,81034;2,48324
992,75918;2,49761
990,70803;2,51504
988,65687;2,5358
986,60572;2,5501
984,55456;2,55246
982,50341;2,55334
980,45225;2,56285
978,4011;2,57516
976,34994;2,58448
974,29879;2,59481
972,24763;2,60782
970,19647;2,61625
968,14532;2,61988
966,09416;2,62978
964,04301;2,64489
961,99185;2,65687
959,9407;2,66756
957,88954;2,68046
955,83839;2,69296
953,78723;2,69853
951,73608;2,6953
949,68492;2,69342
947,63377;2,70508
945,58261;2,72211
943,53146;2,7218
941,4803;2,7071
939,42914;2,70004
937,37799;2,70588
935,32683;2,71086
933,27568;2,70731
931,22452;2,70001
929,17337;2,69147
927,12221;2,6778
925,07106;2,6625
923,0199;2,65273
920,96875;2,64462
918,91759;2,62637
916,86644;2,59327
914,81528;2,5642
912,76413;2,55518
910,71297;2,55672
908,66181;2,5602
906,61066;2,56889
904,5595;2,57795
902,50835;2,58119
900,45719;2,58422
898,40604;2,59297
896,35488;2,59788
894,30373;2,59153
892,25257;2,5879
890,20142;2,58896
888,15026;2,58576
886,09911;2,58669
884,04795;2,60485
881,9968;2,62924
879,94564;2,63077
877,89448;2,60947
875,84333;2,5781
873,79217;2,53586
871,74102;2,50745
869,68986;2,5243
867,63871;2,57055
865,58755;2,60419
863,5364;2,61721
861,48524;2,61925
859,43409;2,61796
857,38293;2,62566
855,33178;2,63954
853,28062;2,6495
851,22947;2,6589
849,17831;2,66862
847,12715;2,67615
845,076;2,67651
843,02484;2,67032
840,97369;2,67305
838,92253;2,68825
836,87138;2,70395
834,82022;2,71731
832,76907;2,72968
830,71791;2,73814
828,66676;2,74181
826,6156;2,7437
824,56445;2,75167
822,51329;2,76397
820,46214;2,76785
818,41098;2,76853
816,35982;2,77983
814,30867;2,79993
812,25751;2,82229
810,20636;2,83594
808,1552;2,82933
806,10405;2,81444
804,05289;2,80715
802,00174;2,79788
799,95058;2,77824
797,89943;2,7587
795,84827;2,74425
793,79712;2,74056
791,74596;2,74742
789,69481;2,76475
787,64365;2,78588
785,59249;2,78541
783,54134;2,76233
781,49018;2,74574
779,43903;2,74179
777,38787;2,7316
775,33672;2,73052
773,28556;2,74924
771,23441;2,76595
769,18325;2,7745
767,1321;2,77628
765,08094;2,76207
763,02979;2,74396
760,97863;2,75187
758,92748;2,78886
756,87632;2,81178
754,82516;2,79971
752,77401;2,7866
750,72285;2,78999
748,6717;2,79433
746,62054;2,80265
744,56939;2,81376
742,51823;2,81028
740,46708;2,80415
738,41592;2,80912
736,36477;2,80322
734,31361;2,79157
732,26246;2,81498
730,2113;2,85683
728,16015;2,87103
726,10899;2,8639
724,05783;2,85214
722,00668;2,85234
719,95552;2,87802
717,90437;2,91148
715,85321;2,93748
713,80206;2,95795
711,7509;2,95185
709,69975;2,90943
707,64859;2,87134
705,59744;2,87063
703,54628;2,89992
701,49513;2,91769
699,44397;2,89583
697,39281;2,87316
695,34166;2,89211
693,2905;2,93009
691,23935;2,93429
689,18819;2,89399
687,13704;2,84515
685,08588;2,81935
683,03473;2,82441
680,98357;2,84574
678,93242;2,85429
676,88126;2,84759
674,83011;2,85146
672,77895;2,87386
670,7278;2,89727
668,67664;2,90993
666,62548;2,91767
664,57433;2,91546
662,52317;2,89497
660,47202;2,86452
658,42086;2,84421
656,36971;2,84384
654,31855;2,84626
652,2674;2,83998
650,21624;2,84407
648,16509;2,85983
646,11393;2,86721
644,06278;2,8762
642,01162;2,90313
639,96047;2,92804
637,90931;2,93728
635,85815;2,93773
633,807;2,92185
631,75584;2,87357
629,70469;2,81878
627,65353;2,81465
625,60238;2,86079
623,55122;2,88102
621,50007;2,83255
619,44891;2,78777
617,39776;2,79419
615,3466;2,81904
613,29545;2,81677
611,24429;2,79394
609,19314;2,75927
607,14198;2,73875
605,09082;2,75731
603,03967;2,75772
600,98851;2,725
598,93736;2,71652
596,8862;2,72527
594,83505;2,72303
592,78389;2,7088
590,73274;2,67224
588,68158;2,63475
586,63043;2,62974
584,57927;2,63384
582,52812;2,6117
580,47696;2,58342
578,42581;2,57068
576,37465;2,56049
574,32349;2,53171
572,27234;2,48318
570,22118;2,45489
568,17003;2,47084
566,11887;2,49528
564,06772;2,47366
562,01656;2,41635
559,96541;2,38144
557,91425;2,39002
555,8631;2,40996
553,81194;2,40166
551,76079;2,37524
549,70963;2,36596
547,65848;2,37279
545,60732;2,36155
543,55616;2,32479
541,50501;2,30261
539,45385;2,31377
537,4027;2,34071
535,35154;2,3717
533,30039;2,39062
531,24923;2,39442
529,19808;2,40474
527,14692;2,42312
525,09577;2,43455
523,04461;2,44764
520,99346;2,47264
518,9423;2,50087
516,89115;2,53428
514,83999;2,57184
512,78883;2,58471
510,73768;2,56081
508,68652;2,53319
506,63537;2,5366
504,58421;2,56328
502,53306;2,58923
500,4819;2,59763
498,43075;2,58325
496,37959;2,57161
494,32844;2,56823
492,27728;2,55755
490,22613;2,53536
488,17497;2,49837
486,12382;2,44001
484,07266;2,37192
482,0215;2,31983
479,97035;2,29431
477,91919;2,28896
475,86804;2,28694
473,81688;2,27852
471,76573;2,26973
469,71457;2,25678
467,66342;2,24511
465,61226;2,25436
463,56111;2,28068
461,50995;2,30319
459,4588;2,31648
457,40764;2,34267
455,35649;2,39647
453,30533;2,44555
451,25417;2,46224
449,20302;2,46915
447,15186;2,47596
445,10071;2,47649
443,04955;2,4942
440,9984;2,5231
438,94724;2,5282
436,89609;2,50231
434,84493;2,45743
432,79378;2,42189
430,74262;2,38624
428,69147;2,34394
426,64031;2,3416
424,58916;2,38538
422,538;2,42817
420,48684;2,4336
418,43569;2,38153
416,38453;2,32313
414,33338;2,32436
412,28222;2,37184
410,23107;2,40793
408,17991;2,41155
406,12876;2,40571
404,0776;2,39464
402,02645;2,38036
399,97529;2,3961
