3997,70175;1,82736
3995,6506;1,83114
3993,59944;1,83491
3991,54829;1,83727
3989,49713;1,83779
3987,44598;1,83719
3985,39482;1,83818
3983,34367;1,84067
3981,29251;1,84072
3979,24136;1,83922
3977,1902;1,83989
3975,13905;1,84168
3973,08789;1,84316
3971,03673;1,84507
3968,98558;1,8463
3966,93442;1,84655
3964,88327;1,84752
3962,83211;1,84988
3960,78096;1,85374
3958,7298;1,85771
3956,67865;1,85898
3954,62749;1,8579
3952,57634;1,8589
3950,52518;1,8637
3948,47403;1,86877
3946,42287;1,87232
3944,37172;1,8751
3942,32056;1,87531
3940,2694;1,87156
3938,21825;1,86633
3936,16709;1,86313
3934,11594;1,86291
3932,06478;1,86335
3930,01363;1,8616
3927,96247;1,85764
3925,91132;1,85319
3923,86016;1,84911
3921,80901;1,84491
3919,75785;1,83994
3917,7067;1,83407
3915,65554;1,82815
3913,60439;1,82269
3911,55323;1,81728
3909,50207;1,81297
3907,45092;1,81175
3905,39976;1,81334
3903,34861;1,81473
3901,29745;1,81359
3899,2463;1,80968
3897,19514;1,80449
3895,14399;1,80128
3893,09283;1,80114
3891,04168;1,80147
3888,99052;1,8008
3886,93937;1,80048
3884,88821;1,80181
3882,83706;1,80361
3880,7859;1,8027
3878,73474;1,79989
3876,68359;1,7991
3874,63243;1,79978
3872,58128;1,79951
3870,53012;1,79744
3868,47897;1,79597
3866,42781;1,79766
3864,37666;1,80037
3862,3255;1,79952
3860,27435;1,79511
3858,22319;1,7906
3856,17204;1,78804
3854,12088;1,78999
3852,06973;1,79379
3850,01857;1,7934
3847,96741;1,79055
3845,91626;1,78985
3843,8651;1,79284
3841,81395;1,7974
3839,76279;1,79953
3837,71164;1,79712
3835,66048;1,79322
3833,60933;1,79121
3831,55817;1,79085
3829,50702;1,79082
3827,45586;1,78988
3825,40471;1,78857
3823,35355;1,78836
3821,3024;1,78942
3819,25124;1,79095
3817,20008;1,7914
3815,14893;1,79037
3813,09777;1,78986
3811,04662;1,7903
3808,99546;1,7911
3806,94431;1,79225
3804,89315;1,79367
3802,842;1,79437
3800,79084;1,79529
3798,73969;1,79828
3796,68853;1,80136
3794,63738;1,80238
3792,58622;1,80185
3790,53506;1,80209
3788,48391;1,80456
3786,43275;1,80748
3784,3816;1,80918
3782,33044;1,81105
3780,27929;1,8138
3778,22813;1,81604
3776,17698;1,81773
3774,12582;1,82006
3772,07467;1,82293
3770,02351;1,8258
3767,97236;1,82875
3765,9212;1,83134
3763,87005;1,83375
3761,81889;1,83787
3759,76773;1,84342
3757,71658;1,84654
3755,66542;1,84764
3753,61427;1,85203
3751,56311;1,86026
3749,51196;1,86619
3747,4608;1,86993
3745,40965;1,87646
3743,35849;1,88639
3741,30734;1,89567
3739,25618;1,90314
3737,20503;1,91221
3735,15387;1,92233
3733,10272;1,92819
3731,05156;1,93293
3729,0004;1,94316
3726,94925;1,95906
3724,89809;1,97776
3722,84694;1,99611
3720,79578;2,01312
3718,74463;2,03274
3716,69347;2,05855
3714,64232;2,08912
3712,59116;2,12453
3710,54001;2,1652
3708,48885;2,20872
3706,4377;2,25599
3704,38654;2,30893
3702,33539;2,36703
3700,28423;2,4232
3698,23307;2,465
3696,18192;2,48292
3694,13076;2,47937
3692,07961;2,46628
3690,02845;2,4462
3687,9773;2,41743
3685,92614;2,39307
3683,87499;2,37789
3681,82383;2,37011
3679,77268;2,3705
3677,72152;2,37689
3675,67037;2,38893
3673,61921;2,40831
3671,56806;2,43111
3669,5169;2,44716
3667,46574;2,44627
3665,41459;2,43244
3663,36343;2,41931
3661,31228;2,42033
3659,26112;2,43734
3657,20997;2,46072
3655,15881;2,48229
3653,10766;2,49748
3651,0565;2,50693
3649,00535;2,51282
3646,95419;2,5083
3644,90304;2,4951
3642,85188;2,48087
3640,80073;2,46956
3638,74957;2,46333
3636,69841;2,46107
3634,64726;2,45958
3632,5961;2,46077
3630,54495;2,47481
3628,49379;2,50631
3626,44264;2,53952
3624,39148;2,56395
3622,34033;2,58147
3620,28917;2,58789
3618,23802;2,57697
3616,18686;2,55662
3614,13571;2,53928
3612,08455;2,52685
3610,0334;2,51461
3607,98224;2,5006
3605,93108;2,4922
3603,87993;2,49711
3601,82877;2,50984
3599,77762;2,51779
3597,72646;2,51823
3595,67531;2,51604
3593,62415;2,51476
3591,573;2,51879
3589,52184;2,52924
3587,47069;2,53694
3585,41953;2,53187
3583,36838;2,52428
3581,31722;2,52678
3579,26607;2,53534
3577,21491;2,53975
3575,16375;2,53895
3573,1126;2,53728
3571,06144;2,53862
3569,01029;2,54392
3566,95913;2,54864
3564,90798;2,54974
3562,85682;2,54842
3560,80567;2,54924
3558,75451;2,55697
3556,70336;2,5704
3554,6522;2,58474
3552,60105;2,59046
3550,54989;2,58681
3548,49874;2,58843
3546,44758;2,59838
3544,39642;2,60472
3542,34527;2,60028
3540,29411;2,58754
3538,24296;2,57749
3536,1918;2,57605
3534,14065;2,57558
3532,08949;2,57436
3530,03834;2,57894
3527,98718;2,58592
3525,93603;2,58894
3523,88487;2,58928
3521,83372;2,58957
3519,78256;2,59604
3517,73141;2,60844
3515,68025;2,61391
3513,62909;2,61188
3511,57794;2,61071
3509,52678;2,60948
3507,47563;2,61004
3505,42447;2,61184
3503,37332;2,60843
3501,32216;2,60677
3499,27101;2,61443
3497,21985;2,62459
3495,1687;2,6288
3493,11754;2,6247
3491,06639;2,61943
3489,01523;2,62029
3486,96407;2,62559
3484,91292;2,63436
3482,86176;2,64412
3480,81061;2,64065
3478,75945;2,62408
3476,7083;2,61771
3474,65714;2,6293
3472,60599;2,64237
3470,55483;2,64639
3468,50368;2,64718
3466,45252;2,64982
3464,40137;2,65357
3462,35021;2,65601
3460,29906;2,65339
3458,2479;2,64914
3456,19674;2,64944
3454,14559;2,64498
3452,09443;2,63021
3450,04328;2,61895
3447,99212;2,62201
3445,94097;2,63816
3443,88981;2,6568
3441,83866;2,67066
3439,7875;2,67749
3437,73635;2,66813
3435,68519;2,65095
3433,63404;2,64152
3431,58288;2,63485
3429,53173;2,63382
3427,48057;2,64581
3425,42941;2,66072
3423,37826;2,66627
3421,3271;2,66715
3419,27595;2,66788
3417,22479;2,66338
3415,17364;2,65959
3413,12248;2,6604
3411,07133;2,65783
3409,02017;2,65274
3406,96902;2,65612
3404,91786;2,67066
3402,86671;2,68075
3400,81555;2,67686
3398,7644;2,66856
3396,71324;2,65858
3394,66208;2,64811
3392,61093;2,64747
3390,55977;2,65573
3388,50862;2,66102
3386,45746;2,66042
3384,40631;2,65926
3382,35515;2,65878
3380,304;2,65277
3378,25284;2,64812
3376,20169;2,65084
3374,15053;2,65305
3372,09938;2,65624
3370,04822;2,6605
3367,99707;2,65997
3365,94591;2,65892
3363,89475;2,65491
3361,8436;2,64609
3359,79244;2,64882
3357,74129;2,66792
3355,69013;2,68322
3353,63898;2,68236
3351,58782;2,67129
3349,53667;2,65805
3347,48551;2,65506
3345,43436;2,66613
3343,3832;2,6749
3341,33205;2,6703
3339,28089;2,66204
3337,22974;2,6565
3335,17858;2,65261
3333,12742;2,653
3331,07627;2,65549
3329,02511;2,65473
3326,97396;2,6539
3324,9228;2,65627
3322,87165;2,65774
3320,82049;2,65907
3318,76934;2,66491
3316,71818;2,66865
3314,66703;2,66325
3312,61587;2,65129
3310,56472;2,63857
3308,51356;2,63546
3306,46241;2,64176
3304,41125;2,6477
3302,36009;2,65574
3300,30894;2,66609
3298,25778;2,67111
3296,20663;2,67113
3294,15547;2,66717
3292,10432;2,66053
3290,05316;2,65379
3288,00201;2,64397
3285,95085;2,63306
3283,8997;2,63174
3281,84854;2,64265
3279,79739;2,65068
3277,74623;2,64278
3275,69508;2,629
3273,64392;2,62298
3271,59276;2,62863
3269,54161;2,64008
3267,49045;2,64283
3265,4393;2,63363
3263,38814;2,62385
3261,33699;2,62215
3259,28583;2,62561
3257,23468;2,6234
3255,18352;2,61928
3253,13237;2,62907
3251,08121;2,64259
3249,03006;2,64045
3246,9789;2,63571
3244,92775;2,63604
3242,87659;2,62902
3240,82543;2,623
3238,77428;2,62939
3236,72312;2,63597
3234,67197;2,6326
3232,62081;2,62577
3230,56966;2,62375
3228,5185;2,62916
3226,46735;2,63495
3224,41619;2,6309
3222,36504;2,62115
3220,31388;2,61915
3218,26273;2,6272
3216,21157;2,62933
3214,16041;2,61932
3212,10926;2,61243
3210,0581;2,61037
3208,00695;2,60761
3205,95579;2,61172
3203,90464;2,62132
3201,85348;2,62502
3199,80233;2,62423
3197,75117;2,62522
3195,70002;2,62645
3193,64886;2,62703
3191,59771;2,62689
3189,54655;2,62435
3187,4954;2,62156
3185,44424;2,62146
3183,39308;2,62127
3181,34193;2,61829
3179,29077;2,61678
3177,23962;2,61989
3175,18846;2,62222
3173,13731;2,61853
3171,08615;2,61109
3169,035;2,60697
3166,98384;2,61064
3164,93269;2,61489
3162,88153;2,61345
3160,83038;2,61293
3158,77922;2,61562
3156,72807;2,61459
3154,67691;2,61114
3152,62575;2,6119
3150,5746;2,61416
3148,52344;2,61016
3146,47229;2,60332
3144,42113;2,59999
3142,36998;2,59978
3140,31882;2,60614
3138,26767;2,61271
3136,21651;2,60862
3134,16536;2,59841
3132,1142;2,59001
3130,06305;2,58828
3128,01189;2,59008
3125,96074;2,59204
3123,90958;2,60089
3121,85842;2,61388
3119,80727;2,61461
3117,75611;2,60226
3115,70496;2,59257
3113,6538;2,59535
3111,60265;2,60303
3109,55149;2,59979
3107,50034;2,59328
3105,44918;2,5963
3103,39803;2,59554
3101,34687;2,58648
3099,29572;2,58418
3097,24456;2,58748
3095,19341;2,5905
3093,14225;2,59557
3091,09109;2,59737
3089,03994;2,59318
3086,98878;2,59189
3084,93763;2,59304
3082,88647;2,58675
3080,83532;2,57787
3078,78416;2,57639
3076,73301;2,5834
3074,68185;2,59428
3072,6307;2,59891
3070,57954;2,59253
3068,52839;2,58255
3066,47723;2,57602
3064,42608;2,5754
3062,37492;2,58395
3060,32376;2,59117
3058,27261;2,58498
3056,22145;2,57759
3054,1703;2,57586
3052,11914;2,5715
3050,06799;2,56775
3048,01683;2,57064
3045,96568;2,57519
3043,91452;2,57551
3041,86337;2,56913
3039,81221;2,5594
3037,76106;2,55579
3035,7099;2,56251
3033,65875;2,57299
3031,60759;2,57967
3029,55643;2,58279
3027,50528;2,58282
3025,45412;2,57714
3023,40297;2,57035
3021,35181;2,56909
3019,30066;2,57027
3017,2495;2,57269
3015,19835;2,57888
3013,14719;2,58609
3011,09604;2,58907
3009,04488;2,58342
3006,99373;2,57311
3004,94257;2,57312
3002,89142;2,58413
3000,84026;2,589
2998,7891;2,58488
2996,73795;2,58274
2994,68679;2,58558
2992,63564;2,59498
2990,58448;2,60662
2988,53333;2,61182
2986,48217;2,61551
2984,43102;2,6197
2982,37986;2,62138
2980,32871;2,62717
2978,27755;2,63556
2976,2264;2,63424
2974,17524;2,6258
2972,12409;2,62541
2970,07293;2,63583
2968,02177;2,64767
2965,97062;2,65338
2963,91946;2,65401
2961,86831;2,6562
2959,81715;2,65965
2957,766;2,6607
2955,71484;2,65769
2953,66369;2,65287
2951,61253;2,64973
2949,56138;2,64855
2947,51022;2,64961
2945,45907;2,65077
2943,40791;2,65269
2941,35675;2,6602
2939,3056;2,66692
2937,25444;2,66731
2935,20329;2,66885
2933,15213;2,66891
2931,10098;2,66088
2929,04982;2,6493
2926,99867;2,63643
2924,94751;2,62334
2922,89636;2,61773
2920,8452;2,62161
2918,79405;2,61919
2916,74289;2,60624
2914,69174;2,5982
2912,64058;2,59419
2910,58942;2,58739
2908,53827;2,5842
2906,48711;2,58599
2904,43596;2,58524
2902,3848;2,58453
2900,33365;2,58658
2898,28249;2,58648
2896,23134;2,58367
2894,18018;2,58354
2892,12903;2,58988
2890,07787;2,59501
2888,02672;2,58848
2885,97556;2,57822
2883,92441;2,57822
2881,87325;2,58222
2879,82209;2,58137
2877,77094;2,584
2875,71978;2,59355
2873,66863;2,5998
2871,61747;2,59775
2869,56632;2,59584
2867,51516;2,59745
2865,46401;2,60065
2863,41285;2,60975
2861,3617;2,62061
2859,31054;2,62375
2857,25939;2,62352
2855,20823;2,62316
2853,15708;2,61308
2851,10592;2,59267
2849,05476;2,57637
2847,00361;2,56999
2844,95245;2,56466
2842,9013;2,5548
2840,85014;2,54589
2838,79899;2,54266
2836,74783;2,54022
2834,69668;2,5327
2832,64552;2,52006
2830,59437;2,50635
2828,54321;2,49536
2826,49206;2,48861
2824,4409;2,48328
2822,38975;2,47671
2820,33859;2,4703
2818,28743;2,46349
2816,23628;2,4574
2814,18512;2,4553
2812,13397;2,45437
2810,08281;2,45077
2808,03166;2,44556
2805,9805;2,43994
2803,92935;2,43402
2801,87819;2,42926
2799,82704;2,42864
2797,77588;2,43001
2795,72473;2,42708
2793,67357;2,42146
2791,62242;2,4158
2789,57126;2,4093
2787,5201;2,40353
2785,46895;2,40051
2783,41779;2,39926
2781,36664;2,39763
2779,31548;2,39646
2777,26433;2,39392
2775,21317;2,38877
2773,16202;2,38601
2771,11086;2,38754
2769,05971;2,38738
2767,00855;2,38219
2764,9574;2,37676
2762,90624;2,37372
2760,85509;2,37051
2758,80393;2,36784
2756,75277;2,36855
2754,70162;2,36929
2752,65046;2,36642
2750,59931;2,36363
2748,54815;2,36302
2746,497;2,36244
2744,44584;2,36183
2742,39469;2,36201
2740,34353;2,36139
2738,29238;2,35811
2736,24122;2,35312
2734,19007;2,34819
2732,13891;2,34547
2730,08776;2,34715
2728,0366;2,35044
2725,98544;2,34906
2723,93429;2,34282
2721,88313;2,34005
2719,83198;2,34426
2717,78082;2,34766
2715,72967;2,34344
2713,67851;2,33536
2711,62736;2,33115
2709,5762;2,33067
2707,52505;2,33037
2705,47389;2,32968
2703,42274;2,32876
2701,37158;2,3289
2699,32043;2,32854
2697,26927;2,32768
2695,21811;2,33114
2693,16696;2,33605
2691,1158;2,33438
2689,06465;2,32806
2687,01349;2,32447
2684,96234;2,32294
2682,91118;2,32051
2680,86003;2,31908
2678,80887;2,32082
2676,75772;2,32509
2674,70656;2,32776
2672,65541;2,3264
2670,60425;2,32346
2668,55309;2,32112
2666,50194;2,32051
2664,45078;2,32253
2662,39963;2,32339
2660,34847;2,32118
2658,29732;2,32116
2656,24616;2,32292
2654,19501;2,32077
2652,14385;2,31604
2650,0927;2,31348
2648,04154;2,31466
2645,99039;2,31873
2643,93923;2,32287
2641,88808;2,3255
2639,83692;2,32843
2637,78576;2,33406
2635,73461;2,34066
2633,68345;2,34572
2631,6323;2,35107
2629,58114;2,35753
2627,52999;2,36385
2625,47883;2,37032
2623,42768;2,37797
2621,37652;2,38525
2619,32537;2,3889
2617,27421;2,38917
2615,22306;2,38967
2613,1719;2,39343
2611,12075;2,39989
2609,06959;2,40603
2607,01843;2,41016
2604,96728;2,41317
2602,91612;2,41387
2600,86497;2,413
2598,81381;2,41432
2596,76266;2,4148
2594,7115;2,41113
2592,66035;2,408
2590,60919;2,4093
2588,55804;2,41215
2586,50688;2,41334
2584,45573;2,4134
2582,40457;2,41334
2580,35342;2,4137
2578,30226;2,41357
2576,2511;2,41136
2574,19995;2,40829
2572,14879;2,41001
2570,09764;2,41672
2568,04648;2,41756
2565,99533;2,40955
2563,94417;2,40318
2561,89302;2,40385
2559,84186;2,4064
2557,79071;2,40973
2555,73955;2,41725
2553,6884;2,42343
2551,63724;2,42408
2549,58609;2,42224
2547,53493;2,42127
2545,48377;2,4227
2543,43262;2,4264
2541,38146;2,43442
2539,33031;2,44428
2537,27915;2,44952
2535,228;2,45142
2533,17684;2,45502
2531,12569;2,46074
2529,07453;2,46547
2527,02338;2,4693
2524,97222;2,47457
2522,92107;2,4807
2520,86991;2,48479
2518,81876;2,48563
2516,7676;2,48695
2514,71644;2,492
2512,66529;2,49545
2510,61413;2,49263
2508,56298;2,49065
2506,51182;2,49202
2504,46067;2,48901
2502,40951;2,4804
2500,35836;2,47217
2498,3072;2,46465
2496,25605;2,45332
2494,20489;2,44011
2492,15374;2,42895
2490,10258;2,42001
2488,05143;2,41221
2486,00027;2,40432
2483,94911;2,39563
2481,89796;2,38488
2479,8468;2,37324
2477,79565;2,36456
2475,74449;2,35758
2473,69334;2,34698
2471,64218;2,33482
2469,59103;2,32571
2467,53987;2,31912
2465,48872;2,31332
2463,43756;2,30641
2461,38641;2,29773
2459,33525;2,2889
2457,2841;2,28166
2455,23294;2,2756
2453,18178;2,2695
2451,13063;2,26488
2449,07947;2,26284
2447,02832;2,26191
2444,97716;2,26162
2442,92601;2,26029
2440,87485;2,25501
2438,8237;2,24737
2436,77254;2,24134
2434,72139;2,23638
2432,67023;2,22999
2430,61908;2,22435
2428,56792;2,22269
2426,51677;2,22257
2424,46561;2,2204
2422,41445;2,21894
2420,3633;2,21941
2418,31214;2,21839
2416,26099;2,21554
2414,20983;2,21182
2412,15868;2,20855
2410,10752;2,20699
2408,05637;2,20611
2406,00521;2,20504
2403,95406;2,20396
2401,9029;2,20274
2399,85175;2,20191
2397,80059;2,20142
2395,74944;2,20035
2393,69828;2,19831
2391,64712;2,19563
2389,59597;2,1935
2387,54481;2,19313
2385,49366;2,1942
2383,4425;2,19594
2381,39135;2,19774
2379,34019;2,19847
2377,28904;2,19715
2375,23788;2,19463
2373,18673;2,19447
2371,13557;2,19855
2369,08442;2,20195
2367,03326;2,19982
2364,9821;2,19613
2362,93095;2,19626
2360,87979;2,19732
2358,82864;2,1944
2356,77748;2,19048
2354,72633;2,19133
2352,67517;2,19518
2350,62402;2,19679
2348,57286;2,19661
2346,52171;2,19722
2344,47055;2,19821
2342,4194;2,197
2340,36824;2,19204
2338,31709;2,18658
2336,26593;2,18491
2334,21477;2,18467
2332,16362;2,18303
2330,11246;2,18527
2328,06131;2,19338
2326,01015;2,19877
2323,959;2,19864
2321,90784;2,1992
2319,85669;2,20136
2317,80553;2,20153
2315,75438;2,20023
2313,70322;2,19988
2311,65207;2,20053
2309,60091;2,20074
2307,54976;2,19913
2305,4986;2,19617
2303,44744;2,19378
2301,39629;2,19268
2299,34513;2,1925
2297,29398;2,19223
2295,24282;2,19042
2293,19167;2,18817
2291,14051;2,1879
2289,08936;2,18943
2287,0382;2,19098
2284,98705;2,19155
2282,93589;2,19156
2280,88474;2,19124
2278,83358;2,18985
2276,78243;2,18757
2274,73127;2,18611
2272,68011;2,18676
2270,62896;2,18931
2268,5778;2,19245
2266,52665;2,1947
2264,47549;2,1959
2262,42434;2,19649
2260,37318;2,19653
2258,32203;2,19626
2256,27087;2,19665
2254,21972;2,19866
2252,16856;2,20025
2250,11741;2,19897
2248,06625;2,19746
2246,0151;2,19932
2243,96394;2,20387
2241,91278;2,20749
2239,86163;2,20907
2237,81047;2,21056
2235,75932;2,21335
2233,70816;2,21517
2231,65701;2,21562
2229,60585;2,21601
2227,5547;2,21598
2225,50354;2,21693
2223,45239;2,22054
2221,40123;2,22467
2219,35008;2,226
2217,29892;2,22503
2215,24777;2,22456
2213,19661;2,22591
2211,14545;2,22784
2209,0943;2,22808
2207,04314;2,22777
2204,99199;2,22922
2202,94083;2,23079
2200,88968;2,23028
2198,83852;2,22995
2196,78737;2,23203
2194,73621;2,23476
2192,68506;2,23706
2190,6339;2,23929
2188,58275;2,24111
2186,53159;2,24185
2184,48044;2,24183
2182,42928;2,24222
2180,37812;2,24296
2178,32697;2,2432
2176,27581;2,24302
2174,22466;2,2445
2172,1735;2,24863
2170,12235;2,25351
2168,07119;2,25771
2166,02004;2,26174
2163,96888;2,26603
2161,91773;2,27011
2159,86657;2,27453
2157,81542;2,28
2155,76426;2,28661
2153,71311;2,29362
2151,66195;2,29913
2149,61079;2,30171
2147,55964;2,30341
2145,50848;2,3072
2143,45733;2,31055
2141,40617;2,31126
2139,35502;2,31118
2137,30386;2,31071
2135,25271;2,30828
2133,20155;2,30522
2131,1504;2,30427
2129,09924;2,30218
2127,04809;2,29684
2124,99693;2,29096
2122,94578;2,28383
2120,89462;2,2764
2118,84346;2,27162
2116,79231;2,26834
2114,74115;2,26498
2112,69;2,26219
2110,63884;2,26104
2108,58769;2,26062
2106,53653;2,25912
2104,48538;2,25665
2102,43422;2,25418
2100,38307;2,25367
2098,33191;2,25472
2096,28076;2,25419
2094,2296;2,25275
2092,17844;2,25393
2090,12729;2,25726
2088,07613;2,25903
2086,02498;2,2595
2083,97382;2,26022
2081,92267;2,26063
2079,87151;2,26199
2077,82036;2,26298
2075,7692;2,26103
2073,71805;2,26033
2071,66689;2,26315
2069,61574;2,26443
2067,56458;2,26375
2065,51343;2,26583
2063,46227;2,26899
2061,41111;2,2692
2059,35996;2,26842
2057,3088;2,26961
2055,25765;2,27324
2053,20649;2,27704
2051,15534;2,2782
2049,10418;2,27757
2047,05303;2,2777
2045,00187;2,28008
2042,95072;2,28311
2040,89956;2,28396
2038,84841;2,28317
2036,79725;2,2834
2034,7461;2,28625
2032,69494;2,28974
2030,64378;2,2915
2028,59263;2,29167
2026,54147;2,29162
2024,49032;2,29235
2022,43916;2,29405
2020,38801;2,29609
2018,33685;2,2973
2016,2857;2,29849
2014,23454;2,30009
2012,18339;2,30001
2010,13223;2,29909
2008,08108;2,30022
2006,02992;2,30332
2003,97877;2,30596
2001,92761;2,30722
1999,87645;2,3078
1997,8253;2,30743
1995,77414;2,30703
1993,72299;2,30959
1991,67183;2,31497
1989,62068;2,3191
1987,56952;2,31991
1985,51837;2,31972
1983,46721;2,32081
1981,41606;2,32227
1979,3649;2,32207
1977,31375;2,31976
1975,26259;2,31841
1973,21144;2,32124
1971,16028;2,32641
1969,10912;2,33034
1967,05797;2,33407
1965,00681;2,34143
1962,95566;2,35016
1960,9045;2,35398
1958,85335;2,35113
1956,80219;2,34458
1954,75104;2,33794
1952,69988;2,33445
1950,64873;2,33678
1948,59757;2,34295
1946,54642;2,34721
1944,49526;2,34747
1942,44411;2,34667
1940,39295;2,34738
1938,34179;2,34881
1936,29064;2,35052
1934,23948;2,35111
1932,18833;2,34962
1930,13717;2,35055
1928,08602;2,35466
1926,03486;2,35815
1923,98371;2,36194
1921,93255;2,36558
1919,8814;2,3659
1917,83024;2,36548
1915,77909;2,36842
1913,72793;2,37147
1911,67678;2,37083
1909,62562;2,36914
1907,57446;2,37086
1905,52331;2,37657
1903,47215;2,38162
1901,421;2,38262
1899,36984;2,38347
1897,31869;2,38783
1895,26753;2,39336
1893,21638;2,39731
1891,16522;2,39971
1889,11407;2,402
1887,06291;2,40503
1885,01176;2,40783
1882,9606;2,41082
1880,90945;2,41405
1878,85829;2,41695
1876,80713;2,42195
1874,75598;2,42871
1872,70482;2,43237
1870,65367;2,4332
1868,60251;2,436
1866,55136;2,4402
1864,5002;2,44234
1862,44905;2,44215
1860,39789;2,44117
1858,34674;2,44084
1856,29558;2,44268
1854,24443;2,44696
1852,19327;2,45281
1850,14212;2,45948
1848,09096;2,46447
1846,0398;2,46609
1843,98865;2,46674
1841,93749;2,46968
1839,88634;2,47582
1837,83518;2,48315
1835,78403;2,48779
1833,73287;2,48959
1831,68172;2,49263
1829,63056;2,49773
1827,57941;2,50239
1825,52825;2,50605
1823,4771;2,50935
1821,42594;2,51445
1819,37478;2,52444
1817,32363;2,53603
1815,27247;2,54425
1813,22132;2,55345
1811,17016;2,56787
1809,11901;2,58193
1807,06785;2,59089
1805,0167;2,59864
1802,96554;2,60989
1800,91439;2,62312
1798,86323;2,63455
1796,81208;2,64353
1794,76092;2,64972
1792,70977;2,64984
1790,65861;2,64234
1788,60745;2,63365
1786,5563;2,62563
1784,50514;2,61567
1782,45399;2,60678
1780,40283;2,60452
1778,35168;2,60816
1776,30052;2,61082
1774,24937;2,61006
1772,19821;2,61232
1770,14706;2,62194
1768,0959;2,63266
1766,04475;2,64003
1763,99359;2,64893
1761,94244;2,66605
1759,89128;2,68845
1757,84012;2,70596
1755,78897;2,71684
1753,73781;2,7273
1751,68666;2,74238
1749,6355;2,75634
1747,58435;2,7546
1745,53319;2,73618
1743,48204;2,71153
1741,43088;2,68696
1739,37973;2,66631
1737,32857;2,65488
1735,27742;2,65095
1733,22626;2,65068
1731,17511;2,65115
1729,12395;2,64758
1727,07279;2,64106
1725,02164;2,63719
1722,97048;2,63636
1720,91933;2,63564
1718,86817;2,63554
1716,81702;2,63687
1714,76586;2,63689
1712,71471;2,63813
1710,66355;2,64405
1708,6124;2,65269
1706,56124;2,66113
1704,51009;2,66679
1702,45893;2,6678
1700,40778;2,67089
1698,35662;2,67918
1696,30546;2,68381
1694,25431;2,68593
1692,20315;2,69042
1690,152;2,69536
1688,10084;2,69802
1686,04969;2,69913
1683,99853;2,70064
1681,94738;2,69688
1679,89622;2,68699
1677,84507;2,67851
1675,79391;2,67642
1673,74276;2,67921
1671,6916;2,67993
1669,64045;2,6773
1667,58929;2,67574
1665,53813;2,67224
1663,48698;2,66792
1661,43582;2,66889
1659,38467;2,6705
1657,33351;2,66853
1655,28236;2,661
1653,2312;2,6405
1651,18005;2,61973
1649,12889;2,6167
1647,07774;2,62031
1645,02658;2,62271
1642,97543;2,62443
1640,92427;2,62322
1638,87312;2,61866
1636,82196;2,61349
1634,7708;2,60896
1632,71965;2,60277
1630,66849;2,59295
1628,61734;2,58215
1626,56618;2,57493
1624,51503;2,5698
1622,46387;2,56346
1620,41272;2,55886
1618,36156;2,55776
1616,31041;2,55815
1614,25925;2,55994
1612,2081;2,56425
1610,15694;2,56902
1608,10579;2,56926
1606,05463;2,56374
1604,00347;2,55863
1601,95232;2,55951
1599,90116;2,56497
1597,85001;2,57019
1595,79885;2,57289
1593,7477;2,57335
1591,69654;2,57356
1589,64539;2,575
1587,59423;2,57651
1585,54308;2,57752
1583,49192;2,57887
1581,44077;2,58045
1579,38961;2,58131
1577,33846;2,58238
1575,2873;2,58421
1573,23614;2,58345
1571,18499;2,57951
1569,13383;2,5785
1567,08268;2,58209
1565,03152;2,5821
1562,98037;2,57782
1560,92921;2,57612
1558,87806;2,57507
1556,8269;2,56667
1554,77575;2,56023
1552,72459;2,55641
1550,67344;2,54779
1548,62228;2,53542
1546,57113;2,52909
1544,51997;2,53197
1542,46881;2,53343
1540,41766;2,52303
1538,3665;2,51392
1536,31535;2,51559
1534,26419;2,51636
1532,21304;2,51025
1530,16188;2,50084
1528,11073;2,49277
1526,05957;2,49002
1524,00842;2,49266
1521,95726;2,49544
1519,90611;2,49531
1517,85495;2,49285
1515,80379;2,48791
1513,75264;2,4806
1511,70148;2,47425
1509,65033;2,47128
1507,59917;2,46375
1505,54802;2,44727
1503,49686;2,43677
1501,44571;2,4336
1499,39455;2,43305
1497,3434;2,4332
1495,29224;2,43223
1493,24109;2,43141
1491,18993;2,43179
1489,13878;2,43287
1487,08762;2,43296
1485,03646;2,4338
1482,98531;2,43701
1480,93415;2,44189
1478,883;2,44873
1476,83184;2,45793
1474,78069;2,47167
1472,72953;2,49454
1470,67838;2,5213
1468,62722;2,53954
1466,57607;2,54496
1464,52491;2,54083
1462,47376;2,53518
1460,4226;2,53489
1458,37145;2,53933
1456,32029;2,5388
1454,26913;2,52855
1452,21798;2,51758
1450,16682;2,51268
1448,11567;2,51072
1446,06451;2,50469
1444,01336;2,49697
1441,9622;2,49236
1439,91105;2,48973
1437,85989;2,48563
1435,80874;2,4811
1433,75758;2,47974
1431,70643;2,47805
1429,65527;2,47322
1427,60412;2,47037
1425,55296;2,47069
1423,5018;2,46824
1421,45065;2,46166
1419,39949;2,45639
1417,34834;2,45478
1415,29718;2,45257
1413,24603;2,44788
1411,19487;2,44374
1409,14372;2,44212
1407,09256;2,44351
1405,04141;2,44947
1402,99025;2,45761
1400,9391;2,46469
1398,88794;2,47185
1396,83679;2,47907
1394,78563;2,48574
1392,73447;2,49264
1390,68332;2,50057
1388,63216;2,51015
1386,58101;2,52045
1384,52985;2,52902
1382,4787;2,53312
1380,42754;2,53272
1378,37639;2,53252
1376,32523;2,53583
1374,27408;2,53976
1372,22292;2,54112
1370,17177;2,54074
1368,12061;2,5404
1366,06946;2,54062
1364,0183;2,54002
1361,96714;2,53766
1359,91599;2,53617
1357,86483;2,53789
1355,81368;2,54025
1353,76252;2,53953
1351,71137;2,53701
1349,66021;2,53803
1347,60906;2,5435
1345,5579;2,54699
1343,50675;2,54518
1341,45559;2,54256
1339,40444;2,54276
1337,35328;2,54478
1335,30213;2,54654
1333,25097;2,54685
1331,19981;2,54722
1329,14866;2,54962
1327,0975;2,55348
1325,04635;2,55735
1322,99519;2,5612
1320,94404;2,56552
1318,89288;2,56863
1316,84173;2,56736
1314,79057;2,56113
1312,73942;2,55447
1310,68826;2,55553
1308,63711;2,56408
1306,58595;2,56999
1304,5348;2,56867
1302,48364;2,56462
1300,43248;2,56223
1298,38133;2,56214
1296,33017;2,56288
1294,27902;2,56622
1292,22786;2,57201
1290,17671;2,5732
1288,12555;2,56861
1286,0744;2,56577
1284,02324;2,56902
1281,97209;2,57549
1279,92093;2,58087
1277,86978;2,58521
1275,81862;2,59017
1273,76747;2,59166
1271,71631;2,58515
1269,66515;2,57954
1267,614;2,58341
1265,56284;2,58914
1263,51169;2,58872
1261,46053;2,58741
1259,40938;2,59063
1257,35822;2,59277
1255,30707;2,59149
1253,25591;2,59057
1251,20476;2,58971
1249,1536;2,58939
1247,10245;2,58984
1245,05129;2,58936
1243,00013;2,58698
1240,94898;2,58093
1238,89782;2,57511
1236,84667;2,57162
1234,79551;2,56556
1232,74436;2,55599
1230,6932;2,5441
1228,64205;2,53435
1226,59089;2,53097
1224,53974;2,52842
1222,48858;2,52359
1220,43743;2,51997
1218,38627;2,51703
1216,33512;2,51529
1214,28396;2,51608
1212,2328;2,5175
1210,18165;2,51918
1208,13049;2,52181
1206,07934;2,52488
1204,02818;2,52716
1201,97703;2,52997
1199,92587;2,53233
1197,87472;2,52936
1195,82356;2,52453
1193,77241;2,5267
1191,72125;2,53726
1189,6701;2,55092
1187,61894;2,55982
1185,56779;2,56086
1183,51663;2,55669
1181,46547;2,5539
1179,41432;2,55958
1177,36316;2,5724
1175,31201;2,58432
1173,26085;2,58863
1171,2097;2,58603
1169,15854;2,58075
1167,10739;2,57786
1165,05623;2,58369
1163,00508;2,5935
1160,95392;2,59688
1158,90277;2,59502
1156,85161;2,5934
1154,80046;2,5871
1152,7493;2,57655
1150,69814;2,57132
1148,64699;2,57286
1146,59583;2,576
1144,54468;2,57473
1142,49352;2,56516
1140,44237;2,55364
1138,39121;2,55111
1136,34006;2,55436
1134,2889;2,55377
1132,23775;2,5508
1130,18659;2,55102
1128,13544;2,55386
1126,08428;2,55865
1124,03313;2,56608
1121,98197;2,5683
1119,93081;2,55909
1117,87966;2,54665
1115,8285;2,53745
1113,77735;2,52381
1111,72619;2,50877
1109,67504;2,5069
1107,62388;2,51261
1105,57273;2,51398
1103,52157;2,51069
1101,47042;2,50245
1099,41926;2,49068
1097,36811;2,48063
1095,31695;2,47354
1093,2658;2,4652
1091,21464;2,45459
1089,16348;2,44452
1087,11233;2,43596
1085,06117;2,42706
1083,01002;2,41788
1080,95886;2,4121
1078,90771;2,40921
1076,85655;2,40554
1074,8054;2,4005
1072,75424;2,39414
1070,70309;2,3885
1068,65193;2,38828
1066,60078;2,39165
1064,54962;2,39281
1062,49847;2,39689
1060,44731;2,4073
1058,39615;2,41173
1056,345;2,40706
1054,29384;2,40308
1052,24269;2,40115
1050,19153;2,39996
1048,14038;2,39947
1046,08922;2,39504
1044,03807;2,38572
1041,98691;2,37422
1039,93576;2,35979
1037,8846;2,34434
1035,83345;2,32769
1033,78229;2,30562
1031,73114;2,28332
1029,67998;2,27151
1027,62882;2,27404
1025,57767;2,28763
1023,52651;2,30696
1021,47536;2,32577
1019,4242;2,33801
1017,37305;2,34314
1015,32189;2,34603
1013,27074;2,34439
1011,21958;2,33064
1009,16843;2,30581
1007,11727;2,27926
1005,06612;2,26232
1003,01496;2,25893
1000,96381;2,26388
998,91265;2,27101
996,86149;2,27978
994,81034;2,29342
992,75918;2,30867
990,70803;2,32149
988,65687;2,33312
986,60572;2,34241
984,55456;2,3498
982,50341;2,35736
980,45225;2,36432
978,4011;2,37146
976,34994;2,38019
974,29879;2,3891
972,24763;2,39822
970,19647;2,40817
968,14532;2,41612
966,09416;2,42076
964,04301;2,4277
961,99185;2,43874
959,9407;2,44501
957,88954;2,44854
955,83839;2,45955
953,78723;2,47098
951,73608;2,47713
949,68492;2,48448
947,63377;2,49168
945,58261;2,49221
943,53146;2,48672
941,4803;2,48076
939,42914;2,47491
937,37799;2,46744
935,32683;2,45976
933,27568;2,45927
931,22452;2,4691
929,17337;2,47933
927,12221;2,47927
925,07106;2,4677
923,0199;2,45193
920,96875;2,43841
918,91759;2,42583
916,86644;2,41259
914,81528;2,39951
912,76413;2,38339
910,71297;2,36625
908,66181;2,35746
906,61066;2,35833
904,5595;2,3636
902,50835;2,37109
900,45719;2,37709
898,40604;2,37628
896,35488;2,37114
894,30373;2,36841
892,25257;2,37357
890,20142;2,38337
888,15026;2,38619
886,09911;2,38441
884,04795;2,38936
881,9968;2,39902
879,94564;2,40541
877,89448;2,40634
875,84333;2,4035
873,79217;2,40113
871,74102;2,40837
869,68986;2,42746
867,63871;2,44289
865,58755;2,44943
863,5364;2,45494
861,48524;2,4552
859,43409;2,45508
857,38293;2,46056
855,33178;2,46485
853,28062;2,47175
851,22947;2,48769
849,17831;2,50213
847,12715;2,50135
845,076;2,49371
843,02484;2,49336
840,97369;2,50106
838,92253;2,51395
836,87138;2,52347
834,82022;2,52334
832,76907;2,51798
830,71791;2,51369
828,66676;2,51312
826,6156;2,51611
824,56445;2,52478
822,51329;2,53251
820,46214;2,53089
818,41098;2,53086
816,35982;2,54457
814,30867;2,56424
812,25751;2,57425
810,20636;2,5684
808,1552;2,55461
806,10405;2,54352
804,05289;2,53882
802,00174;2,53476
799,95058;2,51621
797,89943;2,48553
795,84827;2,46077
793,79712;2,45397
791,74596;2,45781
789,69481;2,45532
787,64365;2,45243
785,59249;2,45317
783,54134;2,4494
781,49018;2,44537
779,43903;2,44686
777,38787;2,4496
775,33672;2,44857
773,28556;2,44814
771,23441;2,45259
769,18325;2,45988
767,1321;2,46629
765,08094;2,47225
763,02979;2,4847
760,97863;2,50156
758,92748;2,51133
756,87632;2,50867
754,82516;2,50047
752,77401;2,5007
750,72285;2,50787
748,6717;2,5059
746,62054;2,49649
744,56939;2,49427
742,51823;2,50545
740,46708;2,52661
738,41592;2,54634
736,36477;2,55099
734,31361;2,54219
732,26246;2,53704
730,2113;2,54221
728,16015;2,54859
726,10899;2,55199
724,05783;2,55559
722,00668;2,56207
719,95552;2,566
717,90437;2,55695
715,85321;2,54332
713,80206;2,54098
711,7509;2,55046
709,69975;2,5675
707,64859;2,58925
705,59744;2,60137
703,54628;2,59595
701,49513;2,5886
699,44397;2,58322
697,39281;2,568
695,34166;2,54816
693,2905;2,53928
691,23935;2,54956
689,18819;2,56618
687,13704;2,56494
685,08588;2,55403
683,03473;2,55928
680,98357;2,57531
678,93242;2,58178
676,88126;2,5789
674,83011;2,57254
672,77895;2,56393
670,7278;2,56433
668,67664;2,5815
666,62548;2,59834
664,57433;2,59854
662,52317;2,58927
660,47202;2,58641
658,42086;2,59661
656,36971;2,61034
654,31855;2,61502
652,2674;2,61158
650,21624;2,61405
648,16509;2,62109
646,11393;2,6151
644,06278;2,60488
642,01162;2,60996
639,96047;2,61857
637,90931;2,60984
635,85815;2,59376
633,807;2,59142
631,75584;2,60481
629,70469;2,62186
627,65353;2,63247
625,60238;2,64309
623,55122;2,65901
621,50007;2,6568
619,44891;2,63097
617,39776;2,62136
615,3466;2,6297
613,29545;2,63486
611,24429;2,64192
609,19314;2,65025
607,14198;2,64099
605,09082;2,61512
603,03967;2,59525
600,98851;2,59374
598,93736;2,59801
596,8862;2,58883
594,83505;2,57168
592,78389;2,56842
590,73274;2,58784
588,68158;2,61299
586,63043;2,62369
584,57927;2,61031
582,52812;2,58699
580,47696;2,57851
578,42581;2,58142
576,37465;2,60392
574,32349;2,6312
572,27234;2,60343
570,22118;2,54621
568,17003;2,52047
566,11887;2,52012
564,06772;2,51204
562,01656;2,50304
559,96541;2,49806
557,91425;2,48113
555,8631;2,44857
553,81194;2,40915
551,76079;2,3729
549,70963;2,34019
547,65848;2,30628
545,60732;2,26686
543,55616;2,22493
541,50501;2,19637
539,45385;2,18664
537,4027;2,18204
535,35154;2,17721
533,30039;2,17638
531,24923;2,1838
529,19808;2,20206
527,14692;2,2285
525,09577;2,25206
523,04461;2,26299
520,99346;2,26766
518,9423;2,27343
516,89115;2,28436
514,83999;2,30361
512,78883;2,3212
510,73768;2,32667
508,68652;2,32442
506,63537;2,32395
504,58421;2,32625
502,53306;2,32459
500,4819;2,32874
498,43075;2,3519
496,37959;2,37195
494,32844;2,36464
492,27728;2,34988
490,22613;2,34248
488,17497;2,32242
486,12382;2,29206
484,07266;2,26504
482,0215;2,23673
479,97035;2,19643
477,91919;2,14464
475,86804;2,1006
473,81688;2,07633
471,76573;2,06369
469,71457;2,04946
467,66342;2,03667
465,61226;2,04006
463,56111;2,05593
461,50995;2,06345
459,4588;2,05717
457,40764;2,05593
455,35649;2,07401
453,30533;2,09768
451,25417;2,11025
449,20302;2,11688
447,15186;2,13
445,10071;2,14161
443,04955;2,14389
440,9984;2,15168
438,94724;2,16621
436,89609;2,17408
434,84493;2,17579
432,79378;2,17571
430,74262;2,16647
428,69147;2,14164
426,64031;2,1162
424,58916;2,11881
422,538;2,1412
420,48684;2,13539
418,43569;2,10571
416,38453;2,09549
414,33338;2,09759
412,28222;2,09913
410,23107;2,09477
408,17991;2,08176
406,12876;2,07046
404,0776;2,07375
402,02645;2,08633
399,97529;2,09635
