3997,70175;1,89157
3995,6506;1,8916
3993,59944;1,89242
3991,54829;1,89486
3989,49713;1,89707
3987,44598;1,89664
3985,39482;1,89581
3983,34367;1,89748
3981,29251;1,90004
3979,24136;1,9012
3977,1902;1,9019
3975,13905;1,90354
3973,08789;1,90455
3971,03673;1,90364
3968,98558;1,90247
3966,93442;1,90295
3964,88327;1,90565
3962,83211;1,90972
3960,78096;1,91375
3958,7298;1,91783
3956,67865;1,92099
3954,62749;1,92164
3952,57634;1,92209
3950,52518;1,92437
3948,47403;1,92644
3946,42287;1,92805
3944,37172;1,93038
3942,32056;1,93145
3940,2694;1,92881
3938,21825;1,9233
3936,16709;1,91916
3934,11594;1,91992
3932,06478;1,92307
3930,01363;1,92197
3927,96247;1,91724
3925,91132;1,91426
3923,86016;1,91139
3921,80901;1,90546
3919,75785;1,89873
3917,7067;1,89347
3915,65554;1,88896
3913,60439;1,88393
3911,55323;1,87861
3909,50207;1,87432
3907,45092;1,87274
3905,39976;1,8754
3903,34861;1,88096
3901,29745;1,88457
3899,2463;1,88181
3897,19514;1,87346
3895,14399;1,86675
3893,09283;1,86559
3891,04168;1,86568
3888,99052;1,86412
3886,93937;1,86356
3884,88821;1,86583
3882,83706;1,86972
3880,7859;1,87119
3878,73474;1,86749
3876,68359;1,86287
3874,63243;1,86247
3872,58128;1,8672
3870,53012;1,87376
3868,47897;1,87796
3866,42781;1,87916
3864,37666;1,87829
3862,3255;1,87375
3860,27435;1,86529
3858,22319;1,85466
3856,17204;1,84724
3854,12088;1,8543
3852,06973;1,86955
3850,01857;1,87283
3847,96741;1,86645
3845,91626;1,86158
3843,8651;1,86218
3841,81395;1,86667
3839,76279;1,87126
3837,71164;1,87271
3835,66048;1,87158
3833,60933;1,86951
3831,55817;1,86704
3829,50702;1,86614
3827,45586;1,86654
3825,40471;1,8666
3823,35355;1,8692
3821,3024;1,87564
3819,25124;1,87875
3817,20008;1,87645
3815,14893;1,87297
3813,09777;1,8686
3811,04662;1,86361
3808,99546;1,8627
3806,94431;1,86821
3804,89315;1,87654
3802,842;1,88368
3800,79084;1,88901
3798,73969;1,89273
3796,68853;1,89304
3794,63738;1,88931
3792,58622;1,88517
3790,53506;1,88414
3788,48391;1,88665
3786,43275;1,89067
3784,3816;1,89336
3782,33044;1,89519
3780,27929;1,89933
3778,22813;1,90449
3776,17698;1,90643
3774,12582;1,90595
3772,07467;1,90758
3770,02351;1,91363
3767,97236;1,92147
3765,9212;1,92613
3763,87005;1,92761
3761,81889;1,93125
3759,76773;1,93943
3757,71658;1,94667
3755,66542;1,94891
3753,61427;1,95295
3751,56311;1,96584
3749,51196;1,97758
3747,4608;1,97928
3745,40965;1,98183
3743,35849;1,99461
3741,30734;2,00801
3739,25618;2,01719
3737,20503;2,03246
3735,15387;2,05286
3733,10272;2,06255
3731,05156;2,06449
3729,0004;2,07174
3726,94925;2,08663
3724,89809;2,10654
3722,84694;2,12845
3720,79578;2,15003
3718,74463;2,17117
3716,69347;2,19466
3714,64232;2,2247
3712,59116;2,26677
3710,54001;2,31878
3708,48885;2,36943
3706,4377;2,4185
3704,38654;2,47479
3702,33539;2,53983
3700,28423;2,60041
3698,23307;2,64023
3696,18192;2,65412
3694,13076;2,64905
3692,07961;2,63401
3690,02845;2,60994
3687,9773;2,57942
3685,92614;2,55617
3683,87499;2,54109
3681,82383;2,53037
3679,77268;2,53243
3677,72152;2,55347
3675,67037;2,58523
3673,61921;2,61777
3671,56806;2,65372
3669,5169;2,68024
3667,46574;2,67549
3665,41459;2,65345
3663,36343;2,63735
3661,31228;2,63625
3659,26112;2,65211
3657,20997;2,67893
3655,15881;2,69995
3653,10766;2,70996
3651,0565;2,72867
3649,00535;2,75839
3646,95419;2,75679
3644,90304;2,71817
3642,85188;2,679
3640,80073;2,65528
3638,74957;2,64092
3636,69841;2,63467
3634,64726;2,63655
3632,5961;2,64175
3630,54495;2,6567
3628,49379;2,69162
3626,44264;2,73322
3624,39148;2,76324
3622,34033;2,77797
3620,28917;2,77937
3618,23802;2,76519
3616,18686;2,73552
3614,13571;2,70613
3612,08455;2,69059
3610,0334;2,68805
3607,98224;2,68843
3605,93108;2,68302
3603,87993;2,67784
3601,82877;2,67869
3599,77762;2,67791
3597,72646;2,6748
3595,67531;2,67806
3593,62415;2,68355
3591,573;2,6847
3589,52184;2,69439
3587,47069;2,71787
3585,41953;2,73054
3583,36838;2,72461
3581,31722;2,72294
3579,26607;2,73604
3577,21491;2,74762
3575,16375;2,74428
3573,1126;2,73501
3571,06144;2,73049
3569,01029;2,73069
3566,95913;2,73483
3564,90798;2,74628
3562,85682;2,76324
3560,80567;2,77686
3558,75451;2,77986
3556,70336;2,77484
3554,6522;2,77145
3552,60105;2,77646
3550,54989;2,78482
3548,49874;2,79002
3546,44758;2,79713
3544,39642;2,80565
3542,34527;2,80186
3540,29411;2,79023
3538,24296;2,79021
3536,1918;2,79591
3534,14065;2,7935
3532,08949;2,79672
3530,03834;2,81689
3527,98718;2,83776
3525,93603;2,84231
3523,88487;2,83215
3521,83372;2,82439
3519,78256;2,82722
3517,73141;2,82695
3515,68025;2,82003
3513,62909;2,82172
3511,57794;2,83552
3509,52678;2,84459
3507,47563;2,83739
3505,42447;2,83227
3503,37332;2,84166
3501,32216;2,84524
3499,27101;2,83399
3497,21985;2,82516
3495,1687;2,82994
3493,11754;2,84182
3491,06639;2,8496
3489,01523;2,85235
3486,96407;2,85701
3484,91292;2,86408
3482,86176;2,86505
3480,81061;2,85757
3478,75945;2,85299
3476,7083;2,85759
3474,65714;2,86091
3472,60599;2,85538
3470,55483;2,85194
3468,50368;2,85487
3466,45252;2,8556
3464,40137;2,85849
3462,35021;2,86901
3460,29906;2,88143
3458,2479;2,88411
3456,19674;2,8702
3454,14559;2,85661
3452,09443;2,86318
3450,04328;2,8777
3447,99212;2,88289
3445,94097;2,88414
3443,88981;2,88507
3441,83866;2,88277
3439,7875;2,88312
3437,73635;2,88084
3435,68519;2,87107
3433,63404;2,85934
3431,58288;2,85716
3429,53173;2,87483
3427,48057;2,88757
3425,42941;2,87492
3423,37826;2,8633
3421,3271;2,8712
3419,27595;2,88135
3417,22479;2,88332
3415,17364;2,8832
3413,12248;2,87619
3411,07133;2,86733
3409,02017;2,8784
3406,96902;2,90176
3404,91786;2,90746
3402,86671;2,90131
3400,81555;2,90251
3398,7644;2,89733
3396,71324;2,88424
3394,66208;2,87482
3392,61093;2,86465
3390,55977;2,861
3388,50862;2,86973
3386,45746;2,87407
3384,40631;2,87452
3382,35515;2,87868
3380,304;2,87504
3378,25284;2,86081
3376,20169;2,8525
3374,15053;2,85782
3372,09938;2,87418
3370,04822;2,89881
3367,99707;2,91484
3365,94591;2,90849
3363,89475;2,90144
3361,8436;2,91287
3359,79244;2,92096
3357,74129;2,90698
3355,69013;2,88881
3353,63898;2,88111
3351,58782;2,87793
3349,53667;2,87585
3347,48551;2,87838
3345,43436;2,88465
3343,3832;2,88406
3341,33205;2,87344
3339,28089;2,86458
3337,22974;2,86485
3335,17858;2,87142
3333,12742;2,87796
3331,07627;2,88096
3329,02511;2,87682
3326,97396;2,87134
3324,9228;2,86976
3322,87165;2,86129
3320,82049;2,84823
3318,76934;2,84583
3316,71818;2,84873
3314,66703;2,84369
3312,61587;2,83786
3310,56472;2,84331
3308,51356;2,85489
3306,46241;2,85481
3304,41125;2,83842
3302,36009;2,8241
3300,30894;2,82801
3298,25778;2,84148
3296,20663;2,84972
3294,15547;2,85212
3292,10432;2,85122
3290,05316;2,85128
3288,00201;2,85647
3285,95085;2,86283
3283,8997;2,86483
3281,84854;2,86384
3279,79739;2,85806
3277,74623;2,84998
3275,69508;2,85462
3273,64392;2,87129
3271,59276;2,8776
3269,54161;2,86397
3267,49045;2,84632
3265,4393;2,84166
3263,38814;2,85177
3261,33699;2,86064
3259,28583;2,85418
3257,23468;2,84521
3255,18352;2,84565
3253,13237;2,85081
3251,08121;2,85026
3249,03006;2,8431
3246,9789;2,83834
3244,92775;2,83348
3242,87659;2,82196
3240,82543;2,81248
3238,77428;2,81748
3236,72312;2,83617
3234,67197;2,85247
3232,62081;2,85174
3230,56966;2,83731
3228,5185;2,82943
3226,46735;2,82784
3224,41619;2,81464
3222,36504;2,79911
3220,31388;2,79676
3218,26273;2,80656
3216,21157;2,82187
3214,16041;2,82922
3212,10926;2,82206
3210,0581;2,81236
3208,00695;2,81107
3205,95579;2,81272
3203,90464;2,81279
3201,85348;2,81271
3199,80233;2,80828
3197,75117;2,80491
3195,70002;2,8127
3193,64886;2,81848
3191,59771;2,81554
3189,54655;2,81846
3187,4954;2,82247
3185,44424;2,82039
3183,39308;2,81902
3181,34193;2,80986
3179,29077;2,79626
3177,23962;2,79563
3175,18846;2,80582
3173,13731;2,8177
3171,08615;2,82082
3169,035;2,81336
3166,98384;2,81014
3164,93269;2,81618
3162,88153;2,81843
3160,83038;2,81026
3158,77922;2,80437
3156,72807;2,81246
3154,67691;2,82092
3152,62575;2,81028
3150,5746;2,79524
3148,52344;2,79353
3146,47229;2,79784
3144,42113;2,79788
3142,36998;2,7895
3140,31882;2,7808
3138,26767;2,77598
3136,21651;2,7705
3134,16536;2,77696
3132,1142;2,80052
3130,06305;2,82103
3128,01189;2,82553
3125,96074;2,81528
3123,90958;2,79984
3121,85842;2,79419
3119,80727;2,79857
3117,75611;2,8
3115,70496;2,79031
3113,6538;2,77437
3111,60265;2,76267
3109,55149;2,76378
3107,50034;2,77337
3105,44918;2,77773
3103,39803;2,77449
3101,34687;2,767
3099,29572;2,75631
3097,24456;2,74403
3095,19341;2,73581
3093,14225;2,7404
3091,09109;2,75089
3089,03994;2,75255
3086,98878;2,74953
3084,93763;2,74503
3082,88647;2,73475
3080,83532;2,72579
3078,78416;2,72233
3076,73301;2,72147
3074,68185;2,72465
3072,6307;2,73106
3070,57954;2,73489
3068,52839;2,73352
3066,47723;2,72685
3064,42608;2,71847
3062,37492;2,71206
3060,32376;2,70464
3058,27261;2,69987
3056,22145;2,69887
3054,1703;2,69459
3052,11914;2,69089
3050,06799;2,69556
3048,01683;2,70571
3045,96568;2,71211
3043,91452;2,71168
3041,86337;2,70723
3039,81221;2,70393
3037,76106;2,70295
3035,7099;2,6975
3033,65875;2,68742
3031,60759;2,68144
3029,55643;2,67904
3027,50528;2,67072
3025,45412;2,66066
3023,40297;2,66444
3021,35181;2,67487
3019,30066;2,67516
3017,2495;2,66838
3015,19835;2,66404
3013,14719;2,66509
3011,09604;2,66714
3009,04488;2,66716
3006,99373;2,66845
3004,94257;2,67466
3002,89142;2,68509
3000,84026;2,6901
2998,7891;2,68523
2996,73795;2,68204
2994,68679;2,68867
2992,63564;2,69832
2990,58448;2,70053
2988,53333;2,69329
2986,48217;2,68354
2984,43102;2,67818
2982,37986;2,68134
2980,32871;2,68703
2978,27755;2,68651
2976,2264;2,68264
2974,17524;2,68543
2972,12409;2,69157
2970,07293;2,68906
2968,02177;2,68706
2965,97062;2,69006
2963,91946;2,68985
2961,86831;2,68772
2959,81715;2,68747
2957,766;2,68713
2955,71484;2,68001
2953,66369;2,67232
2951,61253;2,67591
2949,56138;2,6841
2947,51022;2,68713
2945,45907;2,68979
2943,40791;2,69083
2941,35675;2,68829
2939,3056;2,69092
2937,25444;2,69568
2935,20329;2,69698
2933,15213;2,69919
2931,10098;2,70416
2929,04982;2,7102
2926,99867;2,71705
2924,94751;2,71879
2922,89636;2,70527
2920,8452;2,68579
2918,79405;2,68413
2916,74289;2,69518
2914,69174;2,69838
2912,64058;2,6962
2910,58942;2,69557
2908,53827;2,69113
2906,48711;2,6846
2904,43596;2,6824
2902,3848;2,68411
2900,33365;2,6832
2898,28249;2,6783
2896,23134;2,6794
2894,18018;2,68822
2892,12903;2,69545
2890,07787;2,69812
2888,02672;2,69335
2885,97556;2,68096
2883,92441;2,67271
2881,87325;2,67508
2879,82209;2,67847
2877,77094;2,67471
2875,71978;2,67281
2873,66863;2,6765
2871,61747;2,67355
2869,56632;2,66297
2867,51516;2,65714
2865,46401;2,65934
2863,41285;2,66232
2861,3617;2,66051
2859,31054;2,65471
2857,25939;2,64637
2855,20823;2,63859
2853,15708;2,63183
2851,10592;2,62437
2849,05476;2,62067
2847,00361;2,62109
2844,95245;2,61925
2842,9013;2,61393
2840,85014;2,60883
2838,79899;2,60381
2836,74783;2,59502
2834,69668;2,58653
2832,64552;2,5864
2830,59437;2,59126
2828,54321;2,59151
2826,49206;2,58376
2824,4409;2,57506
2822,38975;2,5709
2820,33859;2,56793
2818,28743;2,56329
2816,23628;2,55687
2814,18512;2,55034
2812,13397;2,54391
2810,08281;2,53708
2808,03166;2,53474
2805,9805;2,53726
2803,92935;2,5336
2801,87819;2,52316
2799,82704;2,52017
2797,77588;2,52527
2795,72473;2,52854
2793,67357;2,53036
2791,62242;2,53025
2789,57126;2,52613
2787,5201;2,52067
2785,46895;2,51513
2783,41779;2,51057
2781,36664;2,50569
2779,31548;2,4983
2777,26433;2,4932
2775,21317;2,4937
2773,16202;2,49476
2771,11086;2,4934
2769,05971;2,49279
2767,00855;2,49063
2764,9574;2,48315
2762,90624;2,47987
2760,85509;2,48408
2758,80393;2,48583
2756,75277;2,48374
2754,70162;2,47987
2752,65046;2,47486
2750,59931;2,47326
2748,54815;2,47057
2746,497;2,46609
2744,44584;2,46895
2742,39469;2,47443
2740,34353;2,47577
2738,29238;2,47667
2736,24122;2,4751
2734,19007;2,4682
2732,13891;2,45949
2730,08776;2,45346
2728,0366;2,45181
2725,98544;2,45524
2723,93429;2,46062
2721,88313;2,45863
2719,83198;2,4509
2717,78082;2,44789
2715,72967;2,44869
2713,67851;2,44549
2711,62736;2,43896
2709,5762;2,4359
2707,52505;2,43435
2705,47389;2,43057
2703,42274;2,42814
2701,37158;2,43029
2699,32043;2,43447
2697,26927;2,43751
2695,21811;2,4378
2693,16696;2,43334
2691,1158;2,42997
2689,06465;2,43108
2687,01349;2,42872
2684,96234;2,42105
2682,91118;2,41442
2680,86003;2,41269
2678,80887;2,41559
2676,75772;2,4193
2674,70656;2,4206
2672,65541;2,41988
2670,60425;2,41879
2668,55309;2,41825
2666,50194;2,41615
2664,45078;2,41101
2662,39963;2,40441
2660,34847;2,39936
2658,29732;2,39879
2656,24616;2,401
2654,19501;2,40094
2652,14385;2,39806
2650,0927;2,39687
2648,04154;2,39839
2645,99039;2,39887
2643,93923;2,39901
2641,88808;2,40265
2639,83692;2,40818
2637,78576;2,41146
2635,73461;2,41412
2633,68345;2,42057
2631,6323;2,42744
2629,58114;2,42764
2627,52999;2,42506
2625,47883;2,42666
2623,42768;2,42977
2621,37652;2,43403
2619,32537;2,44127
2617,27421;2,44569
2615,22306;2,44384
2613,1719;2,44159
2611,12075;2,4441
2609,06959;2,44857
2607,01843;2,45441
2604,96728;2,46139
2602,91612;2,46334
2600,86497;2,45959
2598,81381;2,45642
2596,76266;2,45632
2594,7115;2,45499
2592,66035;2,45248
2590,60919;2,45298
2588,55804;2,45532
2586,50688;2,45694
2584,45573;2,45759
2582,40457;2,45639
2580,35342;2,45409
2578,30226;2,45326
2576,2511;2,45337
2574,19995;2,45424
2572,14879;2,45465
2570,09764;2,45323
2568,04648;2,45263
2565,99533;2,45448
2563,94417;2,45674
2561,89302;2,45464
2559,84186;2,45054
2557,79071;2,45014
2555,73955;2,45127
2553,6884;2,45284
2551,63724;2,45626
2549,58609;2,46146
2547,53493;2,46896
2545,48377;2,47165
2543,43262;2,46508
2541,38146;2,46076
2539,33031;2,46583
2537,27915;2,47573
2535,228;2,48534
2533,17684;2,49165
2531,12569;2,49462
2529,07453;2,49642
2527,02338;2,49716
2524,97222;2,49933
2522,92107;2,50662
2520,86991;2,51462
2518,81876;2,51903
2516,7676;2,51915
2514,71644;2,51537
2512,66529;2,51004
2510,61413;2,50701
2508,56298;2,51002
2506,51182;2,51474
2504,46067;2,51486
2502,40951;2,50864
2500,35836;2,49796
2498,3072;2,48879
2496,25605;2,48226
2494,20489;2,47445
2492,15374;2,46413
2490,10258;2,45497
2488,05143;2,44832
2486,00027;2,4412
2483,94911;2,43483
2481,89796;2,42872
2479,8468;2,41907
2477,79565;2,40975
2475,74449;2,40406
2473,69334;2,39725
2471,64218;2,38672
2469,59103;2,3772
2467,53987;2,36962
2465,48872;2,36053
2463,43756;2,3529
2461,38641;2,34862
2459,33525;2,34416
2457,2841;2,33792
2455,23294;2,32987
2453,18178;2,32217
2451,13063;2,31794
2449,07947;2,31555
2447,02832;2,31263
2444,97716;2,30919
2442,92601;2,3045
2440,87485;2,29935
2438,8237;2,2952
2436,77254;2,29178
2434,72139;2,28906
2432,67023;2,28685
2430,61908;2,28376
2428,56792;2,27954
2426,51677;2,27631
2424,46561;2,27479
2422,41445;2,27233
2420,3633;2,26784
2418,31214;2,26479
2416,26099;2,26469
2414,20983;2,26471
2412,15868;2,26334
2410,10752;2,26059
2408,05637;2,2573
2406,00521;2,25387
2403,95406;2,25026
2401,9029;2,24721
2399,85175;2,24644
2397,80059;2,24739
2395,74944;2,24721
2393,69828;2,24504
2391,64712;2,24334
2389,59597;2,24321
2387,54481;2,24297
2385,49366;2,24227
2383,4425;2,2426
2381,39135;2,24379
2379,34019;2,24453
2377,28904;2,24541
2375,23788;2,2482
2373,18673;2,25088
2371,13557;2,24755
2369,08442;2,2379
2367,03326;2,2319
2364,9821;2,23918
2362,93095;2,25523
2360,87979;2,26337
2358,82864;2,255
2356,77748;2,24339
2354,72633;2,24426
2352,67517;2,25336
2350,62402;2,25654
2348,57286;2,25165
2346,52171;2,24748
2344,47055;2,24988
2342,4194;2,25488
2340,36824;2,25572
2338,31709;2,25345
2336,26593;2,2528
2334,21477;2,25451
2332,16362;2,25652
2330,11246;2,25458
2328,06131;2,24851
2326,01015;2,24667
2323,959;2,25081
2321,90784;2,25215
2319,85669;2,24885
2317,80553;2,24758
2315,75438;2,25079
2313,70322;2,25483
2311,65207;2,25614
2309,60091;2,25504
2307,54976;2,25342
2305,4986;2,25177
2303,44744;2,25087
2301,39629;2,25252
2299,34513;2,25548
2297,29398;2,25581
2295,24282;2,25345
2293,19167;2,25168
2291,14051;2,25209
2289,08936;2,25359
2287,0382;2,25421
2284,98705;2,25326
2282,93589;2,25213
2280,88474;2,25228
2278,83358;2,25271
2276,78243;2,25228
2274,73127;2,25213
2272,68011;2,25205
2270,62896;2,25096
2268,5778;2,25151
2266,52665;2,25485
2264,47549;2,25686
2262,42434;2,25708
2260,37318;2,25908
2258,32203;2,26195
2256,27087;2,26284
2254,21972;2,26381
2252,16856;2,2676
2250,11741;2,27239
2248,06625;2,27675
2246,0151;2,27965
2243,96394;2,28081
2241,91278;2,28177
2239,86163;2,28288
2237,81047;2,28254
2235,75932;2,28193
2233,70816;2,28627
2231,65701;2,2932
2229,60585;2,29552
2227,5547;2,29539
2225,50354;2,29673
2223,45239;2,29883
2221,40123;2,30015
2219,35008;2,29991
2217,29892;2,29956
2215,24777;2,30054
2213,19661;2,30189
2211,14545;2,30455
2209,0943;2,30974
2207,04314;2,31286
2204,99199;2,31182
2202,94083;2,31035
2200,88968;2,31114
2198,83852;2,31459
2196,78737;2,31747
2194,73621;2,31836
2192,68506;2,31878
2190,6339;2,31742
2188,58275;2,31633
2186,53159;2,31871
2184,48044;2,32153
2182,42928;2,32252
2180,37812;2,32425
2178,32697;2,32763
2176,27581;2,33035
2174,22466;2,33212
2172,1735;2,33408
2170,12235;2,33575
2168,07119;2,3369
2166,02004;2,33903
2163,96888;2,34368
2161,91773;2,34968
2159,86657;2,35517
2157,81542;2,36104
2155,76426;2,3684
2153,71311;2,37554
2151,66195;2,38096
2149,61079;2,3838
2147,55964;2,38613
2145,50848;2,39248
2143,45733;2,39976
2141,40617;2,40217
2139,35502;2,4017
2137,30386;2,40034
2135,25271;2,39559
2133,20155;2,39006
2131,1504;2,38791
2129,09924;2,38684
2127,04809;2,3847
2124,99693;2,38134
2122,94578;2,37694
2120,89462;2,37344
2118,84346;2,36969
2116,79231;2,36405
2114,74115;2,35921
2112,69;2,3564
2110,63884;2,35405
2108,58769;2,35049
2106,53653;2,34631
2104,48538;2,34355
2102,43422;2,34147
2100,38307;2,33902
2098,33191;2,33771
2096,28076;2,3395
2094,2296;2,34264
2092,17844;2,34448
2090,12729;2,34568
2088,07613;2,34697
2086,02498;2,34888
2083,97382;2,34972
2081,92267;2,34843
2079,87151;2,34848
2077,82036;2,34991
2075,7692;2,34908
2073,71805;2,34846
2071,66689;2,35209
2069,61574;2,35526
2067,56458;2,35488
2065,51343;2,35725
2063,46227;2,36148
2061,41111;2,35982
2059,35996;2,35514
2057,3088;2,35523
2055,25765;2,35859
2053,20649;2,35993
2051,15534;2,36019
2049,10418;2,36186
2047,05303;2,36472
2045,00187;2,36844
2042,95072;2,37251
2040,89956;2,37578
2038,84841;2,37761
2036,79725;2,37756
2034,7461;2,37715
2032,69494;2,37961
2030,64378;2,38448
2028,59263;2,38788
2026,54147;2,38976
2024,49032;2,39269
2022,43916;2,39543
2020,38801;2,39753
2018,33685;2,40035
2016,2857;2,4022
2014,23454;2,40214
2012,18339;2,4016
2010,13223;2,40243
2008,08108;2,40556
2006,02992;2,40818
2003,97877;2,40772
2001,92761;2,40857
1999,87645;2,41309
1997,8253;2,41636
1995,77414;2,41842
1993,72299;2,42126
1991,67183;2,4231
1989,62068;2,42433
1987,56952;2,42539
1985,51837;2,42581
1983,46721;2,42582
1981,41606;2,42498
1979,3649;2,42231
1977,31375;2,42028
1975,26259;2,42399
1973,21144;2,43196
1971,16028;2,43767
1969,10912;2,44042
1967,05797;2,44316
1965,00681;2,44648
1962,95566;2,45104
1960,9045;2,4561
1958,85335;2,45715
1956,80219;2,45419
1954,75104;2,4516
1952,69988;2,44713
1950,64873;2,44095
1948,59757;2,44093
1946,54642;2,44782
1944,49526;2,45573
1942,44411;2,46107
1940,39295;2,4624
1938,34179;2,46265
1936,29064;2,46227
1934,23948;2,45861
1932,18833;2,45622
1930,13717;2,45726
1928,08602;2,45693
1926,03486;2,45685
1923,98371;2,46167
1921,93255;2,46818
1919,8814;2,47172
1917,83024;2,47293
1915,77909;2,4734
1913,72793;2,47491
1911,67678;2,47908
1909,62562;2,48362
1907,57446;2,48662
1905,52331;2,4901
1903,47215;2,49465
1901,421;2,49795
1899,36984;2,49927
1897,31869;2,50219
1895,26753;2,50926
1893,21638;2,51795
1891,16522;2,52461
1889,11407;2,52811
1887,06291;2,53043
1885,01176;2,53319
1882,9606;2,53649
1880,90945;2,54037
1878,85829;2,54513
1876,80713;2,55035
1874,75598;2,555
1872,70482;2,56066
1870,65367;2,56931
1868,60251;2,57578
1866,55136;2,57279
1864,5002;2,56713
1862,44905;2,56858
1860,39789;2,57329
1858,34674;2,57324
1856,29558;2,56984
1854,24443;2,56708
1852,19327;2,56761
1850,14212;2,5731
1848,09096;2,58031
1846,0398;2,58667
1843,98865;2,59233
1841,93749;2,59412
1839,88634;2,59284
1837,83518;2,59312
1835,78403;2,59455
1833,73287;2,5971
1831,68172;2,60544
1829,63056;2,62014
1827,57941;2,63315
1825,52825;2,63697
1823,4771;2,63401
1821,42594;2,63213
1819,37478;2,63448
1817,32363;2,63935
1815,27247;2,64621
1813,22132;2,65713
1811,17016;2,67311
1809,11901;2,69031
1807,06785;2,70392
1805,0167;2,71639
1802,96554;2,73194
1800,91439;2,74721
1798,86323;2,75562
1796,81208;2,75762
1794,76092;2,75765
1792,70977;2,7576
1790,65861;2,75722
1788,60745;2,75386
1786,5563;2,74345
1784,50514;2,72705
1782,45399;2,71156
1780,40283;2,69938
1778,35168;2,6889
1776,30052;2,68403
1774,24937;2,68955
1772,19821;2,69974
1770,14706;2,70069
1768,0959;2,68969
1766,04475;2,67787
1763,99359;2,67397
1761,94244;2,677
1759,89128;2,68525
1757,84012;2,69549
1755,78897;2,69846
1753,73781;2,69216
1751,68666;2,68911
1749,6355;2,69912
1747,58435;2,70996
1745,53319;2,70709
1743,48204;2,69865
1741,43088;2,69729
1739,37973;2,70047
1737,32857;2,70443
1735,27742;2,71518
1733,22626;2,72795
1731,17511;2,72485
1729,12395;2,7141
1727,07279;2,71301
1725,02164;2,72102
1722,97048;2,72729
1720,91933;2,73059
1718,86817;2,74101
1716,81702;2,75874
1714,76586;2,76385
1712,71471;2,75491
1710,66355;2,7502
1708,6124;2,75712
1706,56124;2,76665
1704,51009;2,77258
1702,45893;2,78006
1700,40778;2,79329
1698,35662;2,8081
1696,30546;2,81705
1694,25431;2,81693
1692,20315;2,81524
1690,152;2,81868
1688,10084;2,82353
1686,04969;2,82929
1683,99853;2,84317
1681,94738;2,85301
1679,89622;2,8487
1677,84507;2,83809
1675,79391;2,82776
1673,74276;2,82724
1671,6916;2,84238
1669,64045;2,86137
1667,58929;2,87239
1665,53813;2,87518
1663,48698;2,8697
1661,43582;2,86353
1659,38467;2,86584
1657,33351;2,86543
1655,28236;2,84924
1653,2312;2,83616
1651,18005;2,84713
1649,12889;2,86137
1647,07774;2,86927
1645,02658;2,87533
1642,97543;2,86982
1640,92427;2,85494
1638,87312;2,85312
1636,82196;2,87275
1634,7708;2,88454
1632,71965;2,87095
1630,66849;2,8574
1628,61734;2,85938
1626,56618;2,86941
1624,51503;2,87757
1622,46387;2,87872
1620,41272;2,86932
1618,36156;2,85726
1616,31041;2,85477
1614,25925;2,86109
1612,2081;2,86648
1610,15694;2,86884
1608,10579;2,86911
1606,05463;2,86566
1604,00347;2,85901
1601,95232;2,84765
1599,90116;2,83152
1597,85001;2,8166
1595,79885;2,80493
1593,7477;2,79561
1591,69654;2,78916
1589,64539;2,78138
1587,59423;2,76825
1585,54308;2,75158
1583,49192;2,73163
1581,44077;2,71012
1579,38961;2,69421
1577,33846;2,68176
1575,2873;2,66218
1573,23614;2,63819
1571,18499;2,61622
1569,13383;2,59726
1567,08268;2,58022
1565,03152;2,56326
1562,98037;2,54863
1560,92921;2,53605
1558,87806;2,51815
1556,8269;2,4917
1554,77575;2,4654
1552,72459;2,44269
1550,67344;2,42625
1548,62228;2,41543
1546,57113;2,41262
1544,51997;2,42073
1542,46881;2,43355
1540,41766;2,43294
1538,3665;2,41601
1536,31535;2,40766
1534,26419;2,40964
1532,21304;2,41165
1530,16188;2,41123
1528,11073;2,41154
1526,05957;2,41523
1524,00842;2,42341
1521,95726;2,43298
1519,90611;2,43963
1517,85495;2,44368
1515,80379;2,4416
1513,75264;2,43323
1511,70148;2,43042
1509,65033;2,44229
1507,59917;2,45894
1505,54802;2,45845
1503,49686;2,44798
1501,44571;2,44152
1499,39455;2,44069
1497,3434;2,44442
1495,29224;2,45042
1493,24109;2,46056
1491,18993;2,47579
1489,13878;2,48805
1487,08762;2,48989
1485,03646;2,49046
1482,98531;2,49683
1480,93415;2,50565
1478,883;2,51394
1476,83184;2,52431
1474,78069;2,54023
1472,72953;2,55793
1470,67838;2,56835
1468,62722;2,57274
1466,57607;2,57646
1464,52491;2,58027
1462,47376;2,58383
1460,4226;2,58992
1458,37145;2,59968
1456,32029;2,60787
1454,26913;2,61218
1452,21798;2,61538
1450,16682;2,61348
1448,11567;2,60423
1446,06451;2,59601
1444,01336;2,59757
1441,9622;2,60705
1439,91105;2,61773
1437,85989;2,62597
1435,80874;2,63186
1433,75758;2,6352
1431,70643;2,63487
1429,65527;2,63037
1427,60412;2,62209
1425,55296;2,61416
1423,5018;2,6124
1421,45065;2,61558
1419,39949;2,61799
1417,34834;2,61464
1415,29718;2,60551
1413,24603;2,59319
1411,19487;2,57809
1409,14372;2,56467
1407,09256;2,56029
1405,04141;2,5661
1402,99025;2,57783
1400,9391;2,59281
1398,88794;2,60936
1396,83679;2,62064
1394,78563;2,62185
1392,73447;2,62223
1390,68332;2,63257
1388,63216;2,65077
1386,58101;2,66746
1384,52985;2,67809
1382,4787;2,68776
1380,42754;2,69902
1378,37639;2,70906
1376,32523;2,71947
1374,27408;2,73345
1372,22292;2,74856
1370,17177;2,75938
1368,12061;2,7643
1366,06946;2,76817
1364,0183;2,77505
1361,96714;2,78243
1359,91599;2,78594
1357,86483;2,78624
1355,81368;2,78509
1353,76252;2,78281
1351,71137;2,78216
1349,66021;2,7861
1347,60906;2,79164
1345,5579;2,79075
1343,50675;2,78486
1341,45559;2,78451
1339,40444;2,7886
1337,35328;2,79005
1335,30213;2,78882
1333,25097;2,78661
1331,19981;2,78277
1329,14866;2,77797
1327,0975;2,77647
1325,04635;2,77927
1322,99519;2,78892
1320,94404;2,81043
1318,89288;2,83005
1316,84173;2,83057
1314,79057;2,82268
1312,73942;2,81804
1310,68826;2,81243
1308,63711;2,80437
1306,58595;2,798
1304,5348;2,79649
1302,48364;2,79824
1300,43248;2,79611
1298,38133;2,78753
1296,33017;2,78261
1294,27902;2,78781
1292,22786;2,79402
1290,17671;2,79457
1288,12555;2,79524
1286,0744;2,79955
1284,02324;2,80474
1281,97209;2,80489
1279,92093;2,79671
1277,86978;2,78902
1275,81862;2,79142
1273,76747;2,79955
1271,71631;2,80016
1269,66515;2,78594
1267,614;2,76615
1265,56284;2,7525
1263,51169;2,74598
1261,46053;2,74321
1259,40938;2,73609
1257,35822;2,72212
1255,30707;2,70921
1253,25591;2,69837
1251,20476;2,68981
1249,1536;2,68996
1247,10245;2,69235
1245,05129;2,68213
1243,00013;2,66199
1240,94898;2,64566
1238,89782;2,6361
1236,84667;2,63186
1234,79551;2,63287
1232,74436;2,6311
1230,6932;2,62132
1228,64205;2,60786
1226,59089;2,59681
1224,53974;2,59137
1222,48858;2,58823
1220,43743;2,58116
1218,38627;2,57012
1216,33512;2,56384
1214,28396;2,56494
1212,2328;2,56777
1210,18165;2,57227
1208,13049;2,57905
1206,07934;2,58453
1204,02818;2,5861
1201,97703;2,58486
1199,92587;2,58696
1197,87472;2,59368
1195,82356;2,59664
1193,77241;2,5977
1191,72125;2,60316
1189,6701;2,60968
1187,61894;2,6155
1185,56779;2,62425
1183,51663;2,634
1181,46547;2,6394
1179,41432;2,64547
1177,36316;2,65504
1175,31201;2,65768
1173,26085;2,6495
1171,2097;2,64212
1169,15854;2,64401
1167,10739;2,65482
1165,05623;2,66741
1163,00508;2,67902
1160,95392;2,69404
1158,90277;2,70115
1156,85161;2,69147
1154,80046;2,67322
1152,7493;2,65345
1150,69814;2,63789
1148,64699;2,62414
1146,59583;2,60745
1144,54468;2,58946
1142,49352;2,57106
1140,44237;2,55448
1138,39121;2,54049
1136,34006;2,52778
1134,2889;2,51645
1132,23775;2,50454
1130,18659;2,49316
1128,13544;2,48206
1126,08428;2,46503
1124,03313;2,44349
1121,98197;2,42525
1119,93081;2,41368
1117,87966;2,41108
1115,8285;2,41954
1113,77735;2,43904
1111,72619;2,46841
1109,67504;2,49617
1107,62388;2,50664
1105,57273;2,49978
1103,52157;2,48483
1101,47042;2,46643
1099,41926;2,44679
1097,36811;2,42894
1095,31695;2,41252
1093,2658;2,39752
1091,21464;2,38306
1089,16348;2,36741
1087,11233;2,35122
1085,06117;2,3362
1083,01002;2,32468
1080,95886;2,31532
1078,90771;2,30638
1076,85655;2,29845
1074,8054;2,29093
1072,75424;2,28582
1070,70309;2,2856
1068,65193;2,28787
1066,60078;2,28955
1064,54962;2,29117
1062,49847;2,29335
1060,44731;2,29274
1058,39615;2,28816
1056,345;2,28263
1054,29384;2,27503
1052,24269;2,26239
1050,19153;2,24539
1048,14038;2,22767
1046,08922;2,21449
1044,03807;2,20424
1041,98691;2,19057
1039,93576;2,17428
1037,8846;2,1606
1035,83345;2,1514
1033,78229;2,14703
1031,73114;2,15081
1029,67998;2,16604
1027,62882;2,19209
1025,57767;2,22525
1023,52651;2,25754
1021,47536;2,27942
1019,4242;2,29021
1017,37305;2,29369
1015,32189;2,28916
1013,27074;2,27717
1011,21958;2,25754
1009,16843;2,23523
1007,11727;2,22232
1005,06612;2,22377
1003,01496;2,2366
1000,96381;2,25725
998,91265;2,28254
996,86149;2,307
994,81034;2,32911
992,75918;2,35133
990,70803;2,37436
988,65687;2,39696
986,60572;2,41545
984,55456;2,42997
982,50341;2,44358
980,45225;2,45709
978,4011;2,46814
976,34994;2,47463
974,29879;2,47925
972,24763;2,48793
970,19647;2,50486
968,14532;2,52611
966,09416;2,54739
964,04301;2,5657
961,99185;2,5749
959,9407;2,57963
957,88954;2,59086
955,83839;2,60426
953,78723;2,61131
951,73608;2,61801
949,68492;2,6208
947,63377;2,6115
945,58261;2,60054
943,53146;2,59175
941,4803;2,58325
939,42914;2,58164
937,37799;2,58602
935,32683;2,58286
933,27568;2,56798
931,22452;2,55566
929,17337;2,55265
927,12221;2,55127
925,07106;2,5418
923,0199;2,52176
920,96875;2,5006
918,91759;2,48252
916,86644;2,462
914,81528;2,43931
912,76413;2,4191
910,71297;2,4076
908,66181;2,41043
906,61066;2,4213
904,5595;2,43099
902,50835;2,44131
900,45719;2,45279
898,40604;2,46087
896,35488;2,46574
894,30373;2,47053
892,25257;2,47612
890,20142;2,48186
888,15026;2,4867
886,09911;2,49199
884,04795;2,50383
881,9968;2,52055
879,94564;2,53433
877,89448;2,5386
875,84333;2,52891
873,79217;2,52038
871,74102;2,52719
869,68986;2,54438
867,63871;2,56347
865,58755;2,57928
863,5364;2,59352
861,48524;2,60188
859,43409;2,60221
857,38293;2,61014
855,33178;2,62764
853,28062;2,64005
851,22947;2,65224
849,17831;2,66888
847,12715;2,6773
845,076;2,68801
843,02484;2,71575
840,97369;2,72699
838,92253;2,70599
836,87138;2,68858
834,82022;2,69081
832,76907;2,69983
830,71791;2,70619
828,66676;2,72332
826,6156;2,75384
824,56445;2,78012
822,51329;2,80906
820,46214;2,82854
818,41098;2,82339
816,35982;2,81386
814,30867;2,7989
812,25751;2,78102
810,20636;2,75919
808,1552;2,73253
806,10405;2,70411
804,05289;2,66627
802,00174;2,63184
799,95058;2,61074
797,89943;2,59509
795,84827;2,58804
793,79712;2,59465
791,74596;2,60443
789,69481;2,61158
787,64365;2,61424
785,59249;2,60952
783,54134;2,60281
781,49018;2,59273
779,43903;2,58082
777,38787;2,58263
775,33672;2,59751
773,28556;2,60931
771,23441;2,61284
769,18325;2,6203
767,1321;2,64478
765,08094;2,66873
763,02979;2,67408
760,97863;2,67943
758,92748;2,69117
756,87632;2,69794
754,82516;2,70684
752,77401;2,71471
750,72285;2,70802
748,6717;2,70926
746,62054;2,71829
744,56939;2,70481
742,51823;2,69446
740,46708;2,70558
738,41592;2,71552
736,36477;2,73366
734,31361;2,76654
732,26246;2,78653
730,2113;2,78801
728,16015;2,79606
726,10899;2,81278
724,05783;2,81538
722,00668;2,80428
719,95552;2,79604
717,90437;2,80488
715,85321;2,82683
713,80206;2,82471
711,7509;2,79462
709,69975;2,78567
707,64859;2,80283
705,59744;2,81522
703,54628;2,81405
701,49513;2,80935
699,44397;2,81529
697,39281;2,82688
695,34166;2,82114
693,2905;2,80038
691,23935;2,78891
689,18819;2,7876
687,13704;2,7843
685,08588;2,78226
683,03473;2,78438
680,98357;2,78727
678,93242;2,78929
676,88126;2,79831
674,83011;2,82119
672,77895;2,84777
670,7278;2,88066
668,67664;2,92122
666,62548;2,9137
664,57433;2,85885
662,52317;2,81985
660,47202;2,81598
658,42086;2,81943
656,36971;2,80327
654,31855;2,78718
652,2674;2,8008
650,21624;2,82635
648,16509;2,833
646,11393;2,82615
644,06278;2,82377
642,01162;2,82392
639,96047;2,8053
637,90931;2,76893
635,85815;2,74376
633,807;2,73093
631,75584;2,72838
629,70469;2,74802
627,65353;2,77224
625,60238;2,78484
623,55122;2,79749
621,50007;2,79028
619,44891;2,7616
617,39776;2,74558
615,3466;2,72399
613,29545;2,68566
611,24429;2,66098
609,19314;2,66508
607,14198;2,68128
605,09082;2,67149
603,03967;2,6327
600,98851;2,59166
598,93736;2,55858
596,8862;2,53307
594,83505;2,52171
592,78389;2,52374
590,73274;2,52708
588,68158;2,52774
586,63043;2,5133
584,57927;2,4704
582,52812;2,4345
580,47696;2,43047
578,42581;2,43099
576,37465;2,41393
574,32349;2,38457
572,27234;2,3578
570,22118;2,33456
568,17003;2,30327
566,11887;2,26824
564,06772;2,2427
562,01656;2,22654
559,96541;2,21854
557,91425;2,21436
555,8631;2,20324
553,81194;2,18008
551,76079;2,14758
549,70963;2,11435
547,65848;2,09215
545,60732;2,0845
543,55616;2,08161
541,50501;2,07196
539,45385;2,05778
537,4027;2,0522
535,35154;2,05962
533,30039;2,07326
531,24923;2,09083
529,19808;2,11793
527,14692;2,15304
525,09577;2,18646
523,04461;2,21643
520,99346;2,24486
518,9423;2,27118
516,89115;2,28977
514,83999;2,29397
512,78883;2,29056
510,73768;2,2894
508,68652;2,29702
506,63537;2,31395
504,58421;2,33483
502,53306;2,34124
500,4819;2,31917
498,43075;2,2875
496,37959;2,26902
494,32844;2,25823
492,27728;2,23918
490,22613;2,20921
488,17497;2,17523
486,12382;2,1375
484,07266;2,09261
482,0215;2,05165
479,97035;2,02035
477,91919;1,99394
475,86804;1,97564
473,81688;1,96246
471,76573;1,94428
469,71457;1,92977
467,66342;1,92953
465,61226;1,9399
463,56111;1,95933
461,50995;1,98521
459,4588;2,00927
457,40764;2,03094
455,35649;2,04793
453,30533;2,05355
451,25417;2,06146
449,20302;2,09098
447,15186;2,1254
445,10071;2,13266
443,04955;2,11717
440,9984;2,10557
438,94724;2,10482
436,89609;2,10486
434,84493;2,09626
432,79378;2,08439
430,74262;2,07749
428,69147;2,06934
426,64031;2,06085
424,58916;2,0578
422,538;2,05596
420,48684;2,05424
418,43569;2,06777
416,38453;2,08469
414,33338;2,08152
412,28222;2,0742
410,23107;2,07941
408,17991;2,08703
406,12876;2,08046
404,0776;2,06417
402,02645;2,05744
399,97529;2,06295
