3997,70175;1,75602
3995,6506;1,7555
3993,59944;1,75719
3991,54829;1,75905
3989,49713;1,75984
3987,44598;1,76172
3985,39482;1,76466
3983,34367;1,76699
3981,29251;1,76775
3979,24136;1,76785
3977,1902;1,76943
3975,13905;1,77347
3973,08789;1,77767
3971,03673;1,77909
3968,98558;1,77935
3966,93442;1,78239
3964,88327;1,78762
3962,83211;1,79224
3960,78096;1,79632
3958,7298;1,80018
3956,67865;1,80315
3954,62749;1,80555
3952,57634;1,80833
3950,52518;1,81158
3948,47403;1,81448
3946,42287;1,81594
3944,37172;1,81436
3942,32056;1,81238
3940,2694;1,81291
3938,21825;1,81313
3936,16709;1,81166
3934,11594;1,80852
3932,06478;1,80376
3930,01363;1,79898
3927,96247;1,79565
3925,91132;1,79218
3923,86016;1,78738
3921,80901;1,78129
3919,75785;1,77299
3917,7067;1,76374
3915,65554;1,75769
3913,60439;1,75457
3911,55323;1,75064
3909,50207;1,74643
3907,45092;1,74267
3905,39976;1,73886
3903,34861;1,73707
3901,29745;1,73673
3899,2463;1,7353
3897,19514;1,73478
3895,14399;1,7339
3893,09283;1,72974
3891,04168;1,7263
3888,99052;1,72733
3886,93937;1,72655
3884,88821;1,72578
3882,83706;1,7259
3880,7859;1,72186
3878,73474;1,7211
3876,68359;1,72429
3874,63243;1,72666
3872,58128;1,72806
3870,53012;1,7259
3868,47897;1,72628
3866,42781;1,72737
3864,37666;1,72412
3862,3255;1,72111
3860,27435;1,7206
3858,22319;1,72164
3856,17204;1,71945
3854,12088;1,71224
3852,06973;1,71037
3850,01857;1,71411
3847,96741;1,71568
3845,91626;1,71417
3843,8651;1,7132
3841,81395;1,71491
3839,76279;1,71345
3837,71164;1,709
3835,66048;1,70864
3833,60933;1,70978
3831,55817;1,71037
3829,50702;1,71274
3827,45586;1,71459
3825,40471;1,71593
3823,35355;1,71452
3821,3024;1,71183
3819,25124;1,71531
3817,20008;1,71553
3815,14893;1,71361
3813,09777;1,71629
3811,04662;1,71891
3808,99546;1,71815
3806,94431;1,71743
3804,89315;1,72193
3802,842;1,72239
3800,79084;1,72075
3798,73969;1,72299
3796,68853;1,72288
3794,63738;1,7232
3792,58622;1,72409
3790,53506;1,72363
3788,48391;1,72321
3786,43275;1,72308
3784,3816;1,72448
3782,33044;1,72758
3780,27929;1,72878
3778,22813;1,73015
3776,17698;1,73284
3774,12582;1,73427
3772,07467;1,73348
3770,02351;1,73272
3767,97236;1,73553
3765,9212;1,73868
3763,87005;1,74227
3761,81889;1,74487
3759,76773;1,7457
3757,71658;1,74888
3755,66542;1,75371
3753,61427;1,75595
3751,56311;1,75736
3749,51196;1,76468
3747,4608;1,77242
3745,40965;1,76982
3743,35849;1,76932
3741,30734;1,77831
3739,25618;1,78652
3737,20503;1,79007
3735,15387;1,79119
3733,10272;1,79381
3731,05156;1,80043
3729,0004;1,81013
3726,94925;1,81922
3724,89809;1,82723
3722,84694;1,83309
3720,79578;1,83907
3718,74463;1,84807
3716,69347;1,86182
3714,64232;1,87951
3712,59116;1,89897
3710,54001;1,9213
3708,48885;1,9474
3706,4377;1,97738
3704,38654;2,01287
3702,33539;2,05847
3700,28423;2,11263
3698,23307;2,15679
3696,18192;2,17889
3694,13076;2,18313
3692,07961;2,16985
3690,02845;2,13946
3687,9773;2,11072
3685,92614;2,0976
3683,87499;2,09083
3681,82383;2,08595
3679,77268;2,0868
3677,72152;2,09295
3675,67037;2,10258
3673,61921;2,11979
3671,56806;2,13589
3669,5169;2,14994
3667,46574;2,16332
3665,41459;2,1691
3663,36343;2,17267
3661,31228;2,1819
3659,26112;2,1983
3657,20997;2,22013
3655,15881;2,24341
3653,10766;2,25546
3651,0565;2,25334
3649,00535;2,25852
3646,95419;2,28216
3644,90304;2,30672
3642,85188;2,31586
3640,80073;2,30907
3638,74957;2,29488
3636,69841;2,28401
3634,64726;2,28432
3632,5961;2,29706
3630,54495;2,31259
3628,49379;2,32839
3626,44264;2,35196
3624,39148;2,38157
3622,34033;2,41458
3620,28917;2,43823
3618,23802;2,43536
3616,18686;2,40994
3614,13571;2,38153
3612,08455;2,36739
3610,0334;2,36941
3607,98224;2,37838
3605,93108;2,38397
3603,87993;2,38066
3601,82877;2,37757
3599,77762;2,3827
3597,72646;2,38778
3595,67531;2,38783
3593,62415;2,39258
3591,573;2,40613
3589,52184;2,42099
3587,47069;2,4279
3585,41953;2,42307
3583,36838;2,41809
3581,31722;2,42278
3579,26607;2,42725
3577,21491;2,42397
3575,16375;2,4247
3573,1126;2,43515
3571,06144;2,44731
3569,01029;2,45498
3566,95913;2,45662
3564,90798;2,45273
3562,85682;2,44831
3560,80567;2,45097
3558,75451;2,46253
3556,70336;2,47345
3554,6522;2,47338
3552,60105;2,46796
3550,54989;2,47012
3548,49874;2,47971
3546,44758;2,49155
3544,39642;2,50333
3542,34527;2,51012
3540,29411;2,51175
3538,24296;2,51161
3536,1918;2,51436
3534,14065;2,52544
3532,08949;2,53624
3530,03834;2,53821
3527,98718;2,54171
3525,93603;2,55154
3523,88487;2,55742
3521,83372;2,55855
3519,78256;2,56006
3517,73141;2,56047
3515,68025;2,55915
3513,62909;2,5569
3511,57794;2,55574
3509,52678;2,563
3507,47563;2,57619
3505,42447;2,57987
3503,37332;2,57525
3501,32216;2,57433
3499,27101;2,57662
3497,21985;2,57604
3495,1687;2,57414
3493,11754;2,57964
3491,06639;2,5895
3489,01523;2,59182
3486,96407;2,58722
3484,91292;2,58647
3482,86176;2,5907
3480,81061;2,59456
3478,75945;2,59887
3476,7083;2,60399
3474,65714;2,60912
3472,60599;2,61056
3470,55483;2,60527
3468,50368;2,60519
3466,45252;2,61666
3464,40137;2,62392
3462,35021;2,61798
3460,29906;2,60953
3458,2479;2,60866
3456,19674;2,61148
3454,14559;2,60842
3452,09443;2,60776
3450,04328;2,6178
3447,99212;2,6245
3445,94097;2,62101
3443,88981;2,61729
3441,83866;2,61916
3439,7875;2,62313
3437,73635;2,62816
3435,68519;2,63827
3433,63404;2,6466
3431,58288;2,64342
3429,53173;2,63547
3427,48057;2,63186
3425,42941;2,6298
3423,37826;2,6307
3421,3271;2,63866
3419,27595;2,64874
3417,22479;2,65365
3415,17364;2,64828
3413,12248;2,63719
3411,07133;2,62852
3409,02017;2,62282
3406,96902;2,62296
3404,91786;2,63141
3402,86671;2,64031
3400,81555;2,64253
3398,7644;2,64596
3396,71324;2,64764
3394,66208;2,6369
3392,61093;2,62352
3390,55977;2,62215
3388,50862;2,6244
3386,45746;2,62635
3384,40631;2,63669
3382,35515;2,64782
3380,304;2,64826
3378,25284;2,64615
3376,20169;2,64658
3374,15053;2,6422
3372,09938;2,63435
3370,04822;2,62705
3367,99707;2,62309
3365,94591;2,62622
3363,89475;2,63077
3361,8436;2,62899
3359,79244;2,62538
3357,74129;2,62644
3355,69013;2,63116
3353,63898;2,63546
3351,58782;2,63328
3349,53667;2,63093
3347,48551;2,63636
3345,43436;2,63841
3343,3832;2,63429
3341,33205;2,63252
3339,28089;2,63292
3337,22974;2,63315
3335,17858;2,63226
3333,12742;2,62603
3331,07627;2,61557
3329,02511;2,60989
3326,97396;2,61046
3324,9228;2,61157
3322,87165;2,60889
3320,82049;2,60863
3318,76934;2,61802
3316,71818;2,62809
3314,66703;2,62842
3312,61587;2,61807
3310,56472;2,60527
3308,51356;2,60143
3306,46241;2,60154
3304,41125;2,59765
3302,36009;2,59728
3300,30894;2,59941
3298,25778;2,5906
3296,20663;2,57991
3294,15547;2,58722
3292,10432;2,60283
3290,05316;2,60864
3288,00201;2,60786
3285,95085;2,60416
3283,8997;2,59561
3281,84854;2,59063
3279,79739;2,59903
3277,74623;2,61569
3275,69508;2,62295
3273,64392;2,61294
3271,59276;2,60058
3269,54161;2,60098
3267,49045;2,61119
3265,4393;2,6164
3263,38814;2,61152
3261,33699;2,60364
3259,28583;2,59549
3257,23468;2,58988
3255,18352;2,58587
3253,13237;2,58036
3251,08121;2,57912
3249,03006;2,58505
3246,9789;2,59187
3244,92775;2,5942
3242,87659;2,59278
3240,82543;2,59156
3238,77428;2,59441
3236,72312;2,59936
3234,67197;2,59867
3232,62081;2,59343
3230,56966;2,58918
3228,5185;2,58774
3226,46735;2,58789
3224,41619;2,58906
3222,36504;2,59298
3220,31388;2,59474
3218,26273;2,59134
3216,21157;2,58671
3214,16041;2,5805
3212,10926;2,57618
3210,0581;2,57589
3208,00695;2,57214
3205,95579;2,5663
3203,90464;2,56846
3201,85348;2,57536
3199,80233;2,57885
3197,75117;2,58074
3195,70002;2,57941
3193,64886;2,57051
3191,59771;2,56035
3189,54655;2,55342
3187,4954;2,54853
3185,44424;2,54719
3183,39308;2,54606
3181,34193;2,54511
3179,29077;2,55015
3177,23962;2,55607
3175,18846;2,55501
3173,13731;2,55017
3171,08615;2,54686
3169,035;2,54372
3166,98384;2,54114
3164,93269;2,54212
3162,88153;2,54653
3160,83038;2,55172
3158,77922;2,55135
3156,72807;2,54394
3154,67691;2,53642
3152,62575;2,53567
3150,5746;2,54329
3148,52344;2,54883
3146,47229;2,54354
3144,42113;2,53343
3142,36998;2,52665
3140,31882;2,52713
3138,26767;2,53297
3136,21651;2,53445
3134,16536;2,52951
3132,1142;2,52433
3130,06305;2,51904
3128,01189;2,51553
3125,96074;2,51607
3123,90958;2,51706
3121,85842;2,5158
3119,80727;2,51131
3117,75611;2,50695
3115,70496;2,50566
3113,6538;2,50416
3111,60265;2,50375
3109,55149;2,50808
3107,50034;2,51196
3105,44918;2,51031
3103,39803;2,50306
3101,34687;2,49186
3099,29572;2,48243
3097,24456;2,48062
3095,19341;2,48407
3093,14225;2,48472
3091,09109;2,48259
3089,03994;2,48116
3086,98878;2,47904
3084,93763;2,478
3082,88647;2,48076
3080,83532;2,48431
3078,78416;2,48257
3076,73301;2,47513
3074,68185;2,46905
3072,6307;2,46757
3070,57954;2,46871
3068,52839;2,47153
3066,47723;2,47242
3064,42608;2,46761
3062,37492;2,45994
3060,32376;2,45349
3058,27261;2,45
3056,22145;2,45018
3054,1703;2,45264
3052,11914;2,45678
3050,06799;2,46249
3048,01683;2,46625
3045,96568;2,46426
3043,91452;2,45526
3041,86337;2,44504
3039,81221;2,4412
3037,76106;2,44277
3035,7099;2,44576
3033,65875;2,44699
3031,60759;2,44531
3029,55643;2,44225
3027,50528;2,44085
3025,45412;2,44595
3023,40297;2,45572
3021,35181;2,46072
3019,30066;2,45748
3017,2495;2,45193
3015,19835;2,4519
3013,14719;2,45718
3011,09604;2,46135
3009,04488;2,46491
3006,99373;2,46891
3004,94257;2,47235
3002,89142;2,48181
3000,84026;2,49797
2998,7891;2,51372
2996,73795;2,52616
2994,68679;2,53729
2992,63564;2,55334
2990,58448;2,57086
2988,53333;2,58175
2986,48217;2,58859
2984,43102;2,59078
2982,37986;2,58911
2980,32871;2,5902
2978,27755;2,59337
2976,2264;2,59217
2974,17524;2,58732
2972,12409;2,58551
2970,07293;2,58801
2968,02177;2,59002
2965,97062;2,58942
2963,91946;2,58851
2961,86831;2,58426
2959,81715;2,57645
2957,766;2,57045
2955,71484;2,56687
2953,66369;2,56633
2951,61253;2,56695
2949,56138;2,56574
2947,51022;2,56612
2945,45907;2,56784
2943,40791;2,56742
2941,35675;2,56482
2939,3056;2,56152
2937,25444;2,55795
2935,20329;2,54974
2933,15213;2,54106
2931,10098;2,5419
2929,04982;2,5451
2926,99867;2,54263
2924,94751;2,54523
2922,89636;2,55564
2920,8452;2,55886
2918,79405;2,55482
2916,74289;2,55432
2914,69174;2,55433
2912,64058;2,54932
2910,58942;2,54659
2908,53827;2,55009
2906,48711;2,55129
2904,43596;2,54965
2902,3848;2,54866
2900,33365;2,54673
2898,28249;2,54717
2896,23134;2,55288
2894,18018;2,55553
2892,12903;2,55439
2890,07787;2,56526
2888,02672;2,58875
2885,97556;2,60585
2883,92441;2,61037
2881,87325;2,61248
2879,82209;2,61178
2877,77094;2,60965
2875,71978;2,6133
2873,66863;2,61716
2871,61747;2,61787
2869,56632;2,61577
2867,51516;2,60762
2865,46401;2,59569
2863,41285;2,58615
2861,3617;2,58003
2859,31054;2,57629
2857,25939;2,57252
2855,20823;2,56486
2853,15708;2,55247
2851,10592;2,53873
2849,05476;2,53085
2847,00361;2,52939
2844,95245;2,52452
2842,9013;2,51181
2840,85014;2,49632
2838,79899;2,47983
2836,74783;2,46124
2834,69668;2,44242
2832,64552;2,42677
2830,59437;2,41457
2828,54321;2,40179
2826,49206;2,38702
2824,4409;2,37388
2822,38975;2,36571
2820,33859;2,36042
2818,28743;2,35481
2816,23628;2,34802
2814,18512;2,33814
2812,13397;2,32709
2810,08281;2,31923
2808,03166;2,31507
2805,9805;2,31267
2803,92935;2,31044
2801,87819;2,30907
2799,82704;2,30876
2797,77588;2,30714
2795,72473;2,30214
2793,67357;2,29574
2791,62242;2,28812
2789,57126;2,27787
2787,5201;2,26903
2785,46895;2,26417
2783,41779;2,26109
2781,36664;2,25636
2779,31548;2,25087
2777,26433;2,24825
2775,21317;2,24754
2773,16202;2,24731
2771,11086;2,24708
2769,05971;2,24555
2767,00855;2,24313
2764,9574;2,24131
2762,90624;2,23912
2760,85509;2,23507
2758,80393;2,23063
2756,75277;2,22648
2754,70162;2,22239
2752,65046;2,22063
2750,59931;2,22147
2748,54815;2,22198
2746,497;2,22091
2744,44584;2,21939
2742,39469;2,21753
2740,34353;2,21553
2738,29238;2,21423
2736,24122;2,21264
2734,19007;2,21039
2732,13891;2,20874
2730,08776;2,20813
2728,0366;2,20789
2725,98544;2,20851
2723,93429;2,21014
2721,88313;2,21107
2719,83198;2,21043
2717,78082;2,20643
2715,72967;2,20055
2713,67851;2,1988
2711,62736;2,20066
2709,5762;2,20245
2707,52505;2,20314
2705,47389;2,20273
2703,42274;2,20277
2701,37158;2,20172
2699,32043;2,19832
2697,26927;2,1953
2695,21811;2,19461
2693,16696;2,19627
2691,1158;2,19841
2689,06465;2,20072
2687,01349;2,20221
2684,96234;2,2014
2682,91118;2,20187
2680,86003;2,20454
2678,80887;2,20488
2676,75772;2,20253
2674,70656;2,20264
2672,65541;2,20554
2670,60425;2,20605
2668,55309;2,20293
2666,50194;2,20114
2664,45078;2,20447
2662,39963;2,20939
2660,34847;2,21065
2658,29732;2,2104
2656,24616;2,21327
2654,19501;2,21671
2652,14385;2,21871
2650,0927;2,2228
2648,04154;2,22947
2645,99039;2,23641
2643,93923;2,24302
2641,88808;2,2509
2639,83692;2,26198
2637,78576;2,27644
2635,73461;2,29117
2633,68345;2,3034
2631,6323;2,31661
2629,58114;2,33464
2627,52999;2,35392
2625,47883;2,36876
2623,42768;2,38175
2621,37652;2,39723
2619,32537;2,41173
2617,27421;2,42184
2615,22306;2,43071
2613,1719;2,44276
2611,12075;2,4574
2609,06959;2,47105
2607,01843;2,48274
2604,96728;2,4919
2602,91612;2,49553
2600,86497;2,49434
2598,81381;2,49467
2596,76266;2,50071
2594,7115;2,50906
2592,66035;2,51436
2590,60919;2,51585
2588,55804;2,51535
2586,50688;2,51607
2584,45573;2,5188
2582,40457;2,52025
2580,35342;2,51787
2578,30226;2,51188
2576,2511;2,50873
2574,19995;2,51326
2572,14879;2,52163
2570,09764;2,52863
2568,04648;2,53307
2565,99533;2,53721
2563,94417;2,54078
2561,89302;2,53924
2559,84186;2,53706
2557,79071;2,54026
2555,73955;2,54539
2553,6884;2,55015
2551,63724;2,55482
2549,58609;2,55739
2547,53493;2,55748
2545,48377;2,55956
2543,43262;2,56538
2541,38146;2,57644
2539,33031;2,59563
2537,27915;2,61787
2535,228;2,63712
2533,17684;2,65263
2531,12569;2,66797
2529,07453;2,68355
2527,02338;2,69614
2524,97222;2,70731
2522,92107;2,71693
2520,86991;2,72165
2518,81876;2,7275
2516,7676;2,73514
2514,71644;2,73586
2512,66529;2,73341
2510,61413;2,728
2508,56298;2,71537
2506,51182;2,70039
2504,46067;2,68732
2502,40951;2,67546
2500,35836;2,6629
2498,3072;2,64852
2496,25605;2,63142
2494,20489;2,60849
2492,15374;2,58494
2490,10258;2,56817
2488,05143;2,55156
2486,00027;2,52601
2483,94911;2,49643
2481,89796;2,4733
2479,8468;2,45723
2477,79565;2,4422
2475,74449;2,42527
2473,69334;2,40584
2471,64218;2,38419
2469,59103;2,3624
2467,53987;2,34529
2465,48872;2,33392
2463,43756;2,32328
2461,38641;2,30925
2459,33525;2,29364
2457,2841;2,28096
2455,23294;2,27229
2453,18178;2,26564
2451,13063;2,25879
2449,07947;2,25194
2447,02832;2,2463
2444,97716;2,24078
2442,92601;2,23384
2440,87485;2,22648
2438,8237;2,22005
2436,77254;2,2142
2434,72139;2,20874
2432,67023;2,20331
2430,61908;2,19878
2428,56792;2,19481
2426,51677;2,19011
2424,46561;2,18635
2422,41445;2,18359
2420,3633;2,18005
2418,31214;2,1756
2416,26099;2,17129
2414,20983;2,16707
2412,15868;2,16272
2410,10752;2,16019
2408,05637;2,1594
2406,00521;2,15734
2403,95406;2,15374
2401,9029;2,14998
2399,85175;2,14668
2397,80059;2,14541
2395,74944;2,14593
2393,69828;2,14596
2391,64712;2,1448
2389,59597;2,14275
2387,54481;2,14027
2385,49366;2,13928
2383,4425;2,14007
2381,39135;2,14012
2379,34019;2,13933
2377,28904;2,13979
2375,23788;2,14089
2373,18673;2,14059
2371,13557;2,13898
2369,08442;2,13746
2367,03326;2,13663
2364,9821;2,13706
2362,93095;2,13924
2360,87979;2,1414
2358,82864;2,14135
2356,77748;2,14031
2354,72633;2,13947
2352,67517;2,1386
2350,62402;2,1392
2348,57286;2,1404
2346,52171;2,13903
2344,47055;2,13567
2342,4194;2,1336
2340,36824;2,13332
2338,31709;2,13349
2336,26593;2,1336
2334,21477;2,13431
2332,16362;2,13603
2330,11246;2,13873
2328,06131;2,14175
2326,01015;2,14312
2323,959;2,14322
2321,90784;2,14429
2319,85669;2,14639
2317,80553;2,14786
2315,75438;2,14723
2313,70322;2,1443
2311,65207;2,14078
2309,60091;2,13955
2307,54976;2,14109
2305,4986;2,14319
2303,44744;2,14409
2301,39629;2,14326
2299,34513;2,14145
2297,29398;2,14015
2295,24282;2,13994
2293,19167;2,13951
2291,14051;2,13744
2289,08936;2,13387
2287,0382;2,13019
2284,98705;2,12878
2282,93589;2,13103
2280,88474;2,13478
2278,83358;2,1372
2276,78243;2,13829
2274,73127;2,13886
2272,68011;2,13911
2270,62896;2,13974
2268,5778;2,14124
2266,52665;2,14257
2264,47549;2,14365
2262,42434;2,1461
2260,37318;2,14921
2258,32203;2,151
2256,27087;2,15166
2254,21972;2,15269
2252,16856;2,15553
2250,11741;2,15948
2248,06625;2,1624
2246,0151;2,16389
2243,96394;2,16669
2241,91278;2,17024
2239,86163;2,17329
2237,81047;2,17647
2235,75932;2,18037
2233,70816;2,18348
2231,65701;2,1846
2229,60585;2,18543
2227,5547;2,1886
2225,50354;2,19379
2223,45239;2,19796
2221,40123;2,19905
2219,35008;2,1982
2217,29892;2,1976
2215,24777;2,19762
2213,19661;2,19883
2211,14545;2,20113
2209,0943;2,20279
2207,04314;2,20401
2204,99199;2,20519
2202,94083;2,20533
2200,88968;2,20436
2198,83852;2,20361
2196,78737;2,20469
2194,73621;2,20735
2192,68506;2,20914
2190,6339;2,20967
2188,58275;2,2112
2186,53159;2,2142
2184,48044;2,21656
2182,42928;2,21831
2180,37812;2,22109
2178,32697;2,22374
2176,27581;2,22597
2174,22466;2,22831
2172,1735;2,23075
2170,12235;2,23538
2168,07119;2,24261
2166,02004;2,24857
2163,96888;2,25254
2161,91773;2,25808
2159,86657;2,26673
2157,81542;2,27775
2155,76426;2,28973
2153,71311;2,30121
2151,66195;2,31176
2149,61079;2,32207
2147,55964;2,33061
2145,50848;2,33541
2143,45733;2,33857
2141,40617;2,34229
2139,35502;2,34588
2137,30386;2,34675
2135,25271;2,34323
2133,20155;2,33511
2131,1504;2,32393
2129,09924;2,31279
2127,04809;2,30264
2124,99693;2,2925
2122,94578;2,28181
2120,89462;2,27147
2118,84346;2,26394
2116,79231;2,25912
2114,74115;2,25268
2112,69;2,24449
2110,63884;2,23771
2108,58769;2,233
2106,53653;2,23089
2104,48538;2,22989
2102,43422;2,22769
2100,38307;2,22483
2098,33191;2,22294
2096,28076;2,22368
2094,2296;2,22699
2092,17844;2,22927
2090,12729;2,22894
2088,07613;2,22946
2086,02498;2,23102
2083,97382;2,23083
2081,92267;2,22946
2079,87151;2,23005
2077,82036;2,23225
2075,7692;2,23324
2073,71805;2,23431
2071,66689;2,23707
2069,61574;2,23972
2067,56458;2,24059
2065,51343;2,23954
2063,46227;2,23876
2061,41111;2,2396
2059,35996;2,24186
2057,3088;2,24522
2055,25765;2,24731
2053,20649;2,24635
2051,15534;2,24482
2049,10418;2,2458
2047,05303;2,2486
2045,00187;2,25284
2042,95072;2,25848
2040,89956;2,26238
2038,84841;2,26361
2036,79725;2,26434
2034,7461;2,26488
2032,69494;2,26547
2030,64378;2,2679
2028,59263;2,27144
2026,54147;2,27258
2024,49032;2,27102
2022,43916;2,27199
2020,38801;2,27708
2018,33685;2,28158
2016,2857;2,28269
2014,23454;2,2813
2012,18339;2,2805
2010,13223;2,28291
2008,08108;2,28652
2006,02992;2,2895
2003,97877;2,29278
2001,92761;2,29602
1999,87645;2,29954
1997,8253;2,30328
1995,77414;2,3051
1993,72299;2,30451
1991,67183;2,3033
1989,62068;2,30271
1987,56952;2,30295
1985,51837;2,30608
1983,46721;2,31041
1981,41606;2,3119
1979,3649;2,31251
1977,31375;2,3162
1975,26259;2,3202
1973,21144;2,32177
1971,16028;2,32429
1969,10912;2,33041
1967,05797;2,3393
1965,00681;2,34962
1962,95566;2,35916
1960,9045;2,36379
1958,85335;2,36089
1956,80219;2,35242
1954,75104;2,34257
1952,69988;2,33709
1950,64873;2,3381
1948,59757;2,34212
1946,54642;2,34533
1944,49526;2,34618
1942,44411;2,34708
1940,39295;2,35124
1938,34179;2,35527
1936,29064;2,35722
1934,23948;2,35903
1932,18833;2,36226
1930,13717;2,3659
1928,08602;2,36881
1926,03486;2,37114
1923,98371;2,37206
1921,93255;2,37468
1919,8814;2,37986
1917,83024;2,38484
1915,77909;2,38809
1913,72793;2,38737
1911,67678;2,38668
1909,62562;2,38934
1907,57446;2,39425
1905,52331;2,39937
1903,47215;2,40367
1901,421;2,40712
1899,36984;2,41087
1897,31869;2,41471
1895,26753;2,41812
1893,21638;2,42313
1891,16522;2,42881
1889,11407;2,43311
1887,06291;2,43471
1885,01176;2,43545
1882,9606;2,44106
1880,90945;2,44967
1878,85829;2,45703
1876,80713;2,46598
1874,75598;2,47688
1872,70482;2,48373
1870,65367;2,48384
1868,60251;2,4823
1866,55136;2,4855
1864,5002;2,49222
1862,44905;2,49839
1860,39789;2,50369
1858,34674;2,51079
1856,29558;2,52068
1854,24443;2,53147
1852,19327;2,53997
1850,14212;2,54697
1848,09096;2,55804
1846,0398;2,57058
1843,98865;2,57801
1841,93749;2,58433
1839,88634;2,59234
1837,83518;2,60037
1835,78403;2,60809
1833,73287;2,61824
1831,68172;2,63248
1829,63056;2,65042
1827,57941;2,66815
1825,52825;2,68024
1823,4771;2,69173
1821,42594;2,70518
1819,37478;2,7179
1817,32363;2,73411
1815,27247;2,75783
1813,22132;2,78178
1811,17016;2,80477
1809,11901;2,8407
1807,06785;2,89234
1805,0167;2,94735
1802,96554;2,99666
1800,91439;3,0358
1798,86323;3,06086
1796,81208;3,07251
1794,76092;3,06792
1792,70977;3,03874
1790,65861;2,99954
1788,60745;2,96878
1786,5563;2,9403
1784,50514;2,9121
1782,45399;2,89104
1780,40283;2,88113
1778,35168;2,88005
1776,30052;2,87871
1774,24937;2,86892
1772,19821;2,85052
1770,14706;2,84023
1768,0959;2,84452
1766,04475;2,85275
1763,99359;2,85803
1761,94244;2,86378
1759,89128;2,87143
1757,84012;2,87714
1755,78897;2,88351
1753,73781;2,88802
1751,68666;2,8872
1749,6355;2,89131
1747,58435;2,90355
1745,53319;2,91511
1743,48204;2,92224
1741,43088;2,92866
1739,37973;2,94113
1737,32857;2,95332
1735,27742;2,94969
1733,22626;2,94248
1731,17511;2,94593
1729,12395;2,95645
1727,07279;2,96826
1725,02164;2,97119
1722,97048;2,96896
1720,91933;2,97067
1718,86817;2,97946
1716,81702;2,99329
1714,76586;2,99357
1712,71471;2,98396
1710,66355;2,98226
1708,6124;2,98778
1706,56124;2,99288
1704,51009;2,9923
1702,45893;2,98054
1700,40778;2,97566
1698,35662;2,9903
1696,30546;2,99037
1694,25431;2,99556
1692,20315;3,02437
1690,152;3,05378
1688,10084;3,0647
1686,04969;3,05128
1683,99853;3,04392
1681,94738;3,0727
1679,89622;3,09166
1677,84507;3,07953
1675,79391;3,07434
1673,74276;3,10715
1671,6916;3,1479
1669,64045;3,16482
1667,58929;3,16598
1665,53813;3,15908
1663,48698;3,15168
1661,43582;3,16229
1659,38467;3,18343
1657,33351;3,19669
1655,28236;3,20377
1653,2312;3,21662
1651,18005;3,23876
1649,12889;3,25573
1647,07774;3,25281
1645,02658;3,21869
1642,97543;3,17503
1640,92427;3,1589
1638,87312;3,18563
1636,82196;3,2304
1634,7708;3,25294
1632,71965;3,24244
1630,66849;3,22467
1628,61734;3,22062
1626,56618;3,22732
1624,51503;3,22991
1622,46387;3,23123
1620,41272;3,22937
1618,36156;3,20998
1616,31041;3,19448
1614,25925;3,21065
1612,2081;3,23046
1610,15694;3,22974
1608,10579;3,21916
1606,05463;3,21046
1604,00347;3,20312
1601,95232;3,20162
1599,90116;3,21338
1597,85001;3,23201
1595,79885;3,24064
1593,7477;3,22895
1591,69654;3,2095
1589,64539;3,20396
1587,59423;3,20367
1585,54308;3,18505
1583,49192;3,15331
1581,44077;3,12318
1579,38961;3,09177
1577,33846;3,04726
1575,2873;2,99937
1573,23614;2,96998
1571,18499;2,94204
1569,13383;2,90014
1567,08268;2,85588
1565,03152;2,8225
1562,98037;2,80256
1560,92921;2,77033
1558,87806;2,69976
1556,8269;2,62703
1554,77575;2,57875
1552,72459;2,5441
1550,67344;2,5129
1548,62228;2,48851
1546,57113;2,47311
1544,51997;2,45785
1542,46881;2,43561
1540,41766;2,40572
1538,3665;2,38947
1536,31535;2,38448
1534,26419;2,37037
1532,21304;2,35625
1530,16188;2,34909
1528,11073;2,3414
1526,05957;2,336
1524,00842;2,33145
1521,95726;2,32161
1519,90611;2,31621
1517,85495;2,31357
1515,80379;2,31047
1513,75264;2,31091
1511,70148;2,31287
1509,65033;2,31039
1507,59917;2,29613
1505,54802;2,28681
1503,49686;2,29201
1501,44571;2,2937
1499,39455;2,2866
1497,3434;2,27831
1495,29224;2,27941
1493,24109;2,28573
1491,18993;2,28422
1489,13878;2,27801
1487,08762;2,27473
1485,03646;2,27303
1482,98531;2,26925
1480,93415;2,26371
1478,883;2,25978
1476,83184;2,25829
1474,78069;2,25734
1472,72953;2,25484
1470,67838;2,25755
1468,62722;2,26178
1466,57607;2,25822
1464,52491;2,25367
1462,47376;2,2564
1460,4226;2,25555
1458,37145;2,24327
1456,32029;2,2335
1454,26913;2,23396
1452,21798;2,23174
1450,16682;2,22528
1448,11567;2,21862
1446,06451;2,21422
1444,01336;2,21183
1441,9622;2,21071
1439,91105;2,20967
1437,85989;2,20417
1435,80874;2,19773
1433,75758;2,19363
1431,70643;2,18523
1429,65527;2,17423
1427,60412;2,16561
1425,55296;2,15687
1423,5018;2,14795
1421,45065;2,13622
1419,39949;2,1151
1417,34834;2,09437
1415,29718;2,0797
1413,24603;2,064
1411,19487;2,04702
1409,14372;2,03459
1407,09256;2,03099
1405,04141;2,03973
1402,99025;2,05882
1400,9391;2,07579
1398,88794;2,08711
1396,83679;2,0993
1394,78563;2,11501
1392,73447;2,13489
1390,68332;2,15509
1388,63216;2,17398
1386,58101;2,19428
1384,52985;2,21363
1382,4787;2,22822
1380,42754;2,24163
1378,37639;2,25732
1376,32523;2,27239
1374,27408;2,28364
1372,22292;2,29308
1370,17177;2,30153
1368,12061;2,31042
1366,06946;2,32089
1364,0183;2,33005
1361,96714;2,33819
1359,91599;2,3464
1357,86483;2,35232
1355,81368;2,35508
1353,76252;2,35688
1351,71137;2,36069
1349,66021;2,36593
1347,60906;2,37065
1345,5579;2,37622
1343,50675;2,38409
1341,45559;2,39111
1339,40444;2,39358
1337,35328;2,39285
1335,30213;2,39391
1333,25097;2,39729
1331,19981;2,39916
1329,14866;2,40031
1327,0975;2,40333
1325,04635;2,40871
1322,99519;2,41555
1320,94404;2,42114
1318,89288;2,42455
1316,84173;2,42794
1314,79057;2,43058
1312,73942;2,42873
1310,68826;2,42474
1308,63711;2,42529
1306,58595;2,43069
1304,5348;2,43428
1302,48364;2,43399
1300,43248;2,43442
1298,38133;2,43642
1296,33017;2,43742
1294,27902;2,43942
1292,22786;2,4444
1290,17671;2,44884
1288,12555;2,45178
1286,0744;2,45384
1284,02324;2,45518
1281,97209;2,45863
1279,92093;2,46121
1277,86978;2,4587
1275,81862;2,45405
1273,76747;2,45162
1271,71631;2,45602
1269,66515;2,4682
1267,614;2,47731
1265,56284;2,47342
1263,51169;2,46528
1261,46053;2,46516
1259,40938;2,47095
1257,35822;2,47558
1255,30707;2,47769
1253,25591;2,47766
1251,20476;2,4764
1249,1536;2,47687
1247,10245;2,47967
1245,05129;2,48438
1243,00013;2,48963
1240,94898;2,49253
1238,89782;2,49522
1236,84667;2,49916
1234,79551;2,49985
1232,74436;2,4977
1230,6932;2,49889
1228,64205;2,50312
1226,59089;2,50624
1224,53974;2,50591
1222,48858;2,50298
1220,43743;2,50368
1218,38627;2,50763
1216,33512;2,50834
1214,28396;2,50859
1212,2328;2,5165
1210,18165;2,52925
1208,13049;2,53483
1206,07934;2,53079
1204,02818;2,52494
1201,97703;2,52363
1199,92587;2,5305
1197,87472;2,54373
1195,82356;2,55448
1193,77241;2,56104
1191,72125;2,56621
1189,6701;2,56792
1187,61894;2,5689
1185,56779;2,57512
1183,51663;2,58454
1181,46547;2,58729
1179,41432;2,57989
1177,36316;2,57622
1175,31201;2,58424
1173,26085;2,59545
1171,2097;2,60429
1169,15854;2,60978
1167,10739;2,61061
1165,05623;2,60849
1163,00508;2,60869
1160,95392;2,6134
1158,90277;2,61546
1156,85161;2,61155
1154,80046;2,60271
1152,7493;2,59258
1150,69814;2,59186
1148,64699;2,59804
1146,59583;2,60102
1144,54468;2,60264
1142,49352;2,60145
1140,44237;2,59584
1138,39121;2,59446
1136,34006;2,60208
1134,2889;2,61121
1132,23775;2,61288
1130,18659;2,60976
1128,13544;2,60499
1126,08428;2,60253
1124,03313;2,60622
1121,98197;2,6109
1119,93081;2,61311
1117,87966;2,61549
1115,8285;2,61845
1113,77735;2,61746
1111,72619;2,61778
1109,67504;2,62647
1107,62388;2,63546
1105,57273;2,63894
1103,52157;2,63608
1101,47042;2,62276
1099,41926;2,60396
1097,36811;2,59285
1095,31695;2,59277
1093,2658;2,59484
1091,21464;2,59246
1089,16348;2,58485
1087,11233;2,58391
1085,06117;2,59555
1083,01002;2,59796
1080,95886;2,58267
1078,90771;2,57004
1076,85655;2,56773
1074,8054;2,5667
1072,75424;2,564
1070,70309;2,56772
1068,65193;2,57536
1066,60078;2,57406
1064,54962;2,56966
1062,49847;2,57083
1060,44731;2,57152
1058,39615;2,56916
1056,345;2,56792
1054,29384;2,57392
1052,24269;2,5819
1050,19153;2,58076
1048,14038;2,58088
1046,08922;2,5873
1044,03807;2,58909
1041,98691;2,58991
1039,93576;2,58997
1037,8846;2,58364
1035,83345;2,57626
1033,78229;2,5709
1031,73114;2,57406
1029,67998;2,58439
1027,62882;2,58721
1025,57767;2,58219
1023,52651;2,58146
1021,47536;2,59102
1019,4242;2,59983
1017,37305;2,59904
1015,32189;2,59924
1013,27074;2,60376
1011,21958;2,60278
1009,16843;2,59336
1007,11727;2,5838
1005,06612;2,58345
1003,01496;2,58874
1000,96381;2,58784
998,91265;2,58102
996,86149;2,57502
994,81034;2,56838
992,75918;2,5613
990,70803;2,55926
988,65687;2,56285
986,60572;2,56959
984,55456;2,57547
982,50341;2,57502
980,45225;2,56652
978,4011;2,55934
976,34994;2,56429
974,29879;2,57688
972,24763;2,58541
970,19647;2,57996
968,14532;2,56708
966,09416;2,56439
964,04301;2,57332
961,99185;2,58573
959,9407;2,59534
957,88954;2,59752
955,83839;2,59505
953,78723;2,59791
951,73608;2,607
949,68492;2,6162
947,63377;2,61951
945,58261;2,61666
943,53146;2,61863
941,4803;2,62954
939,42914;2,64214
937,37799;2,6484
935,32683;2,64561
933,27568;2,63726
931,22452;2,63182
929,17337;2,63324
927,12221;2,63944
925,07106;2,64897
923,0199;2,65523
920,96875;2,65515
918,91759;2,65233
916,86644;2,64453
914,81528;2,63917
912,76413;2,6448
910,71297;2,64825
908,66181;2,63664
906,61066;2,62271
904,5595;2,62141
902,50835;2,62681
900,45719;2,6277
898,40604;2,624
896,35488;2,61956
894,30373;2,61587
892,25257;2,59872
890,20142;2,56064
888,15026;2,53818
886,09911;2,56615
884,04795;2,62943
881,9968;2,66328
879,94564;2,61278
877,89448;2,50015
875,84333;2,38159
873,79217;2,28735
871,74102;2,2435
869,68986;2,27176
867,63871;2,34983
865,58755;2,41768
863,5364;2,45025
861,48524;2,46444
859,43409;2,47512
857,38293;2,48893
855,33178;2,50504
853,28062;2,52427
851,22947;2,55284
849,17831;2,58657
847,12715;2,59819
845,076;2,57223
843,02484;2,53497
840,97369;2,51616
838,92253;2,51918
836,87138;2,53095
834,82022;2,53509
832,76907;2,53194
830,71791;2,5374
828,66676;2,54974
826,6156;2,55683
824,56445;2,55967
822,51329;2,56935
820,46214;2,58953
818,41098;2,60281
816,35982;2,60148
814,30867;2,60899
812,25751;2,63464
810,20636;2,64863
808,1552;2,63871
806,10405;2,62694
804,05289;2,62896
802,00174;2,64684
799,95058;2,66104
797,89943;2,66046
795,84827;2,66602
793,79712;2,67983
791,74596;2,66958
789,69481;2,64211
787,64365;2,63485
785,59249;2,64627
783,54134;2,65296
781,49018;2,64386
779,43903;2,63525
777,38787;2,63465
775,33672;2,63676
773,28556;2,64226
771,23441;2,64493
769,18325;2,63956
767,1321;2,6335
765,08094;2,63503
763,02979;2,63685
760,97863;2,63038
758,92748;2,62127
756,87632;2,61752
754,82516;2,61486
752,77401;2,61297
750,72285;2,62082
748,6717;2,62849
746,62054;2,627
744,56939;2,63264
742,51823;2,6494
740,46708;2,65981
738,41592;2,66117
736,36477;2,66439
734,31361;2,67013
732,26246;2,683
730,2113;2,70768
728,16015;2,72765
726,10899;2,7393
724,05783;2,76458
722,00668;2,79219
719,95552;2,80694
717,90437;2,82147
715,85321;2,82266
713,80206;2,78141
711,7509;2,7252
709,69975;2,69421
707,64859;2,70128
705,59744;2,7245
703,54628;2,73117
701,49513;2,72585
699,44397;2,72427
697,39281;2,71206
695,34166;2,68292
693,2905;2,66309
691,23935;2,66752
689,18819;2,68684
687,13704;2,70999
685,08588;2,72546
683,03473;2,72658
680,98357;2,71983
678,93242;2,70719
676,88126;2,69376
674,83011;2,6923
672,77895;2,70225
670,7278;2,71313
668,67664;2,72204
666,62548;2,71682
664,57433;2,69943
662,52317;2,69727
660,47202;2,71765
658,42086;2,73845
656,36971;2,74325
654,31855;2,74182
652,2674;2,74443
650,21624;2,74043
648,16509;2,7291
646,11393;2,73734
644,06278;2,75866
642,01162;2,75793
639,96047;2,74291
637,90931;2,75213
635,85815;2,78595
633,807;2,80572
631,75584;2,78985
629,70469;2,75125
627,65353;2,71619
625,60238;2,70658
623,55122;2,71898
621,50007;2,73142
619,44891;2,73114
617,39776;2,73164
615,3466;2,7473
613,29545;2,76412
611,24429;2,77934
609,19314;2,80297
607,14198;2,80724
605,09082;2,77955
603,03967;2,7562
600,98851;2,76457
598,93736;2,81234
596,8862;2,88523
594,83505;2,90321
592,78389;2,85147
590,73274;2,81617
588,68158;2,80094
586,63043;2,75622
584,57927;2,72971
582,52812;2,76735
580,47696;2,81337
578,42581;2,82645
576,37465;2,82292
574,32349;2,84062
572,27234;2,85489
570,22118;2,82296
568,17003;2,78481
566,11887;2,79871
564,06772;2,82862
562,01656;2,81663
559,96541;2,78376
557,91425;2,77544
555,8631;2,80256
553,81194;2,81835
551,76079;2,79305
549,70963;2,77089
547,65848;2,78007
545,60732;2,79841
543,55616;2,80002
541,50501;2,7591
539,45385;2,70777
537,4027;2,72206
535,35154;2,78016
533,30039;2,79203
531,24923;2,75094
529,19808;2,71176
527,14692;2,7042
525,09577;2,71105
523,04461;2,71478
520,99346;2,74191
518,9423;2,80292
516,89115;2,85653
514,83999;2,87495
512,78883;2,88873
510,73768;2,94903
508,68652;3,05187
506,63537;3,02741
504,58421;2,86565
502,53306;2,7974
500,4819;2,85857
498,43075;2,91868
496,37959;2,9092
494,32844;2,90876
492,27728;2,97638
490,22613;3,05545
488,17497;3,05764
486,12382;3,04624
484,07266;3,01028
482,0215;2,91902
479,97035;2,84647
477,91919;2,80477
475,86804;2,74433
473,81688;2,69697
471,76573;2,75091
469,71457;2,84089
467,66342;2,82393
465,61226;2,74627
463,56111;2,68719
461,50995;2,65368
459,4588;2,68081
457,40764;2,79752
455,35649;2,91866
453,30533;2,9137
451,25417;2,88183
449,20302;2,99415
447,15186;3,1201
445,10071;3,07394
443,04955;2,93042
440,9984;2,79149
438,94724;2,7759
436,89609;2,87104
434,84493;2,89966
432,79378;2,95246
430,74262;2,95302
428,69147;2,89354
426,64031;2,81762
424,58916;2,86673
422,538;2,92124
420,48684;2,87827
418,43569;2,95345
416,38453;3,04539
414,33338;2,95732
412,28222;2,82071
410,23107;2,80942
408,17991;2,86486
406,12876;2,80946
404,0776;2,66486
402,02645;2,58001
399,97529;2,58581
