3997,70175;1,80808
3995,6506;1,81054
3993,59944;1,81355
3991,54829;1,8153
3989,49713;1,81585
3987,44598;1,81655
3985,39482;1,818
3983,34367;1,81985
3981,29251;1,82185
3979,24136;1,82477
3977,1902;1,82766
3975,13905;1,82725
3973,08789;1,82403
3971,03673;1,82235
3968,98558;1,82422
3966,93442;1,82773
3964,88327;1,83102
3962,83211;1,83553
3960,78096;1,84191
3958,7298;1,84731
3956,67865;1,84932
3954,62749;1,84914
3952,57634;1,85071
3950,52518;1,85503
3948,47403;1,85824
3946,42287;1,85904
3944,37172;1,86032
3942,32056;1,86202
3940,2694;1,86184
3938,21825;1,86015
3936,16709;1,85837
3934,11594;1,85621
3932,06478;1,85336
3930,01363;1,85023
3927,96247;1,84696
3925,91132;1,84314
3923,86016;1,83793
3921,80901;1,83201
3919,75785;1,82704
3917,7067;1,82224
3915,65554;1,81682
3913,60439;1,81249
3911,55323;1,80942
3909,50207;1,80691
3907,45092;1,80545
3905,39976;1,80555
3903,34861;1,80671
3901,29745;1,80638
3899,2463;1,80265
3897,19514;1,79791
3895,14399;1,79565
3893,09283;1,79569
3891,04168;1,79592
3888,99052;1,79654
3886,93937;1,7973
3884,88821;1,79777
3882,83706;1,79885
3880,7859;1,79848
3878,73474;1,79614
3876,68359;1,79534
3874,63243;1,79637
3872,58128;1,79703
3870,53012;1,79556
3868,47897;1,79408
3866,42781;1,79468
3864,37666;1,79454
3862,3255;1,79137
3860,27435;1,78671
3858,22319;1,78289
3856,17204;1,78209
3854,12088;1,78627
3852,06973;1,78975
3850,01857;1,78715
3847,96741;1,78279
3845,91626;1,78045
3843,8651;1,78063
3841,81395;1,78301
3839,76279;1,78546
3837,71164;1,78516
3835,66048;1,78184
3833,60933;1,77678
3831,55817;1,77234
3829,50702;1,77122
3827,45586;1,77226
3825,40471;1,77409
3823,35355;1,77804
3821,3024;1,78375
3819,25124;1,78789
3817,20008;1,78721
3815,14893;1,7826
3813,09777;1,77874
3811,04662;1,77762
3808,99546;1,77853
3806,94431;1,78092
3804,89315;1,78533
3802,842;1,78926
3800,79084;1,79024
3798,73969;1,79089
3796,68853;1,79147
3794,63738;1,79047
3792,58622;1,78921
3790,53506;1,7891
3788,48391;1,79038
3786,43275;1,79269
3784,3816;1,79475
3782,33044;1,7967
3780,27929;1,79955
3778,22813;1,80232
3776,17698;1,80388
3774,12582;1,80549
3772,07467;1,808
3770,02351;1,81096
3767,97236;1,8147
3765,9212;1,81773
3763,87005;1,81886
3761,81889;1,8206
3759,76773;1,82486
3757,71658;1,82929
3755,66542;1,83202
3753,61427;1,83568
3751,56311;1,84199
3749,51196;1,84832
3747,4608;1,85431
3745,40965;1,85962
3743,35849;1,86495
3741,30734;1,87223
3739,25618;1,88113
3737,20503;1,89278
3735,15387;1,90523
3733,10272;1,91234
3731,05156;1,91641
3729,0004;1,92459
3726,94925;1,9384
3724,89809;1,95488
3722,84694;1,97069
3720,79578;1,98604
3718,74463;2,00237
3716,69347;2,02056
3714,64232;2,04405
3712,59116;2,07824
3710,54001;2,12051
3708,48885;2,16133
3706,4377;2,20287
3704,38654;2,25603
3702,33539;2,32573
3700,28423;2,39761
3698,23307;2,44708
3696,18192;2,46631
3694,13076;2,4626
3692,07961;2,44135
3690,02845;2,40492
3687,9773;2,3655
3685,92614;2,33841
3683,87499;2,32536
3681,82383;2,32683
3679,77268;2,34
3677,72152;2,35477
3675,67037;2,36958
3673,61921;2,39508
3671,56806;2,43125
3669,5169;2,46049
3667,46574;2,46849
3665,41459;2,46315
3663,36343;2,45547
3661,31228;2,4522
3659,26112;2,46055
3657,20997;2,48165
3655,15881;2,50921
3653,10766;2,53858
3651,0565;2,57059
3649,00535;2,59084
3646,95419;2,57861
3644,90304;2,55787
3642,85188;2,55156
3640,80073;2,55204
3638,74957;2,54776
3636,69841;2,54336
3634,64726;2,54462
3632,5961;2,55058
3630,54495;2,56136
3628,49379;2,57851
3626,44264;2,60129
3624,39148;2,62908
3622,34033;2,66221
3620,28917;2,69045
3618,23802;2,68915
3616,18686;2,65944
3614,13571;2,62684
3612,08455;2,6035
3610,0334;2,59488
3607,98224;2,60042
3605,93108;2,60675
3603,87993;2,60382
3601,82877;2,60164
3599,77762;2,6126
3597,72646;2,62861
3595,67531;2,63355
3593,62415;2,62202
3591,573;2,60664
3589,52184;2,60721
3587,47069;2,62371
3585,41953;2,64022
3583,36838;2,64972
3581,31722;2,65
3579,26607;2,64714
3577,21491;2,65327
3575,16375;2,66686
3573,1126;2,67569
3571,06144;2,6806
3569,01029;2,69419
3566,95913;2,70967
3564,90798;2,70745
3562,85682;2,69518
3560,80567;2,69059
3558,75451;2,69751
3556,70336;2,71208
3554,6522;2,7243
3552,60105;2,72393
3550,54989;2,71549
3548,49874;2,70953
3546,44758;2,70416
3544,39642;2,69337
3542,34527;2,68356
3540,29411;2,68394
3538,24296;2,69442
3536,1918;2,71063
3534,14065;2,72592
3532,08949;2,73195
3530,03834;2,73151
3527,98718;2,73474
3525,93603;2,74073
3523,88487;2,7445
3521,83372;2,74661
3519,78256;2,75056
3517,73141;2,7561
3515,68025;2,75482
3513,62909;2,74631
3511,57794;2,74413
3509,52678;2,74833
3507,47563;2,7435
3505,42447;2,73375
3503,37332;2,73239
3501,32216;2,73549
3499,27101;2,73726
3497,21985;2,74152
3495,1687;2,75459
3493,11754;2,77301
3491,06639;2,77701
3489,01523;2,75981
3486,96407;2,7447
3484,91292;2,75026
3482,86176;2,76788
3480,81061;2,77515
3478,75945;2,76772
3476,7083;2,76402
3474,65714;2,77066
3472,60599;2,77345
3470,55483;2,76718
3468,50368;2,76467
3466,45252;2,76791
3464,40137;2,76816
3462,35021;2,7637
3460,29906;2,75789
3458,2479;2,75883
3456,19674;2,76875
3454,14559;2,77466
3452,09443;2,76953
3450,04328;2,7583
3447,99212;2,75073
3445,94097;2,7587
3443,88981;2,77424
3441,83866;2,77326
3439,7875;2,75908
3437,73635;2,75128
3435,68519;2,7542
3433,63404;2,76015
3431,58288;2,76068
3429,53173;2,75847
3427,48057;2,76259
3425,42941;2,76864
3423,37826;2,76271
3421,3271;2,74908
3419,27595;2,74713
3417,22479;2,7609
3415,17364;2,77448
3413,12248;2,77514
3411,07133;2,76984
3409,02017;2,76899
3406,96902;2,76715
3404,91786;2,76484
3402,86671;2,76797
3400,81555;2,76818
3398,7644;2,76154
3396,71324;2,74987
3394,66208;2,74283
3392,61093;2,76133
3390,55977;2,79636
3388,50862;2,804
3386,45746;2,77709
3384,40631;2,75506
3382,35515;2,75317
3380,304;2,75331
3378,25284;2,75429
3376,20169;2,76508
3374,15053;2,77298
3372,09938;2,7689
3370,04822;2,76069
3367,99707;2,75554
3365,94591;2,75747
3363,89475;2,7643
3361,8436;2,76463
3359,79244;2,75382
3357,74129;2,74942
3355,69013;2,76198
3353,63898;2,77262
3351,58782;2,76114
3349,53667;2,74471
3347,48551;2,75043
3345,43436;2,7651
3343,3832;2,76292
3341,33205;2,74756
3339,28089;2,73277
3337,22974;2,72717
3335,17858;2,73373
3333,12742;2,74437
3331,07627;2,74827
3329,02511;2,74286
3326,97396;2,7359
3324,9228;2,73669
3322,87165;2,74301
3320,82049;2,7468
3318,76934;2,74917
3316,71818;2,75245
3314,66703;2,74736
3312,61587;2,73408
3310,56472;2,73035
3308,51356;2,74001
3306,46241;2,74654
3304,41125;2,74177
3302,36009;2,73408
3300,30894;2,72829
3298,25778;2,72421
3296,20663;2,72277
3294,15547;2,71907
3292,10432;2,71681
3290,05316;2,72758
3288,00201;2,74304
3285,95085;2,74053
3283,8997;2,7233
3281,84854;2,71658
3279,79739;2,72414
3277,74623;2,72645
3275,69508;2,71756
3273,64392;2,71559
3271,59276;2,72653
3269,54161;2,73253
3267,49045;2,72459
3265,4393;2,72128
3263,38814;2,72792
3261,33699;2,72498
3259,28583;2,71702
3257,23468;2,72181
3255,18352;2,72779
3253,13237;2,72005
3251,08121;2,71423
3249,03006;2,72363
3246,9789;2,72908
3244,92775;2,71536
3242,87659;2,70643
3240,82543;2,71486
3238,77428;2,72223
3236,72312;2,71918
3234,67197;2,70672
3232,62081;2,69429
3230,56966;2,69459
3228,5185;2,70326
3226,46735;2,70534
3224,41619;2,70068
3222,36504;2,70224
3220,31388;2,70712
3218,26273;2,70391
3216,21157;2,69785
3214,16041;2,69407
3212,10926;2,68994
3210,0581;2,68718
3208,00695;2,68584
3205,95579;2,68691
3203,90464;2,69318
3201,85348;2,69771
3199,80233;2,69105
3197,75117;2,67901
3195,70002;2,67731
3193,64886;2,68889
3191,59771;2,70123
3189,54655;2,70187
3187,4954;2,69265
3185,44424;2,68455
3183,39308;2,68663
3181,34193;2,70008
3179,29077;2,70902
3177,23962;2,70068
3175,18846;2,68692
3173,13731;2,68266
3171,08615;2,68677
3169,035;2,6878
3166,98384;2,68583
3164,93269;2,6918
3162,88153;2,69759
3160,83038;2,68895
3158,77922;2,67868
3156,72807;2,68409
3154,67691;2,69967
3152,62575;2,70836
3150,5746;2,70069
3148,52344;2,68612
3146,47229;2,67958
3144,42113;2,67769
3142,36998;2,67563
3140,31882;2,67598
3138,26767;2,67638
3136,21651;2,67833
3134,16536;2,68372
3132,1142;2,68839
3130,06305;2,68521
3128,01189;2,67461
3125,96074;2,67064
3123,90958;2,67745
3121,85842;2,6805
3119,80727;2,67683
3117,75611;2,67566
3115,70496;2,67684
3113,6538;2,67535
3111,60265;2,67381
3109,55149;2,67541
3107,50034;2,6803
3105,44918;2,68619
3103,39803;2,68593
3101,34687;2,68168
3099,29572;2,67468
3097,24456;2,66099
3095,19341;2,65391
3093,14225;2,66018
3091,09109;2,665
3089,03994;2,66116
3086,98878;2,65576
3084,93763;2,65334
3082,88647;2,65712
3080,83532;2,66359
3078,78416;2,66086
3076,73301;2,65524
3074,68185;2,65571
3072,6307;2,65661
3070,57954;2,65934
3068,52839;2,66387
3066,47723;2,65984
3064,42608;2,64693
3062,37492;2,63764
3060,32376;2,63693
3058,27261;2,63691
3056,22145;2,63397
3054,1703;2,63016
3052,11914;2,62938
3050,06799;2,63083
3048,01683;2,62876
3045,96568;2,62864
3043,91452;2,63664
3041,86337;2,6398
3039,81221;2,62835
3037,76106;2,62064
3035,7099;2,62938
3033,65875;2,64149
3031,60759;2,64446
3029,55643;2,63936
3027,50528;2,6326
3025,45412;2,62492
3023,40297;2,61698
3021,35181;2,61346
3019,30066;2,61379
3017,2495;2,61518
3015,19835;2,61513
3013,14719;2,61386
3011,09604;2,61432
3009,04488;2,61471
3006,99373;2,61603
3004,94257;2,62326
3002,89142;2,63092
3000,84026;2,62991
2998,7891;2,62467
2996,73795;2,62673
2994,68679;2,6359
2992,63564;2,64105
2990,58448;2,63935
2988,53333;2,64115
2986,48217;2,64988
2984,43102;2,65522
2982,37986;2,65421
2980,32871;2,65169
2978,27755;2,64998
2976,2264;2,65087
2974,17524;2,65353
2972,12409;2,65987
2970,07293;2,6674
2968,02177;2,665
2965,97062;2,65482
2963,91946;2,64751
2961,86831;2,64593
2959,81715;2,64809
2957,766;2,64849
2955,71484;2,64694
2953,66369;2,64619
2951,61253;2,64397
2949,56138;2,64139
2947,51022;2,64359
2945,45907;2,64776
2943,40791;2,6487
2941,35675;2,64945
2939,3056;2,65124
2937,25444;2,64977
2935,20329;2,64594
2933,15213;2,64576
2931,10098;2,64532
2929,04982;2,64296
2926,99867;2,6461
2924,94751;2,64767
2922,89636;2,64011
2920,8452;2,62821
2918,79405;2,6192
2916,74289;2,61896
2914,69174;2,61899
2912,64058;2,60966
2910,58942;2,60092
2908,53827;2,60055
2906,48711;2,60407
2904,43596;2,60842
2902,3848;2,61164
2900,33365;2,61184
2898,28249;2,61049
2896,23134;2,6084
2894,18018;2,60692
2892,12903;2,60611
2890,07787;2,60546
2888,02672;2,606
2885,97556;2,60693
2883,92441;2,61014
2881,87325;2,61533
2879,82209;2,61984
2877,77094;2,62577
2875,71978;2,63006
2873,66863;2,62544
2871,61747;2,61405
2869,56632;2,6092
2867,51516;2,61389
2865,46401;2,61362
2863,41285;2,6049
2861,3617;2,59835
2859,31054;2,59744
2857,25939;2,59393
2855,20823;2,58746
2853,15708;2,58452
2851,10592;2,58099
2849,05476;2,57452
2847,00361;2,56478
2844,95245;2,55196
2842,9013;2,54397
2840,85014;2,54252
2838,79899;2,53977
2836,74783;2,53308
2834,69668;2,52557
2832,64552;2,52026
2830,59437;2,51731
2828,54321;2,51302
2826,49206;2,50925
2824,4409;2,50834
2822,38975;2,50472
2820,33859;2,49874
2818,28743;2,49558
2816,23628;2,49253
2814,18512;2,48696
2812,13397;2,48164
2810,08281;2,47775
2808,03166;2,47375
2805,9805;2,47127
2803,92935;2,47397
2801,87819;2,47375
2799,82704;2,46268
2797,77588;2,45135
2795,72473;2,44959
2793,67357;2,45372
2791,62242;2,45311
2789,57126;2,44554
2787,5201;2,4401
2785,46895;2,43946
2783,41779;2,43891
2781,36664;2,43607
2779,31548;2,43343
2777,26433;2,43285
2775,21317;2,43018
2773,16202;2,42468
2771,11086;2,42102
2769,05971;2,42031
2767,00855;2,41929
2764,9574;2,41579
2762,90624;2,41373
2760,85509;2,41492
2758,80393;2,41411
2756,75277;2,4095
2754,70162;2,40388
2752,65046;2,40019
2750,59931;2,39956
2748,54815;2,39746
2746,497;2,3943
2744,44584;2,39555
2742,39469;2,3982
2740,34353;2,39745
2738,29238;2,39447
2736,24122;2,39189
2734,19007;2,39032
2732,13891;2,38822
2730,08776;2,38524
2728,0366;2,38195
2725,98544;2,3792
2723,93429;2,37957
2721,88313;2,38069
2719,83198;2,3783
2717,78082;2,37439
2715,72967;2,37123
2713,67851;2,36896
2711,62736;2,36849
2709,5762;2,36833
2707,52505;2,36699
2705,47389;2,36898
2703,42274;2,37259
2701,37158;2,36896
2699,32043;2,36009
2697,26927;2,35692
2695,21811;2,35978
2693,16696;2,35975
2691,1158;2,35621
2689,06465;2,35261
2687,01349;2,34886
2684,96234;2,34495
2682,91118;2,34265
2680,86003;2,34479
2678,80887;2,35139
2676,75772;2,35685
2674,70656;2,35694
2672,65541;2,35456
2670,60425;2,35259
2668,55309;2,35147
2666,50194;2,35024
2664,45078;2,34774
2662,39963;2,34535
2660,34847;2,34563
2658,29732;2,34836
2656,24616;2,34944
2654,19501;2,34853
2652,14385;2,34923
2650,0927;2,35059
2648,04154;2,35055
2645,99039;2,35159
2643,93923;2,35453
2641,88808;2,35816
2639,83692;2,36413
2637,78576;2,37273
2635,73461;2,38071
2633,68345;2,38729
2631,6323;2,39213
2629,58114;2,39489
2627,52999;2,40049
2625,47883;2,40918
2623,42768;2,41555
2621,37652;2,42151
2619,32537;2,42976
2617,27421;2,43541
2615,22306;2,43763
2613,1719;2,4405
2611,12075;2,44479
2609,06959;2,45192
2607,01843;2,45988
2604,96728;2,46396
2602,91612;2,46577
2600,86497;2,46611
2598,81381;2,46687
2596,76266;2,47129
2594,7115;2,47543
2592,66035;2,47518
2590,60919;2,47278
2588,55804;2,47288
2586,50688;2,47567
2584,45573;2,47737
2582,40457;2,47719
2580,35342;2,47591
2578,30226;2,47386
2576,2511;2,47275
2574,19995;2,47287
2572,14879;2,47256
2570,09764;2,4748
2568,04648;2,47865
2565,99533;2,47726
2563,94417;2,47476
2561,89302;2,47611
2559,84186;2,47685
2557,79071;2,47868
2555,73955;2,48636
2553,6884;2,49428
2551,63724;2,49395
2549,58609;2,48793
2547,53493;2,48545
2545,48377;2,4894
2543,43262;2,4956
2541,38146;2,50008
2539,33031;2,50464
2537,27915;2,51299
2535,228;2,52253
2533,17684;2,53006
2531,12569;2,53931
2529,07453;2,5523
2527,02338;2,5626
2524,97222;2,56712
2522,92107;2,56902
2520,86991;2,57126
2518,81876;2,5754
2516,7676;2,57534
2514,71644;2,56927
2512,66529;2,56731
2510,61413;2,57236
2508,56298;2,57609
2506,51182;2,57032
2504,46067;2,55534
2502,40951;2,53929
2500,35836;2,53021
2498,3072;2,52826
2496,25605;2,52657
2494,20489;2,5189
2492,15374;2,50519
2490,10258;2,49074
2488,05143;2,47904
2486,00027;2,4673
2483,94911;2,45481
2481,89796;2,44325
2479,8468;2,42949
2477,79565;2,41518
2475,74449;2,40428
2473,69334;2,39516
2471,64218;2,38647
2469,59103;2,37541
2467,53987;2,36157
2465,48872;2,35069
2463,43756;2,34471
2461,38641;2,34065
2459,33525;2,33556
2457,2841;2,32758
2455,23294;2,31842
2453,18178;2,31135
2451,13063;2,30566
2449,07947;2,29981
2447,02832;2,29553
2444,97716;2,29295
2442,92601;2,29017
2440,87485;2,28731
2438,8237;2,28352
2436,77254;2,279
2434,72139;2,27691
2432,67023;2,2752
2430,61908;2,27076
2428,56792;2,26635
2426,51677;2,26377
2424,46561;2,26138
2422,41445;2,25837
2420,3633;2,25522
2418,31214;2,25186
2416,26099;2,24898
2414,20983;2,24757
2412,15868;2,24724
2410,10752;2,24704
2408,05637;2,24491
2406,00521;2,24067
2403,95406;2,23669
2401,9029;2,23388
2399,85175;2,23347
2397,80059;2,23506
2395,74944;2,23646
2393,69828;2,23579
2391,64712;2,23294
2389,59597;2,22984
2387,54481;2,22813
2385,49366;2,22821
2383,4425;2,2305
2381,39135;2,23367
2379,34019;2,23487
2377,28904;2,23329
2375,23788;2,23114
2373,18673;2,23228
2371,13557;2,23659
2369,08442;2,23745
2367,03326;2,23037
2364,9821;2,2204
2362,93095;2,22052
2360,87979;2,23555
2358,82864;2,24993
2356,77748;2,24921
2354,72633;2,23959
2352,67517;2,23373
2350,62402;2,23422
2348,57286;2,23394
2346,52171;2,22831
2344,47055;2,22303
2342,4194;2,2228
2340,36824;2,22315
2338,31709;2,22385
2336,26593;2,22644
2334,21477;2,2288
2332,16362;2,23147
2330,11246;2,23522
2328,06131;2,23785
2326,01015;2,23795
2323,959;2,23555
2321,90784;2,23121
2319,85669;2,22812
2317,80553;2,22857
2315,75438;2,23048
2313,70322;2,2319
2311,65207;2,23346
2309,60091;2,23458
2307,54976;2,23331
2305,4986;2,22974
2303,44744;2,22585
2301,39629;2,22324
2299,34513;2,22186
2297,29398;2,22147
2295,24282;2,22293
2293,19167;2,22496
2291,14051;2,22429
2289,08936;2,22198
2287,0382;2,22179
2284,98705;2,22348
2282,93589;2,22487
2280,88474;2,22528
2278,83358;2,22489
2276,78243;2,2251
2274,73127;2,22624
2272,68011;2,22655
2270,62896;2,22615
2268,5778;2,22638
2266,52665;2,22686
2264,47549;2,22707
2262,42434;2,22713
2260,37318;2,22772
2258,32203;2,22967
2256,27087;2,23266
2254,21972;2,23594
2252,16856;2,23856
2250,11741;2,23923
2248,06625;2,23853
2246,0151;2,23845
2243,96394;2,24077
2241,91278;2,24435
2239,86163;2,24719
2237,81047;2,24944
2235,75932;2,2517
2233,70816;2,25385
2231,65701;2,25593
2229,60585;2,25907
2227,5547;2,26399
2225,50354;2,26836
2223,45239;2,26909
2221,40123;2,26711
2219,35008;2,26732
2217,29892;2,27007
2215,24777;2,27115
2213,19661;2,27078
2211,14545;2,27091
2209,0943;2,27107
2207,04314;2,27037
2204,99199;2,26931
2202,94083;2,27136
2200,88968;2,27628
2198,83852;2,27954
2196,78737;2,28086
2194,73621;2,28066
2192,68506;2,27937
2190,6339;2,27873
2188,58275;2,28046
2186,53159;2,28498
2184,48044;2,28755
2182,42928;2,28645
2180,37812;2,28522
2178,32697;2,28412
2176,27581;2,28293
2174,22466;2,28464
2172,1735;2,2901
2170,12235;2,29482
2168,07119;2,2969
2166,02004;2,30135
2163,96888;2,30938
2161,91773;2,31572
2159,86657;2,32097
2157,81542;2,32758
2155,76426;2,33272
2153,71311;2,33834
2151,66195;2,34754
2149,61079;2,35521
2147,55964;2,35878
2145,50848;2,36205
2143,45733;2,36596
2141,40617;2,37004
2139,35502;2,37377
2137,30386;2,37354
2135,25271;2,36887
2133,20155;2,36474
2131,1504;2,3624
2129,09924;2,35835
2127,04809;2,35153
2124,99693;2,34295
2122,94578;2,3359
2120,89462;2,33156
2118,84346;2,32597
2116,79231;2,3201
2114,74115;2,31719
2112,69;2,31435
2110,63884;2,30902
2108,58769;2,30482
2106,53653;2,30439
2104,48538;2,30593
2102,43422;2,3073
2100,38307;2,30586
2098,33191;2,3026
2096,28076;2,3017
2094,2296;2,30295
2092,17844;2,30374
2090,12729;2,30347
2088,07613;2,3036
2086,02498;2,30415
2083,97382;2,30369
2081,92267;2,30404
2079,87151;2,30638
2077,82036;2,30844
2075,7692;2,3093
2073,71805;2,31028
2071,66689;2,31137
2069,61574;2,31189
2067,56458;2,31333
2065,51343;2,31593
2063,46227;2,31858
2061,41111;2,32018
2059,35996;2,31998
2057,3088;2,3194
2055,25765;2,31953
2053,20649;2,3206
2051,15534;2,32327
2049,10418;2,32573
2047,05303;2,32527
2045,00187;2,32266
2042,95072;2,32094
2040,89956;2,32185
2038,84841;2,32471
2036,79725;2,32899
2034,7461;2,3347
2032,69494;2,33968
2030,64378;2,34143
2028,59263;2,34089
2026,54147;2,34024
2024,49032;2,33967
2022,43916;2,3399
2020,38801;2,34252
2018,33685;2,34594
2016,2857;2,34755
2014,23454;2,34809
2012,18339;2,34866
2010,13223;2,35102
2008,08108;2,35508
2006,02992;2,35504
2003,97877;2,35042
2001,92761;2,34971
1999,87645;2,35509
1997,8253;2,35955
1995,77414;2,36048
1993,72299;2,36108
1991,67183;2,36392
1989,62068;2,36692
1987,56952;2,36557
1985,51837;2,36198
1983,46721;2,36102
1981,41606;2,36457
1979,3649;2,37004
1977,31375;2,37158
1975,26259;2,37039
1973,21144;2,37278
1971,16028;2,37739
1969,10912;2,38044
1967,05797;2,38508
1965,00681;2,39314
1962,95566;2,40106
1960,9045;2,40617
1958,85335;2,40669
1956,80219;2,40217
1954,75104;2,39585
1952,69988;2,39253
1950,64873;2,39341
1948,59757;2,39637
1946,54642;2,40004
1944,49526;2,40354
1942,44411;2,4056
1940,39295;2,40557
1938,34179;2,40312
1936,29064;2,40066
1934,23948;2,40079
1932,18833;2,40162
1930,13717;2,40277
1928,08602;2,40599
1926,03486;2,40963
1923,98371;2,41154
1921,93255;2,4137
1919,8814;2,41822
1917,83024;2,42137
1915,77909;2,42145
1913,72793;2,42339
1911,67678;2,42907
1909,62562;2,43544
1907,57446;2,43982
1905,52331;2,441
1903,47215;2,43953
1901,421;2,4388
1899,36984;2,44135
1897,31869;2,44549
1895,26753;2,4489
1893,21638;2,45264
1891,16522;2,45917
1889,11407;2,46644
1887,06291;2,47087
1885,01176;2,47347
1882,9606;2,47541
1880,90945;2,47641
1878,85829;2,477
1876,80713;2,47759
1874,75598;2,47974
1872,70482;2,48729
1870,65367;2,5003
1868,60251;2,51031
1866,55136;2,5103
1864,5002;2,50629
1862,44905;2,50592
1860,39789;2,50797
1858,34674;2,50876
1856,29558;2,50994
1854,24443;2,5137
1852,19327;2,51872
1850,14212;2,52437
1848,09096;2,53134
1846,0398;2,53636
1843,98865;2,53823
1841,93749;2,54374
1839,88634;2,55447
1837,83518;2,56409
1835,78403;2,56831
1833,73287;2,57074
1831,68172;2,57585
1829,63056;2,58241
1827,57941;2,58993
1825,52825;2,59888
1823,4771;2,60623
1821,42594;2,61016
1819,37478;2,61496
1817,32363;2,62409
1815,27247;2,63282
1813,22132;2,63884
1811,17016;2,64904
1809,11901;2,66586
1807,06785;2,68348
1805,0167;2,699
1802,96554;2,71313
1800,91439;2,7244
1798,86323;2,73244
1796,81208;2,74205
1794,76092;2,75411
1792,70977;2,76282
1790,65861;2,76267
1788,60745;2,7537
1786,5563;2,74151
1784,50514;2,73155
1782,45399;2,72278
1780,40283;2,71266
1778,35168;2,70363
1776,30052;2,69826
1774,24937;2,69609
1772,19821;2,69636
1770,14706;2,70032
1768,0959;2,70608
1766,04475;2,70875
1763,99359;2,70854
1761,94244;2,70913
1759,89128;2,7129
1757,84012;2,71915
1755,78897;2,727
1753,73781;2,73586
1751,68666;2,74403
1749,6355;2,75135
1747,58435;2,75645
1745,53319;2,7615
1743,48204;2,76858
1741,43088;2,77155
1739,37973;2,7728
1737,32857;2,78408
1735,27742;2,80009
1733,22626;2,80714
1731,17511;2,8066
1729,12395;2,80577
1727,07279;2,80695
1725,02164;2,8104
1722,97048;2,81594
1720,91933;2,82618
1718,86817;2,84614
1716,81702;2,87156
1714,76586;2,88313
1712,71471;2,87585
1710,66355;2,86868
1708,6124;2,87957
1706,56124;2,90669
1704,51009;2,92962
1702,45893;2,93148
1700,40778;2,92972
1698,35662;2,95612
1696,30546;2,99767
1694,25431;3,02365
1692,20315;3,02965
1690,152;3,01781
1688,10084;2,99192
1686,04969;2,96923
1683,99853;2,96303
1681,94738;2,96515
1679,89622;2,96111
1677,84507;2,94632
1675,79391;2,92678
1673,74276;2,91564
1671,6916;2,91059
1669,64045;2,89438
1667,58929;2,86876
1665,53813;2,84508
1663,48698;2,82144
1661,43582;2,79827
1659,38467;2,78315
1657,33351;2,77956
1655,28236;2,77831
1653,2312;2,76293
1651,18005;2,7445
1649,12889;2,73838
1647,07774;2,72419
1645,02658;2,69726
1642,97543;2,67623
1640,92427;2,66317
1638,87312;2,65567
1636,82196;2,65527
1634,7708;2,65483
1632,71965;2,64684
1630,66849;2,63683
1628,61734;2,63261
1626,56618;2,63757
1624,51503;2,64597
1622,46387;2,65019
1620,41272;2,64926
1618,36156;2,6456
1616,31041;2,64345
1614,25925;2,6454
1612,2081;2,64732
1610,15694;2,64755
1608,10579;2,65018
1606,05463;2,65648
1604,00347;2,66425
1601,95232;2,67178
1599,90116;2,6778
1597,85001;2,68271
1595,79885;2,68622
1593,7477;2,68755
1591,69654;2,68927
1589,64539;2,69398
1587,59423;2,7028
1585,54308;2,71471
1583,49192;2,72303
1581,44077;2,72488
1579,38961;2,72725
1577,33846;2,73204
1575,2873;2,73141
1573,23614;2,7275
1571,18499;2,72925
1569,13383;2,73431
1567,08268;2,73458
1565,03152;2,73146
1562,98037;2,72893
1560,92921;2,72106
1558,87806;2,70693
1556,8269;2,70099
1554,77575;2,69832
1552,72459;2,6896
1550,67344;2,68165
1548,62228;2,67711
1546,57113;2,67119
1544,51997;2,66345
1542,46881;2,65727
1540,41766;2,65237
1538,3665;2,64614
1536,31535;2,63851
1534,26419;2,62854
1532,21304;2,62118
1530,16188;2,6199
1528,11073;2,61882
1526,05957;2,61565
1524,00842;2,61428
1521,95726;2,61069
1519,90611;2,60351
1517,85495;2,59679
1515,80379;2,58569
1513,75264;2,57366
1511,70148;2,57102
1509,65033;2,57833
1507,59917;2,5801
1505,54802;2,56177
1503,49686;2,53902
1501,44571;2,52443
1499,39455;2,51824
1497,3434;2,51386
1495,29224;2,50521
1493,24109;2,49691
1491,18993;2,49172
1489,13878;2,48664
1487,08762;2,48127
1485,03646;2,4811
1482,98531;2,48642
1480,93415;2,49271
1478,883;2,49972
1476,83184;2,51052
1474,78069;2,52468
1472,72953;2,53892
1470,67838;2,55143
1468,62722;2,5624
1466,57607;2,57142
1464,52491;2,57454
1462,47376;2,57284
1460,4226;2,5775
1458,37145;2,59248
1456,32029;2,60332
1454,26913;2,59768
1452,21798;2,58499
1450,16682;2,57724
1448,11567;2,57826
1446,06451;2,57967
1444,01336;2,57362
1441,9622;2,56484
1439,91105;2,55997
1437,85989;2,55762
1435,80874;2,55521
1433,75758;2,55113
1431,70643;2,54288
1429,65527;2,53457
1427,60412;2,53468
1425,55296;2,53913
1423,5018;2,53678
1421,45065;2,5289
1419,39949;2,52377
1417,34834;2,52218
1415,29718;2,52079
1413,24603;2,51854
1411,19487;2,51546
1409,14372;2,51542
1407,09256;2,52399
1405,04141;2,53834
1402,99025;2,551
1400,9391;2,56029
1398,88794;2,56625
1396,83679;2,56746
1394,78563;2,56468
1392,73447;2,56184
1390,68332;2,56425
1388,63216;2,57221
1386,58101;2,57935
1384,52985;2,58181
1382,4787;2,58124
1380,42754;2,57924
1378,37639;2,57947
1376,32523;2,58415
1374,27408;2,58909
1372,22292;2,59207
1370,17177;2,59694
1368,12061;2,60614
1366,06946;2,61539
1364,0183;2,61805
1361,96714;2,61419
1359,91599;2,60869
1357,86483;2,60436
1355,81368;2,60148
1353,76252;2,60052
1351,71137;2,60519
1349,66021;2,61481
1347,60906;2,62173
1345,5579;2,62433
1343,50675;2,62844
1341,45559;2,63506
1339,40444;2,63696
1337,35328;2,63001
1335,30213;2,62126
1333,25097;2,61887
1331,19981;2,62226
1329,14866;2,62611
1327,0975;2,62985
1325,04635;2,63477
1322,99519;2,63752
1320,94404;2,6374
1318,89288;2,63853
1316,84173;2,63943
1314,79057;2,6374
1312,73942;2,63497
1310,68826;2,63183
1308,63711;2,62554
1306,58595;2,61835
1304,5348;2,61537
1302,48364;2,61851
1300,43248;2,62224
1298,38133;2,62068
1296,33017;2,61979
1294,27902;2,62725
1292,22786;2,63521
1290,17671;2,6338
1288,12555;2,62811
1286,0744;2,62408
1284,02324;2,61964
1281,97209;2,61954
1279,92093;2,62644
1277,86978;2,62998
1275,81862;2,62908
1273,76747;2,62898
1271,71631;2,62561
1269,66515;2,6187
1267,614;2,61551
1265,56284;2,61885
1263,51169;2,62609
1261,46053;2,63221
1259,40938;2,63308
1257,35822;2,62889
1255,30707;2,62236
1253,25591;2,618
1251,20476;2,61681
1249,1536;2,6143
1247,10245;2,60867
1245,05129;2,6054
1243,00013;2,60612
1240,94898;2,60407
1238,89782;2,59505
1236,84667;2,58271
1234,79551;2,57497
1232,74436;2,57399
1230,6932;2,57407
1228,64205;2,56736
1226,59089;2,55649
1224,53974;2,55133
1222,48858;2,55155
1220,43743;2,55173
1218,38627;2,5464
1216,33512;2,53574
1214,28396;2,53261
1212,2328;2,53826
1210,18165;2,54053
1208,13049;2,54095
1206,07934;2,54261
1204,02818;2,53949
1201,97703;2,53802
1199,92587;2,54452
1197,87472;2,54994
1195,82356;2,54896
1193,77241;2,5492
1191,72125;2,55644
1189,6701;2,56596
1187,61894;2,57081
1185,56779;2,57175
1183,51663;2,57266
1181,46547;2,57516
1179,41432;2,57997
1177,36316;2,58652
1175,31201;2,59167
1173,26085;2,59613
1171,2097;2,60031
1169,15854;2,60421
1167,10739;2,61137
1165,05623;2,6185
1163,00508;2,61931
1160,95392;2,61624
1158,90277;2,61247
1156,85161;2,60598
1154,80046;2,59948
1152,7493;2,60018
1150,69814;2,61124
1148,64699;2,62359
1146,59583;2,62264
1144,54468;2,61201
1142,49352;2,60639
1140,44237;2,60944
1138,39121;2,61185
1136,34006;2,60672
1134,2889;2,60095
1132,23775;2,60005
1130,18659;2,60113
1128,13544;2,60011
1126,08428;2,59517
1124,03313;2,5905
1121,98197;2,58987
1119,93081;2,58755
1117,87966;2,58158
1115,8285;2,57847
1113,77735;2,57982
1111,72619;2,58099
1109,67504;2,58072
1107,62388;2,57935
1105,57273;2,57253
1103,52157;2,56257
1101,47042;2,5552
1099,41926;2,54646
1097,36811;2,53361
1095,31695;2,51989
1093,2658;2,50685
1091,21464;2,49899
1089,16348;2,49867
1087,11233;2,49919
1085,06117;2,49349
1083,01002;2,48472
1080,95886;2,47665
1078,90771;2,46688
1076,85655;2,45319
1074,8054;2,43867
1072,75424;2,43315
1070,70309;2,43681
1068,65193;2,43991
1066,60078;2,44013
1064,54962;2,44084
1062,49847;2,44756
1060,44731;2,45831
1058,39615;2,46246
1056,345;2,45981
1054,29384;2,45576
1052,24269;2,45522
1050,19153;2,46022
1048,14038;2,46051
1046,08922;2,45038
1044,03807;2,43372
1041,98691;2,41353
1039,93576;2,39597
1037,8846;2,38159
1035,83345;2,36559
1033,78229;2,34867
1031,73114;2,33599
1029,67998;2,33469
1027,62882;2,34707
1025,57767;2,36778
1023,52651;2,39064
1021,47536;2,41133
1019,4242;2,4244
1017,37305;2,42829
1015,32189;2,42553
1013,27074;2,41218
1011,21958;2,38693
1009,16843;2,35986
1007,11727;2,34089
1005,06612;2,33429
1003,01496;2,33757
1000,96381;2,34495
998,91265;2,35643
996,86149;2,371
994,81034;2,38248
992,75918;2,39419
990,70803;2,41178
988,65687;2,42915
986,60572;2,44133
984,55456;2,45141
982,50341;2,46022
980,45225;2,46706
978,4011;2,47481
976,34994;2,48325
974,29879;2,49251
972,24763;2,50474
970,19647;2,51723
968,14532;2,53124
966,09416;2,54656
964,04301;2,55613
961,99185;2,56035
959,9407;2,56395
957,88954;2,57165
955,83839;2,58548
953,78723;2,59844
951,73608;2,60622
949,68492;2,60953
947,63377;2,60914
945,58261;2,60907
943,53146;2,60907
941,4803;2,60574
939,42914;2,60057
937,37799;2,59467
935,32683;2,58933
933,27568;2,58802
931,22452;2,59098
929,17337;2,59664
927,12221;2,60015
925,07106;2,59238
923,0199;2,57391
920,96875;2,55526
918,91759;2,53507
916,86644;2,51686
914,81528;2,51042
912,76413;2,50003
910,71297;2,47703
908,66181;2,45903
906,61066;2,45477
904,5595;2,46208
902,50835;2,473
900,45719;2,47936
898,40604;2,48327
896,35488;2,48773
894,30373;2,48836
892,25257;2,48218
890,20142;2,47557
888,15026;2,47576
886,09911;2,48473
884,04795;2,49999
881,9968;2,51327
879,94564;2,51863
877,89448;2,51692
875,84333;2,51596
873,79217;2,52507
871,74102;2,54184
869,68986;2,55576
867,63871;2,56372
865,58755;2,56681
863,5364;2,56783
861,48524;2,57559
859,43409;2,58969
857,38293;2,59823
855,33178;2,59907
853,28062;2,59752
851,22947;2,60506
849,17831;2,62066
847,12715;2,62347
845,076;2,62224
843,02484;2,63131
840,97369;2,63731
838,92253;2,63923
836,87138;2,64214
834,82022;2,64229
832,76907;2,63944
830,71791;2,63731
828,66676;2,6397
826,6156;2,64908
824,56445;2,65865
822,51329;2,66039
820,46214;2,67098
818,41098;2,69679
816,35982;2,71376
814,30867;2,71792
812,25751;2,72262
810,20636;2,71707
808,1552;2,70083
806,10405;2,68354
804,05289;2,66399
802,00174;2,64796
799,95058;2,63627
797,89943;2,62515
795,84827;2,60911
793,79712;2,58943
791,74596;2,58505
789,69481;2,59709
787,64365;2,60409
785,59249;2,60338
783,54134;2,59297
781,49018;2,57603
779,43903;2,57547
777,38787;2,58648
775,33672;2,58988
773,28556;2,5921
771,23441;2,60123
769,18325;2,60834
767,1321;2,60844
765,08094;2,60886
763,02979;2,61618
760,97863;2,63111
758,92748;2,64282
756,87632;2,64402
754,82516;2,6498
752,77401;2,66232
750,72285;2,67222
748,6717;2,67634
746,62054;2,67687
744,56939;2,67968
742,51823;2,68018
740,46708;2,67912
738,41592;2,68004
736,36477;2,6819
734,31361;2,68479
732,26246;2,68979
730,2113;2,69493
728,16015;2,70358
726,10899;2,71595
724,05783;2,72317
722,00668;2,71821
719,95552;2,70664
717,90437;2,70549
715,85321;2,71393
713,80206;2,71242
711,7509;2,7075
709,69975;2,71163
707,64859;2,72058
705,59744;2,73001
703,54628;2,74401
701,49513;2,7602
699,44397;2,76506
697,39281;2,73996
695,34166;2,69607
693,2905;2,67424
691,23935;2,68289
689,18819;2,69756
687,13704;2,71455
685,08588;2,74152
683,03473;2,75485
680,98357;2,72915
678,93242;2,69477
676,88126;2,69518
674,83011;2,72427
672,77895;2,74583
670,7278;2,74275
668,67664;2,72629
666,62548;2,72123
664,57433;2,73104
662,52317;2,73129
660,47202;2,71907
658,42086;2,71342
656,36971;2,71737
654,31855;2,71128
652,2674;2,68961
650,21624;2,66268
648,16509;2,64846
646,11393;2,67084
644,06278;2,71947
642,01162;2,74598
639,96047;2,73295
637,90931;2,71227
635,85815;2,70175
633,807;2,69163
631,75584;2,6818
629,70469;2,68465
627,65353;2,69709
625,60238;2,69794
623,55122;2,70049
621,50007;2,7378
619,44891;2,76782
617,39776;2,73815
615,3466;2,68981
613,29545;2,66861
611,24429;2,67406
609,19314;2,68283
607,14198;2,66609
605,09082;2,63071
603,03967;2,61791
600,98851;2,64463
598,93736;2,67637
596,8862;2,67345
594,83505;2,64177
592,78389;2,61579
590,73274;2,63009
588,68158;2,65911
586,63043;2,64948
584,57927;2,61881
582,52812;2,59087
580,47696;2,56318
578,42581;2,54221
576,37465;2,52156
574,32349;2,49673
572,27234;2,48506
570,22118;2,49438
568,17003;2,5121
566,11887;2,52443
564,06772;2,52079
562,01656;2,50008
559,96541;2,47659
557,91425;2,4558
555,8631;2,42478
553,81194;2,38901
551,76079;2,36315
549,70963;2,34859
547,65848;2,33887
545,60732;2,31831
543,55616;2,27531
541,50501;2,23207
539,45385;2,21409
537,4027;2,21437
535,35154;2,21416
533,30039;2,21075
531,24923;2,21804
529,19808;2,24488
527,14692;2,27197
525,09577;2,28681
523,04461;2,30603
520,99346;2,32753
518,9423;2,3469
516,89115;2,3725
514,83999;2,39169
512,78883;2,38274
510,73768;2,35374
508,68652;2,33671
506,63537;2,344
504,58421;2,36284
502,53306;2,37991
500,4819;2,39111
498,43075;2,39684
496,37959;2,39231
494,32844;2,37668
492,27728;2,36646
490,22613;2,37231
488,17497;2,37934
486,12382;2,37799
484,07266;2,36646
482,0215;2,32787
479,97035;2,26717
477,91919;2,21395
475,86804;2,18167
473,81688;2,15498
471,76573;2,11864
469,71457;2,08853
467,66342;2,08474
465,61226;2,10361
463,56111;2,12767
461,50995;2,14681
459,4588;2,16267
457,40764;2,17751
455,35649;2,19229
453,30533;2,21002
451,25417;2,21928
449,20302;2,2032
447,15186;2,17955
445,10071;2,1782
443,04955;2,19896
440,9984;2,22395
438,94724;2,23177
436,89609;2,21205
434,84493;2,18629
432,79378;2,17861
430,74262;2,17943
428,69147;2,17369
426,64031;2,16809
424,58916;2,17484
422,538;2,2017
420,48684;2,26744
418,43569;2,35026
416,38453;2,34881
414,33338;2,26353
412,28222;2,18197
410,23107;2,14091
408,17991;2,1287
406,12876;2,13626
404,0776;2,14598
402,02645;2,13482
399,97529;2,11365
