3997,70175;1,85589
3995,6506;1,85584
3993,59944;1,85698
3991,54829;1,85894
3989,49713;1,86005
3987,44598;1,85991
3985,39482;1,85942
3983,34367;1,85965
3981,29251;1,8606
3979,24136;1,86158
3977,1902;1,86283
3975,13905;1,86503
3973,08789;1,8672
3971,03673;1,86858
3968,98558;1,87023
3966,93442;1,87242
3964,88327;1,87409
3962,83211;1,87539
3960,78096;1,87753
3958,7298;1,87983
3956,67865;1,88118
3954,62749;1,88254
3952,57634;1,8853
3950,52518;1,88831
3948,47403;1,8895
3946,42287;1,88969
3944,37172;1,88975
3942,32056;1,89032
3940,2694;1,89161
3938,21825;1,89207
3936,16709;1,89134
3934,11594;1,88932
3932,06478;1,88705
3930,01363;1,88498
3927,96247;1,88131
3925,91132;1,87591
3923,86016;1,87212
3921,80901;1,87017
3919,75785;1,86715
3917,7067;1,86283
3915,65554;1,85846
3913,60439;1,85484
3911,55323;1,8525
3909,50207;1,85181
3907,45092;1,8515
3905,39976;1,85135
3903,34861;1,85272
3901,29745;1,85255
3899,2463;1,84878
3897,19514;1,84613
3895,14399;1,84477
3893,09283;1,84166
3891,04168;1,83969
3888,99052;1,84173
3886,93937;1,84195
3884,88821;1,84213
3882,83706;1,84354
3880,7859;1,84193
3878,73474;1,84151
3876,68359;1,84168
3874,63243;1,84185
3872,58128;1,84443
3870,53012;1,84482
3868,47897;1,84542
3866,42781;1,84531
3864,37666;1,84218
3862,3255;1,83976
3860,27435;1,83903
3858,22319;1,83881
3856,17204;1,83479
3854,12088;1,8283
3852,06973;1,8294
3850,01857;1,8336
3847,96741;1,83405
3845,91626;1,83356
3843,8651;1,83543
3841,81395;1,83832
3839,76279;1,83686
3837,71164;1,83402
3835,66048;1,83524
3833,60933;1,83603
3831,55817;1,83515
3829,50702;1,83573
3827,45586;1,83661
3825,40471;1,83876
3823,35355;1,83939
3821,3024;1,83855
3819,25124;1,84174
3817,20008;1,84096
3815,14893;1,83935
3813,09777;1,84196
3811,04662;1,84238
3808,99546;1,83939
3806,94431;1,83962
3804,89315;1,84725
3802,842;1,85098
3800,79084;1,85034
3798,73969;1,85002
3796,68853;1,84716
3794,63738;1,84609
3792,58622;1,84722
3790,53506;1,84887
3788,48391;1,85142
3786,43275;1,85382
3784,3816;1,85578
3782,33044;1,85714
3780,27929;1,85679
3778,22813;1,85744
3776,17698;1,85909
3774,12582;1,86005
3772,07467;1,86091
3770,02351;1,86334
3767,97236;1,86829
3765,9212;1,87185
3763,87005;1,87481
3761,81889;1,87721
3759,76773;1,87962
3757,71658;1,88462
3755,66542;1,88913
3753,61427;1,88997
3751,56311;1,89112
3749,51196;1,89763
3747,4608;1,90245
3745,40965;1,89877
3743,35849;1,90194
3741,30734;1,91492
3739,25618;1,92473
3737,20503;1,93079
3735,15387;1,93601
3733,10272;1,93973
3731,05156;1,94333
3729,0004;1,94829
3726,94925;1,95397
3724,89809;1,96214
3722,84694;1,96969
3720,79578;1,9755
3718,74463;1,9815
3716,69347;1,98818
3714,64232;1,99458
3712,59116;2,00286
3710,54001;2,01689
3708,48885;2,03134
3706,4377;2,04286
3704,38654;2,05804
3702,33539;2,08398
3700,28423;2,11888
3698,23307;2,15248
3696,18192;2,18093
3694,13076;2,20227
3692,07961;2,2122
3690,02845;2,21385
3687,9773;2,21251
3685,92614;2,21076
3683,87499;2,2115
3681,82383;2,22
3679,77268;2,23805
3677,72152;2,26279
3675,67037;2,29151
3673,61921;2,31833
3671,56806;2,33337
3669,5169;2,34793
3667,46574;2,36911
3665,41459;2,38818
3663,36343;2,40732
3661,31228;2,43022
3659,26112;2,45594
3657,20997;2,48521
3655,15881;2,52055
3653,10766;2,55426
3651,0565;2,57851
3649,00535;2,59619
3646,95419;2,60898
3644,90304;2,61682
3642,85188;2,62036
3640,80073;2,62394
3638,74957;2,62506
3636,69841;2,6183
3634,64726;2,61087
3632,5961;2,61372
3630,54495;2,62235
3628,49379;2,6281
3626,44264;2,62825
3624,39148;2,62463
3622,34033;2,62367
3620,28917;2,62573
3618,23802;2,62816
3616,18686;2,62917
3614,13571;2,63303
3612,08455;2,64327
3610,0334;2,64759
3607,98224;2,64138
3605,93108;2,63719
3603,87993;2,63876
3601,82877;2,63942
3599,77762;2,63812
3597,72646;2,64005
3595,67531;2,64419
3593,62415;2,64478
3591,573;2,63942
3589,52184;2,63139
3587,47069;2,6291
3585,41953;2,63441
3583,36838;2,63783
3581,31722;2,63959
3579,26607;2,64774
3577,21491;2,65675
3575,16375;2,65783
3573,1126;2,65939
3571,06144;2,66687
3569,01029;2,67172
3566,95913;2,67001
3564,90798;2,66238
3562,85682;2,65195
3560,80567;2,64826
3558,75451;2,6546
3556,70336;2,66277
3554,6522;2,66482
3552,60105;2,66401
3550,54989;2,66739
3548,49874;2,66967
3546,44758;2,66581
3544,39642;2,66347
3542,34527;2,66711
3540,29411;2,67033
3538,24296;2,66655
3536,1918;2,65713
3534,14065;2,65155
3532,08949;2,6554
3530,03834;2,66158
3527,98718;2,66235
3525,93603;2,6606
3523,88487;2,66468
3521,83372;2,67316
3519,78256;2,67244
3517,73141;2,66427
3515,68025;2,66475
3513,62909;2,67477
3511,57794;2,6793
3509,52678;2,66948
3507,47563;2,65708
3505,42447;2,65728
3503,37332;2,66619
3501,32216;2,67092
3499,27101;2,67231
3497,21985;2,67705
3495,1687;2,68063
3493,11754;2,67843
3491,06639;2,67626
3489,01523;2,67747
3486,96407;2,67828
3484,91292;2,67766
3482,86176;2,67926
3480,81061;2,68529
3478,75945;2,68882
3476,7083;2,68466
3474,65714;2,6777
3472,60599;2,67424
3470,55483;2,67705
3468,50368;2,68292
3466,45252;2,68698
3464,40137;2,6866
3462,35021;2,6768
3460,29906;2,65877
3458,2479;2,64457
3456,19674;2,64324
3454,14559;2,65149
3452,09443;2,65571
3450,04328;2,65079
3447,99212;2,64967
3445,94097;2,65945
3443,88981;2,66899
3441,83866;2,66769
3439,7875;2,66124
3437,73635;2,65953
3435,68519;2,66443
3433,63404;2,67352
3431,58288;2,68022
3429,53173;2,68264
3427,48057;2,68606
3425,42941;2,68707
3423,37826;2,68022
3421,3271;2,66635
3419,27595;2,65354
3417,22479;2,65295
3415,17364;2,65992
3413,12248;2,66279
3411,07133;2,66266
3409,02017;2,66433
3406,96902;2,66697
3404,91786;2,66693
3402,86671;2,66711
3400,81555;2,67126
3398,7644;2,67157
3396,71324;2,66228
3394,66208;2,64927
3392,61093;2,64265
3390,55977;2,64754
3388,50862;2,66041
3386,45746;2,67287
3384,40631;2,67627
3382,35515;2,67089
3380,304;2,66835
3378,25284;2,67365
3376,20169;2,67757
3374,15053;2,67483
3372,09938;2,66815
3370,04822;2,66096
3367,99707;2,65615
3365,94591;2,65228
3363,89475;2,64599
3361,8436;2,64343
3359,79244;2,65048
3357,74129;2,65561
3355,69013;2,65329
3353,63898;2,65247
3351,58782;2,65242
3349,53667;2,65074
3347,48551;2,65184
3345,43436;2,65649
3343,3832;2,66391
3341,33205;2,66845
3339,28089;2,66547
3337,22974;2,6626
3335,17858;2,66114
3333,12742;2,65709
3331,07627;2,65362
3329,02511;2,6524
3326,97396;2,64936
3324,9228;2,64306
3322,87165;2,63819
3320,82049;2,63386
3318,76934;2,63396
3316,71818;2,64585
3314,66703;2,65718
3312,61587;2,65438
3310,56472;2,64586
3308,51356;2,64511
3306,46241;2,65026
3304,41125;2,65241
3302,36009;2,649
3300,30894;2,64427
3298,25778;2,64112
3296,20663;2,64199
3294,15547;2,64692
3292,10432;2,64826
3290,05316;2,64428
3288,00201;2,63722
3285,95085;2,62764
3283,8997;2,62196
3281,84854;2,62339
3279,79739;2,6251
3277,74623;2,62561
3275,69508;2,62719
3273,64392;2,62841
3271,59276;2,62902
3269,54161;2,62774
3267,49045;2,62863
3265,4393;2,63266
3263,38814;2,63252
3261,33699;2,62886
3259,28583;2,62734
3257,23468;2,62735
3255,18352;2,62768
3253,13237;2,63041
3251,08121;2,63012
3249,03006;2,62266
3246,9789;2,6141
3244,92775;2,61159
3242,87659;2,61774
3240,82543;2,62677
3238,77428;2,62951
3236,72312;2,62353
3234,67197;2,61807
3232,62081;2,61876
3230,56966;2,61934
3228,5185;2,61752
3226,46735;2,61669
3224,41619;2,61772
3222,36504;2,62016
3220,31388;2,61802
3218,26273;2,61179
3216,21157;2,61261
3214,16041;2,61947
3212,10926;2,62306
3210,0581;2,62146
3208,00695;2,61824
3205,95579;2,61578
3203,90464;2,61596
3201,85348;2,61863
3199,80233;2,61807
3197,75117;2,61178
3195,70002;2,60642
3193,64886;2,60684
3191,59771;2,60993
3189,54655;2,61412
3187,4954;2,62118
3185,44424;2,62607
3183,39308;2,6233
3181,34193;2,61679
3179,29077;2,61247
3177,23962;2,61199
3175,18846;2,61387
3173,13731;2,61355
3171,08615;2,6104
3169,035;2,611
3166,98384;2,61592
3164,93269;2,61711
3162,88153;2,61348
3160,83038;2,61263
3158,77922;2,61252
3156,72807;2,60687
3154,67691;2,60266
3152,62575;2,60646
3150,5746;2,61481
3148,52344;2,62032
3146,47229;2,61846
3144,42113;2,61281
3142,36998;2,60949
3140,31882;2,61091
3138,26767;2,61455
3136,21651;2,6156
3134,16536;2,61409
3132,1142;2,61436
3130,06305;2,61825
3128,01189;2,62348
3125,96074;2,6266
3123,90958;2,62503
3121,85842;2,61804
3119,80727;2,61071
3117,75611;2,60893
3115,70496;2,60801
3113,6538;2,60411
3111,60265;2,60325
3109,55149;2,60552
3107,50034;2,60452
3105,44918;2,60256
3103,39803;2,60268
3101,34687;2,60348
3099,29572;2,60517
3097,24456;2,60853
3095,19341;2,613
3093,14225;2,61486
3091,09109;2,61167
3089,03994;2,60722
3086,98878;2,60576
3084,93763;2,60511
3082,88647;2,60624
3080,83532;2,61132
3078,78416;2,61435
3076,73301;2,60961
3074,68185;2,60226
3072,6307;2,60311
3070,57954;2,61116
3068,52839;2,61673
3066,47723;2,61609
3064,42608;2,61354
3062,37492;2,61581
3060,32376;2,61867
3058,27261;2,61634
3056,22145;2,61307
3054,1703;2,61014
3052,11914;2,60623
3050,06799;2,60405
3048,01683;2,60419
3045,96568;2,60338
3043,91452;2,60085
3041,86337;2,59785
3039,81221;2,59575
3037,76106;2,59743
3035,7099;2,60206
3033,65875;2,60383
3031,60759;2,60012
3029,55643;2,59677
3027,50528;2,60051
3025,45412;2,60827
3023,40297;2,60818
3021,35181;2,6012
3019,30066;2,60371
3017,2495;2,61406
3015,19835;2,61556
3013,14719;2,61141
3011,09604;2,6152
3009,04488;2,62146
3006,99373;2,6198
3004,94257;2,61712
3002,89142;2,62082
3000,84026;2,62342
2998,7891;2,62016
2996,73795;2,61655
2994,68679;2,61642
2992,63564;2,62031
2990,58448;2,62814
2988,53333;2,63761
2986,48217;2,64411
2984,43102;2,64487
2982,37986;2,64533
2980,32871;2,65226
2978,27755;2,66127
2976,2264;2,66076
2974,17524;2,65464
2972,12409;2,65504
2970,07293;2,65992
2968,02177;2,66484
2965,97062;2,67045
2963,91946;2,67186
2961,86831;2,66815
2959,81715;2,66594
2957,766;2,66503
2955,71484;2,66223
2953,66369;2,66019
2951,61253;2,66199
2949,56138;2,66144
2947,51022;2,65387
2945,45907;2,65125
2943,40791;2,65812
2941,35675;2,66399
2939,3056;2,66729
2937,25444;2,67117
2935,20329;2,66872
2933,15213;2,65708
2931,10098;2,64444
2929,04982;2,63273
2926,99867;2,61853
2924,94751;2,60358
2922,89636;2,58938
2920,8452;2,57755
2918,79405;2,57052
2916,74289;2,56738
2914,69174;2,5658
2912,64058;2,56424
2910,58942;2,562
2908,53827;2,56
2906,48711;2,56153
2904,43596;2,56657
2902,3848;2,57106
2900,33365;2,57369
2898,28249;2,57425
2896,23134;2,57368
2894,18018;2,57515
2892,12903;2,57806
2890,07787;2,57782
2888,02672;2,57485
2885,97556;2,57514
2883,92441;2,57929
2881,87325;2,58265
2879,82209;2,58293
2877,77094;2,58711
2875,71978;2,59738
2873,66863;2,60243
2871,61747;2,60047
2869,56632;2,60073
2867,51516;2,605
2865,46401;2,60691
2863,41285;2,60467
2861,3617;2,60161
2859,31054;2,59678
2857,25939;2,58802
2855,20823;2,57764
2853,15708;2,57106
2851,10592;2,5656
2849,05476;2,55453
2847,00361;2,5425
2844,95245;2,53932
2842,9013;2,54345
2840,85014;2,54419
2838,79899;2,53829
2836,74783;2,5289
2834,69668;2,52033
2832,64552;2,51583
2830,59437;2,5149
2828,54321;2,51449
2826,49206;2,51057
2824,4409;2,50516
2822,38975;2,50346
2820,33859;2,50428
2818,28743;2,50113
2816,23628;2,49472
2814,18512;2,49169
2812,13397;2,48981
2810,08281;2,48556
2808,03166;2,48365
2805,9805;2,48464
2803,92935;2,48326
2801,87819;2,47831
2799,82704;2,47354
2797,77588;2,47208
2795,72473;2,46929
2793,67357;2,46235
2791,62242;2,4559
2789,57126;2,45179
2787,5201;2,45112
2785,46895;2,45212
2783,41779;2,45228
2781,36664;2,45381
2779,31548;2,45395
2777,26433;2,44753
2775,21317;2,43861
2773,16202;2,43363
2771,11086;2,43294
2769,05971;2,43499
2767,00855;2,43793
2764,9574;2,43876
2762,90624;2,43646
2760,85509;2,4322
2758,80393;2,42717
2756,75277;2,42306
2754,70162;2,42281
2752,65046;2,42543
2750,59931;2,42639
2748,54815;2,42417
2746,497;2,41922
2744,44584;2,41505
2742,39469;2,41526
2740,34353;2,41657
2738,29238;2,41501
2736,24122;2,413
2734,19007;2,41366
2732,13891;2,4153
2730,08776;2,4159
2728,0366;2,41409
2725,98544;2,40792
2723,93429;2,40047
2721,88313;2,39763
2719,83198;2,39934
2717,78082;2,40148
2715,72967;2,40303
2713,67851;2,40432
2711,62736;2,40382
2709,5762;2,40005
2707,52505;2,39539
2705,47389;2,39259
2703,42274;2,39253
2701,37158;2,39506
2699,32043;2,39729
2697,26927;2,39813
2695,21811;2,39826
2693,16696;2,39691
2691,1158;2,39397
2689,06465;2,39001
2687,01349;2,38705
2684,96234;2,38774
2682,91118;2,39012
2680,86003;2,39073
2678,80887;2,38888
2676,75772;2,38536
2674,70656;2,383
2672,65541;2,38219
2670,60425;2,37978
2668,55309;2,37557
2666,50194;2,37399
2664,45078;2,3771
2662,39963;2,38092
2660,34847;2,38201
2658,29732;2,38161
2656,24616;2,38061
2654,19501;2,37857
2652,14385;2,37713
2650,0927;2,37695
2648,04154;2,37892
2645,99039;2,38214
2643,93923;2,38227
2641,88808;2,38123
2639,83692;2,38266
2637,78576;2,38576
2635,73461;2,39071
2633,68345;2,39571
2631,6323;2,3987
2629,58114;2,40102
2627,52999;2,40411
2625,47883;2,40822
2623,42768;2,41072
2621,37652;2,41151
2619,32537;2,41323
2617,27421;2,41461
2615,22306;2,41582
2613,1719;2,4181
2611,12075;2,42058
2609,06959;2,42444
2607,01843;2,42858
2604,96728;2,43036
2602,91612;2,43079
2600,86497;2,43277
2598,81381;2,43731
2596,76266;2,4407
2594,7115;2,4417
2592,66035;2,44137
2590,60919;2,4393
2588,55804;2,43818
2586,50688;2,43783
2584,45573;2,43637
2582,40457;2,43574
2580,35342;2,43764
2578,30226;2,44254
2576,2511;2,44637
2574,19995;2,44541
2572,14879;2,44432
2570,09764;2,44401
2568,04648;2,44012
2565,99533;2,43582
2563,94417;2,43602
2561,89302;2,43958
2559,84186;2,44358
2557,79071;2,44562
2555,73955;2,44548
2553,6884;2,44726
2551,63724;2,45202
2549,58609;2,45515
2547,53493;2,4533
2545,48377;2,45003
2543,43262;2,4511
2541,38146;2,45758
2539,33031;2,46494
2537,27915;2,4677
2535,228;2,46913
2533,17684;2,47429
2531,12569;2,48099
2529,07453;2,48609
2527,02338;2,49181
2524,97222;2,49942
2522,92107;2,50272
2520,86991;2,50191
2518,81876;2,50444
2516,7676;2,50758
2514,71644;2,5051
2512,66529;2,50011
2510,61413;2,49727
2508,56298;2,49633
2506,51182;2,4964
2504,46067;2,4968
2502,40951;2,49446
2500,35836;2,48936
2498,3072;2,48239
2496,25605;2,47046
2494,20489;2,45807
2492,15374;2,44963
2490,10258;2,44142
2488,05143;2,43308
2486,00027;2,4252
2483,94911;2,41532
2481,89796;2,40411
2479,8468;2,39576
2477,79565;2,3922
2475,74449;2,38846
2473,69334;2,37953
2471,64218;2,37009
2469,59103;2,36463
2467,53987;2,35947
2465,48872;2,35334
2463,43756;2,34977
2461,38641;2,34732
2459,33525;2,34134
2457,2841;2,33424
2455,23294;2,33038
2453,18178;2,32755
2451,13063;2,32367
2449,07947;2,32027
2447,02832;2,31761
2444,97716;2,31545
2442,92601;2,31357
2440,87485;2,31018
2438,8237;2,30487
2436,77254;2,30142
2434,72139;2,30142
2432,67023;2,29954
2430,61908;2,29488
2428,56792;2,29383
2426,51677;2,29625
2424,46561;2,2962
2422,41445;2,29337
2420,3633;2,2911
2418,31214;2,28976
2416,26099;2,28841
2414,20983;2,28666
2412,15868;2,28502
2410,10752;2,28446
2408,05637;2,28356
2406,00521;2,2813
2403,95406;2,28014
2401,9029;2,281
2399,85175;2,28114
2397,80059;2,27963
2395,74944;2,27701
2393,69828;2,27338
2391,64712;2,26968
2389,59597;2,26851
2387,54481;2,27108
2385,49366;2,27482
2383,4425;2,27597
2381,39135;2,27429
2379,34019;2,27254
2377,28904;2,27237
2375,23788;2,2732
2373,18673;2,27459
2371,13557;2,2773
2369,08442;2,28151
2367,03326;2,28423
2364,9821;2,28211
2362,93095;2,27879
2360,87979;2,2791
2358,82864;2,28006
2356,77748;2,2783
2354,72633;2,27767
2352,67517;2,27957
2350,62402;2,28005
2348,57286;2,27923
2346,52171;2,27873
2344,47055;2,27802
2342,4194;2,2761
2340,36824;2,27093
2338,31709;2,26359
2336,26593;2,25988
2334,21477;2,26279
2332,16362;2,27068
2330,11246;2,28023
2328,06131;2,28816
2326,01015;2,29165
2323,959;2,28979
2321,90784;2,28584
2319,85669;2,28301
2317,80553;2,28087
2315,75438;2,27837
2313,70322;2,27726
2311,65207;2,27996
2309,60091;2,28381
2307,54976;2,28397
2305,4986;2,28147
2303,44744;2,28015
2301,39629;2,2802
2299,34513;2,28037
2297,29398;2,28116
2295,24282;2,28206
2293,19167;2,28105
2291,14051;2,27909
2289,08936;2,27897
2287,0382;2,28041
2284,98705;2,28174
2282,93589;2,28261
2280,88474;2,28236
2278,83358;2,28103
2276,78243;2,28025
2274,73127;2,2805
2272,68011;2,28147
2270,62896;2,28279
2268,5778;2,28348
2266,52665;2,28387
2264,47549;2,28504
2262,42434;2,28695
2260,37318;2,28935
2258,32203;2,29221
2256,27087;2,29454
2254,21972;2,29435
2252,16856;2,29282
2250,11741;2,29383
2248,06625;2,29728
2246,0151;2,29893
2243,96394;2,29918
2241,91278;2,29982
2239,86163;2,29909
2237,81047;2,29679
2235,75932;2,29722
2233,70816;2,30165
2231,65701;2,30661
2229,60585;2,30971
2227,5547;2,3107
2225,50354;2,3112
2223,45239;2,3124
2221,40123;2,31385
2219,35008;2,31567
2217,29892;2,31795
2215,24777;2,31961
2213,19661;2,31952
2211,14545;2,31987
2209,0943;2,32163
2207,04314;2,32204
2204,99199;2,32198
2202,94083;2,3237
2200,88968;2,32538
2198,83852;2,32478
2196,78737;2,32363
2194,73621;2,32502
2192,68506;2,32744
2190,6339;2,32738
2188,58275;2,32743
2186,53159;2,32933
2184,48044;2,33021
2182,42928;2,33131
2180,37812;2,33434
2178,32697;2,33714
2176,27581;2,33853
2174,22466;2,33876
2172,1735;2,33753
2170,12235;2,33669
2168,07119;2,33921
2166,02004;2,34428
2163,96888;2,3486
2161,91773;2,35089
2159,86657;2,35332
2157,81542;2,35857
2155,76426;2,36569
2153,71311;2,37035
2151,66195;2,3718
2149,61079;2,37288
2147,55964;2,37437
2145,50848;2,37753
2143,45733;2,38064
2141,40617;2,37963
2139,35502;2,37792
2137,30386;2,37892
2135,25271;2,38072
2133,20155;2,38114
2131,1504;2,37774
2129,09924;2,37321
2127,04809;2,3719
2124,99693;2,37039
2122,94578;2,36582
2120,89462;2,36094
2118,84346;2,35811
2116,79231;2,35632
2114,74115;2,35404
2112,69;2,35398
2110,63884;2,3563
2108,58769;2,3559
2106,53653;2,35231
2104,48538;2,34916
2102,43422;2,34826
2100,38307;2,34938
2098,33191;2,35094
2096,28076;2,3522
2094,2296;2,35309
2092,17844;2,35281
2090,12729;2,35148
2088,07613;2,35082
2086,02498;2,35105
2083,97382;2,35213
2081,92267;2,35606
2079,87151;2,36107
2077,82036;2,36158
2075,7692;2,35937
2073,71805;2,35955
2071,66689;2,36026
2069,61574;2,36082
2067,56458;2,36297
2065,51343;2,3642
2063,46227;2,36386
2061,41111;2,36393
2059,35996;2,36399
2057,3088;2,36461
2055,25765;2,36745
2053,20649;2,36937
2051,15534;2,36753
2049,10418;2,36647
2047,05303;2,36946
2045,00187;2,37299
2042,95072;2,3732
2040,89956;2,37123
2038,84841;2,3709
2036,79725;2,37278
2034,7461;2,37417
2032,69494;2,37485
2030,64378;2,37574
2028,59263;2,37474
2026,54147;2,37284
2024,49032;2,37345
2022,43916;2,37542
2020,38801;2,37636
2018,33685;2,37637
2016,2857;2,37798
2014,23454;2,38133
2012,18339;2,38198
2010,13223;2,37903
2008,08108;2,37623
2006,02992;2,37633
2003,97877;2,37963
2001,92761;2,38362
1999,87645;2,38514
1997,8253;2,38496
1995,77414;2,38607
1993,72299;2,38871
1991,67183;2,39082
1989,62068;2,39042
1987,56952;2,38868
1985,51837;2,38783
1983,46721;2,38684
1981,41606;2,38725
1979,3649;2,39024
1977,31375;2,39285
1975,26259;2,39388
1973,21144;2,39511
1971,16028;2,39743
1969,10912;2,40135
1967,05797;2,40711
1965,00681;2,4123
1962,95566;2,41486
1960,9045;2,41518
1958,85335;2,41311
1956,80219;2,40947
1954,75104;2,40668
1952,69988;2,40563
1950,64873;2,40583
1948,59757;2,40773
1946,54642;2,4116
1944,49526;2,4152
1942,44411;2,41546
1940,39295;2,41378
1938,34179;2,41261
1936,29064;2,41312
1934,23948;2,41532
1932,18833;2,41962
1930,13717;2,42522
1928,08602;2,4284
1926,03486;2,42859
1923,98371;2,42813
1921,93255;2,42821
1919,8814;2,42697
1917,83024;2,42629
1915,77909;2,42916
1913,72793;2,43107
1911,67678;2,43231
1909,62562;2,43494
1907,57446;2,43765
1905,52331;2,43896
1903,47215;2,4395
1901,421;2,441
1899,36984;2,44339
1897,31869;2,44421
1895,26753;2,4438
1893,21638;2,44603
1891,16522;2,44952
1889,11407;2,452
1887,06291;2,45375
1885,01176;2,45395
1882,9606;2,45389
1880,90945;2,4544
1878,85829;2,4558
1876,80713;2,45885
1874,75598;2,46261
1872,70482;2,46626
1870,65367;2,47033
1868,60251;2,47514
1866,55136;2,47825
1864,5002;2,47779
1862,44905;2,47664
1860,39789;2,47705
1858,34674;2,47943
1856,29558;2,4839
1854,24443;2,48941
1852,19327;2,49472
1850,14212;2,49886
1848,09096;2,50197
1846,0398;2,50351
1843,98865;2,50472
1841,93749;2,50928
1839,88634;2,51395
1837,83518;2,51765
1835,78403;2,52239
1833,73287;2,52729
1831,68172;2,53187
1829,63056;2,53829
1827,57941;2,543
1825,52825;2,5418
1823,4771;2,54334
1821,42594;2,54866
1819,37478;2,55134
1817,32363;2,55517
1815,27247;2,56557
1813,22132;2,57805
1811,17016;2,58736
1809,11901;2,59439
1807,06785;2,60158
1805,0167;2,60997
1802,96554;2,61844
1800,91439;2,62676
1798,86323;2,63527
1796,81208;2,64144
1794,76092;2,64399
1792,70977;2,64533
1790,65861;2,64891
1788,60745;2,65201
1786,5563;2,64924
1784,50514;2,64171
1782,45399;2,63525
1780,40283;2,63445
1778,35168;2,6398
1776,30052;2,64467
1774,24937;2,64351
1772,19821;2,64321
1770,14706;2,65296
1768,0959;2,66636
1766,04475;2,67848
1763,99359;2,6883
1761,94244;2,70021
1759,89128;2,71893
1757,84012;2,73653
1755,78897;2,74647
1753,73781;2,74693
1751,68666;2,73877
1749,6355;2,72485
1747,58435;2,7063
1745,53319;2,68948
1743,48204;2,67647
1741,43088;2,66125
1739,37973;2,64657
1737,32857;2,64039
1735,27742;2,63738
1733,22626;2,63734
1731,17511;2,63709
1729,12395;2,63042
1727,07279;2,62413
1725,02164;2,62276
1722,97048;2,62794
1720,91933;2,63605
1718,86817;2,6403
1716,81702;2,64437
1714,76586;2,65071
1712,71471;2,65616
1710,66355;2,66053
1708,6124;2,66699
1706,56124;2,67724
1704,51009;2,68782
1702,45893;2,69268
1700,40778;2,69723
1698,35662;2,70542
1696,30546;2,70222
1694,25431;2,69694
1692,20315;2,69572
1690,152;2,69764
1688,10084;2,70641
1686,04969;2,71033
1683,99853;2,7041
1681,94738;2,70174
1679,89622;2,70263
1677,84507;2,69941
1675,79391;2,69264
1673,74276;2,69169
1671,6916;2,69172
1669,64045;2,68651
1667,58929;2,68409
1665,53813;2,68161
1663,48698;2,67245
1661,43582;2,66212
1659,38467;2,65555
1657,33351;2,6517
1655,28236;2,63972
1653,2312;2,61609
1651,18005;2,6073
1649,12889;2,60892
1647,07774;2,60754
1645,02658;2,60759
1642,97543;2,6065
1640,92427;2,6031
1638,87312;2,59919
1636,82196;2,59126
1634,7708;2,58274
1632,71965;2,57794
1630,66849;2,5717
1628,61734;2,56263
1626,56618;2,55205
1624,51503;2,5423
1622,46387;2,54144
1620,41272;2,54757
1618,36156;2,54683
1616,31041;2,54306
1614,25925;2,54577
1612,2081;2,54846
1610,15694;2,54927
1608,10579;2,55161
1606,05463;2,55613
1604,00347;2,56134
1601,95232;2,5652
1599,90116;2,56744
1597,85001;2,56986
1595,79885;2,57326
1593,7477;2,57729
1591,69654;2,58063
1589,64539;2,58145
1587,59423;2,58094
1585,54308;2,58166
1583,49192;2,58579
1581,44077;2,59347
1579,38961;2,59784
1577,33846;2,59394
1575,2873;2,59525
1573,23614;2,60582
1571,18499;2,60889
1569,13383;2,6062
1567,08268;2,60733
1565,03152;2,61148
1562,98037;2,6174
1560,92921;2,61528
1558,87806;2,60712
1556,8269;2,60745
1554,77575;2,60296
1552,72459;2,59137
1550,67344;2,57997
1548,62228;2,57692
1546,57113;2,58338
1544,51997;2,59017
1542,46881;2,58604
1540,41766;2,56618
1538,3665;2,55264
1536,31535;2,5528
1534,26419;2,55094
1532,21304;2,54666
1530,16188;2,54309
1528,11073;2,54058
1526,05957;2,54139
1524,00842;2,54077
1521,95726;2,53743
1519,90611;2,54071
1517,85495;2,54039
1515,80379;2,52921
1513,75264;2,51847
1511,70148;2,51557
1509,65033;2,51648
1507,59917;2,51085
1505,54802;2,50598
1503,49686;2,5076
1501,44571;2,50719
1499,39455;2,50458
1497,3434;2,50254
1495,29224;2,50414
1493,24109;2,50754
1491,18993;2,50849
1489,13878;2,51052
1487,08762;2,51222
1485,03646;2,50919
1482,98531;2,50383
1480,93415;2,5032
1478,883;2,512
1476,83184;2,52774
1474,78069;2,54477
1472,72953;2,55871
1470,67838;2,57094
1468,62722;2,57747
1466,57607;2,57411
1464,52491;2,56721
1462,47376;2,565
1460,4226;2,56354
1458,37145;2,55904
1456,32029;2,55687
1454,26913;2,55549
1452,21798;2,54953
1450,16682;2,54288
1448,11567;2,53819
1446,06451;2,5363
1444,01336;2,53677
1441,9622;2,53931
1439,91105;2,54236
1437,85989;2,54024
1435,80874;2,53479
1433,75758;2,53017
1431,70643;2,52406
1429,65527;2,51916
1427,60412;2,5182
1425,55296;2,51883
1423,5018;2,52049
1421,45065;2,52023
1419,39949;2,51632
1417,34834;2,51454
1415,29718;2,5133
1413,24603;2,51069
1411,19487;2,50839
1409,14372;2,50732
1407,09256;2,50717
1405,04141;2,50757
1402,99025;2,50896
1400,9391;2,50966
1398,88794;2,5117
1396,83679;2,51624
1394,78563;2,51938
1392,73447;2,52203
1390,68332;2,52328
1388,63216;2,52264
1386,58101;2,52357
1384,52985;2,52476
1382,4787;2,52344
1380,42754;2,52256
1378,37639;2,52382
1376,32523;2,52493
1374,27408;2,52534
1372,22292;2,52827
1370,17177;2,53217
1368,12061;2,53325
1366,06946;2,53032
1364,0183;2,52436
1361,96714;2,52127
1359,91599;2,52436
1357,86483;2,52818
1355,81368;2,52869
1353,76252;2,52791
1351,71137;2,52899
1349,66021;2,53109
1347,60906;2,53251
1345,5579;2,53523
1343,50675;2,54103
1341,45559;2,54386
1339,40444;2,53857
1337,35328;2,53228
1335,30213;2,53143
1333,25097;2,534
1331,19981;2,53786
1329,14866;2,54324
1327,0975;2,54833
1325,04635;2,55065
1322,99519;2,55131
1320,94404;2,5534
1318,89288;2,55716
1316,84173;2,55801
1314,79057;2,55484
1312,73942;2,55177
1310,68826;2,5487
1308,63711;2,54603
1306,58595;2,54696
1304,5348;2,55028
1302,48364;2,5538
1300,43248;2,5585
1298,38133;2,56392
1296,33017;2,5665
1294,27902;2,5662
1292,22786;2,56593
1290,17671;2,5664
1288,12555;2,56815
1286,0744;2,57048
1284,02324;2,57212
1281,97209;2,57395
1279,92093;2,57302
1277,86978;2,56794
1275,81862;2,56621
1273,76747;2,57199
1271,71631;2,57788
1269,66515;2,57843
1267,614;2,57938
1265,56284;2,5839
1263,51169;2,58801
1261,46053;2,58865
1259,40938;2,58611
1257,35822;2,58375
1255,30707;2,58375
1253,25591;2,58591
1251,20476;2,5881
1249,1536;2,58511
1247,10245;2,57656
1245,05129;2,57096
1243,00013;2,57147
1240,94898;2,57195
1238,89782;2,57066
1236,84667;2,56884
1234,79551;2,56401
1232,74436;2,55816
1230,6932;2,55544
1228,64205;2,55365
1226,59089;2,55063
1224,53974;2,54676
1222,48858;2,54369
1220,43743;2,54491
1218,38627;2,54658
1216,33512;2,54188
1214,28396;2,53684
1212,2328;2,53846
1210,18165;2,54229
1208,13049;2,5453
1206,07934;2,54912
1204,02818;2,55126
1201,97703;2,55096
1199,92587;2,55241
1197,87472;2,55535
1195,82356;2,55882
1193,77241;2,56365
1191,72125;2,56664
1189,6701;2,56589
1187,61894;2,56352
1185,56779;2,56346
1183,51663;2,56674
1181,46547;2,57215
1179,41432;2,57721
1177,36316;2,57814
1175,31201;2,57604
1173,26085;2,57305
1171,2097;2,5683
1169,15854;2,56389
1167,10739;2,56275
1165,05623;2,56359
1163,00508;2,56404
1160,95392;2,56173
1158,90277;2,55876
1156,85161;2,55691
1154,80046;2,55129
1152,7493;2,54262
1150,69814;2,53925
1148,64699;2,54261
1146,59583;2,54549
1144,54468;2,54568
1142,49352;2,54559
1140,44237;2,54288
1138,39121;2,53736
1136,34006;2,53461
1134,2889;2,53766
1132,23775;2,54541
1130,18659;2,55317
1128,13544;2,55646
1126,08428;2,55815
1124,03313;2,56299
1121,98197;2,57053
1119,93081;2,57624
1117,87966;2,5764
1115,8285;2,574
1113,77735;2,57194
1111,72619;2,56702
1109,67504;2,56299
1107,62388;2,56693
1105,57273;2,57302
1103,52157;2,57269
1101,47042;2,56949
1099,41926;2,56775
1097,36811;2,56236
1095,31695;2,5556
1093,2658;2,55214
1091,21464;2,54623
1089,16348;2,54066
1087,11233;2,5402
1085,06117;2,53621
1083,01002;2,52722
1080,95886;2,52256
1078,90771;2,52582
1076,85655;2,52995
1074,8054;2,52808
1072,75424;2,52539
1070,70309;2,52635
1068,65193;2,52681
1066,60078;2,52276
1064,54962;2,51494
1062,49847;2,50839
1060,44731;2,50344
1058,39615;2,4968
1056,345;2,49167
1054,29384;2,48929
1052,24269;2,48538
1050,19153;2,48
1048,14038;2,4724
1046,08922;2,46062
1044,03807;2,44963
1041,98691;2,44426
1039,93576;2,44239
1037,8846;2,44013
1035,83345;2,43828
1033,78229;2,43891
1031,73114;2,44028
1029,67998;2,43877
1027,62882;2,43212
1025,57767;2,42456
1023,52651;2,42426
1021,47536;2,42968
1019,4242;2,43327
1017,37305;2,43305
1015,32189;2,43205
1013,27074;2,43261
1011,21958;2,43363
1009,16843;2,43487
1007,11727;2,4351
1005,06612;2,4317
1003,01496;2,42853
1000,96381;2,42807
998,91265;2,42975
996,86149;2,43512
994,81034;2,44082
992,75918;2,44474
990,70803;2,44718
988,65687;2,44732
986,60572;2,44801
984,55456;2,44862
982,50341;2,44651
980,45225;2,44337
978,4011;2,44354
976,34994;2,44758
974,29879;2,44798
972,24763;2,44226
970,19647;2,43909
968,14532;2,43998
966,09416;2,44017
964,04301;2,44197
961,99185;2,4464
959,9407;2,44716
957,88954;2,44587
955,83839;2,45006
953,78723;2,45463
951,73608;2,45477
949,68492;2,45689
947,63377;2,46084
945,58261;2,46001
943,53146;2,45965
941,4803;2,46551
939,42914;2,46929
937,37799;2,46872
935,32683;2,47139
933,27568;2,47642
931,22452;2,47682
929,17337;2,47456
927,12221;2,47477
925,07106;2,4776
923,0199;2,4815
920,96875;2,48219
918,91759;2,48161
916,86644;2,48463
914,81528;2,48881
912,76413;2,4895
910,71297;2,48614
908,66181;2,48524
906,61066;2,49105
904,5595;2,49763
902,50835;2,49644
900,45719;2,49049
898,40604;2,49165
896,35488;2,49981
894,30373;2,50317
892,25257;2,49817
890,20142;2,48825
888,15026;2,47788
886,09911;2,47277
884,04795;2,47096
881,9968;2,46992
879,94564;2,47619
877,89448;2,48527
875,84333;2,48478
873,79217;2,48119
871,74102;2,4819
869,68986;2,48159
867,63871;2,483
865,58755;2,49022
863,5364;2,49461
861,48524;2,49242
859,43409;2,49176
857,38293;2,49624
855,33178;2,49985
853,28062;2,50108
851,22947;2,50485
849,17831;2,50941
847,12715;2,51051
845,076;2,51128
843,02484;2,51261
840,97369;2,50763
838,92253;2,50174
836,87138;2,50494
834,82022;2,51069
832,76907;2,5135
830,71791;2,51541
828,66676;2,51524
826,6156;2,51597
824,56445;2,52146
822,51329;2,5214
820,46214;2,5115
818,41098;2,50197
816,35982;2,49605
814,30867;2,49853
812,25751;2,50752
810,20636;2,51317
808,1552;2,51416
806,10405;2,51206
804,05289;2,50887
802,00174;2,50733
799,95058;2,51188
797,89943;2,52103
795,84827;2,52357
793,79712;2,519
791,74596;2,51416
789,69481;2,508
787,64365;2,50431
785,59249;2,50557
783,54134;2,50806
781,49018;2,5115
779,43903;2,51039
777,38787;2,50817
775,33672;2,51107
773,28556;2,51065
771,23441;2,50822
769,18325;2,51349
767,1321;2,5189
765,08094;2,51793
763,02979;2,51968
760,97863;2,52142
758,92748;2,51648
756,87632;2,51356
754,82516;2,51451
752,77401;2,51151
750,72285;2,50441
748,6717;2,50255
746,62054;2,50385
744,56939;2,49664
742,51823;2,49203
740,46708;2,49836
738,41592;2,50532
736,36477;2,51012
734,31361;2,51407
732,26246;2,5139
730,2113;2,50924
728,16015;2,50291
726,10899;2,50094
724,05783;2,5087
722,00668;2,51102
719,95552;2,50033
717,90437;2,48992
715,85321;2,48875
713,80206;2,49468
711,7509;2,50111
709,69975;2,50111
707,64859;2,49289
705,59744;2,48276
703,54628;2,48073
701,49513;2,48539
699,44397;2,48949
697,39281;2,49311
695,34166;2,49573
693,2905;2,4977
691,23935;2,50492
689,18819;2,51273
687,13704;2,51014
685,08588;2,50338
683,03473;2,50043
680,98357;2,49625
678,93242;2,48994
676,88126;2,48657
674,83011;2,48813
672,77895;2,49203
670,7278;2,49198
668,67664;2,4866
666,62548;2,48215
664,57433;2,48139
662,52317;2,48282
660,47202;2,48256
658,42086;2,47824
656,36971;2,48077
654,31855;2,49413
652,2674;2,5003
650,21624;2,49203
648,16509;2,48358
646,11393;2,48262
644,06278;2,48497
642,01162;2,48313
639,96047;2,47553
637,90931;2,47017
635,85815;2,47524
633,807;2,49012
631,75584;2,5012
629,70469;2,50042
627,65353;2,49662
625,60238;2,49243
623,55122;2,4869
621,50007;2,49056
619,44891;2,50002
617,39776;2,49987
615,3466;2,49133
613,29545;2,49275
611,24429;2,50656
609,19314;2,5119
607,14198;2,5064
605,09082;2,50563
603,03967;2,50189
600,98851;2,48439
598,93736;2,46678
596,8862;2,4667
594,83505;2,48555
592,78389;2,51005
590,73274;2,53535
588,68158;2,55807
586,63043;2,56027
584,57927;2,53846
582,52812;2,51424
580,47696;2,50229
578,42581;2,49806
576,37465;2,49237
574,32349;2,486
572,27234;2,48747
570,22118;2,49923
568,17003;2,50599
566,11887;2,50047
564,06772;2,49738
562,01656;2,497
559,96541;2,48713
557,91425;2,47446
555,8631;2,47855
553,81194;2,50447
551,76079;2,52333
549,70963;2,51454
547,65848;2,50142
545,60732;2,50289
543,55616;2,49819
541,50501;2,48239
539,45385;2,47577
537,4027;2,47585
535,35154;2,47324
533,30039;2,47078
531,24923;2,47138
529,19808;2,47076
527,14692;2,45507
525,09577;2,43634
523,04461;2,43315
520,99346;2,43895
518,9423;2,4488
516,89115;2,4505
514,83999;2,43876
512,78883;2,43176
510,73768;2,42606
508,68652;2,40459
506,63537;2,37871
504,58421;2,36919
502,53306;2,37282
500,4819;2,37939
498,43075;2,38301
496,37959;2,37794
494,32844;2,37246
492,27728;2,37704
490,22613;2,38211
488,17497;2,38318
486,12382;2,38498
484,07266;2,37831
482,0215;2,3572
479,97035;2,33943
477,91919;2,34076
475,86804;2,35425
473,81688;2,36315
471,76573;2,35613
469,71457;2,33139
467,66342;2,30595
465,61226;2,29593
463,56111;2,30036
461,50995;2,31655
459,4588;2,33668
457,40764;2,34963
455,35649;2,35997
453,30533;2,36564
451,25417;2,35703
449,20302;2,34467
447,15186;2,33499
445,10071;2,317
443,04955;2,28843
440,9984;2,26084
438,94724;2,2536
436,89609;2,27681
434,84493;2,30052
432,79378;2,29567
430,74262;2,28497
428,69147;2,28008
426,64031;2,26333
424,58916;2,2452
422,538;2,2606
420,48684;2,31074
418,43569;2,33692
416,38453;2,30007
414,33338;2,25534
412,28222;2,24499
410,23107;2,25378
408,17991;2,26738
406,12876;2,30106
404,0776;2,33812
402,02645;2,3497
399,97529;2,34537
