3997,70175;1,78555
3995,6506;1,78621
3993,59944;1,78756
3991,54829;1,79
3989,49713;1,79218
3987,44598;1,7936
3985,39482;1,79427
3983,34367;1,7943
3981,29251;1,79447
3979,24136;1,7962
3977,1902;1,79927
3975,13905;1,80213
3973,08789;1,80427
3971,03673;1,80544
3968,98558;1,8061
3966,93442;1,80807
3964,88327;1,81136
3962,83211;1,81468
3960,78096;1,81808
3958,7298;1,82062
3956,67865;1,82169
3954,62749;1,82325
3952,57634;1,82664
3950,52518;1,83053
3948,47403;1,83315
3946,42287;1,8351
3944,37172;1,83687
3942,32056;1,83828
3940,2694;1,8389
3938,21825;1,83828
3936,16709;1,83728
3934,11594;1,8353
3932,06478;1,83172
3930,01363;1,82739
3927,96247;1,82319
3925,91132;1,81925
3923,86016;1,81574
3921,80901;1,81166
3919,75785;1,80605
3917,7067;1,80059
3915,65554;1,79698
3913,60439;1,79391
3911,55323;1,79045
3909,50207;1,78902
3907,45092;1,78991
3905,39976;1,7905
3903,34861;1,78958
3901,29745;1,78605
3899,2463;1,78092
3897,19514;1,77881
3895,14399;1,77864
3893,09283;1,77682
3891,04168;1,77551
3888,99052;1,77737
3886,93937;1,77862
3884,88821;1,7806
3882,83706;1,78289
3880,7859;1,7812
3878,73474;1,77933
3876,68359;1,77872
3874,63243;1,77927
3872,58128;1,78144
3870,53012;1,78099
3868,47897;1,78093
3866,42781;1,78135
3864,37666;1,77924
3862,3255;1,77613
3860,27435;1,7739
3858,22319;1,77315
3856,17204;1,7698
3854,12088;1,76359
3852,06973;1,76353
3850,01857;1,76756
3847,96741;1,7686
3845,91626;1,76721
3843,8651;1,76678
3841,81395;1,76869
3839,76279;1,76983
3837,71164;1,77044
3835,66048;1,77209
3833,60933;1,77152
3831,55817;1,76908
3829,50702;1,76821
3827,45586;1,76909
3825,40471;1,77245
3823,35355;1,77499
3821,3024;1,77616
3819,25124;1,77985
3817,20008;1,77864
3815,14893;1,77445
3813,09777;1,77428
3811,04662;1,7757
3808,99546;1,77637
3806,94431;1,77823
3804,89315;1,78305
3802,842;1,78408
3800,79084;1,7843
3798,73969;1,78731
3796,68853;1,78769
3794,63738;1,78761
3792,58622;1,78778
3790,53506;1,78743
3788,48391;1,78798
3786,43275;1,7899
3784,3816;1,793
3782,33044;1,79608
3780,27929;1,79658
3778,22813;1,79629
3776,17698;1,79792
3774,12582;1,80127
3772,07467;1,80438
3770,02351;1,80648
3767,97236;1,80875
3765,9212;1,80978
3763,87005;1,81167
3761,81889;1,81475
3759,76773;1,81802
3757,71658;1,82249
3755,66542;1,82684
3753,61427;1,82907
3751,56311;1,83071
3749,51196;1,83476
3747,4608;1,8381
3745,40965;1,83754
3743,35849;1,8432
3741,30734;1,85415
3739,25618;1,86145
3737,20503;1,86793
3735,15387;1,87528
3733,10272;1,8791
3731,05156;1,88104
3729,0004;1,88574
3726,94925;1,89255
3724,89809;1,9001
3722,84694;1,90589
3720,79578;1,91133
3718,74463;1,91844
3716,69347;1,92615
3714,64232;1,93305
3712,59116;1,94174
3710,54001;1,95525
3708,48885;1,96915
3706,4377;1,98139
3704,38654;1,9977
3702,33539;2,02476
3700,28423;2,06205
3698,23307;2,10064
3696,18192;2,13497
3694,13076;2,16058
3692,07961;2,17163
3690,02845;2,16876
3687,9773;2,15943
3685,92614;2,15325
3683,87499;2,15245
3681,82383;2,15712
3679,77268;2,16723
3677,72152;2,18176
3675,67037;2,20403
3673,61921;2,23593
3671,56806;2,26366
3669,5169;2,28691
3667,46574;2,31176
3665,41459;2,33538
3663,36343;2,35963
3661,31228;2,38561
3659,26112;2,41128
3657,20997;2,43847
3655,15881;2,47119
3653,10766;2,50632
3651,0565;2,54827
3649,00535;2,60928
3646,95419;2,67466
3644,90304;2,71981
3642,85188;2,73901
3640,80073;2,73876
3638,74957;2,72608
3636,69841;2,70457
3634,64726;2,68366
3632,5961;2,67878
3630,54495;2,68473
3628,49379;2,68541
3626,44264;2,68897
3624,39148;2,70446
3622,34033;2,72254
3620,28917;2,7348
3618,23802;2,74118
3616,18686;2,73844
3614,13571;2,73132
3612,08455;2,73105
3610,0334;2,73618
3607,98224;2,73929
3605,93108;2,73789
3603,87993;2,73605
3601,82877;2,74117
3599,77762;2,7541
3597,72646;2,767
3595,67531;2,77081
3593,62415;2,7674
3591,573;2,76979
3589,52184;2,77922
3587,47069;2,7839
3585,41953;2,78058
3583,36838;2,77776
3581,31722;2,78213
3579,26607;2,793
3577,21491;2,80533
3575,16375;2,81149
3573,1126;2,80866
3571,06144;2,80484
3569,01029;2,81168
3566,95913;2,82668
3564,90798;2,83081
3562,85682;2,82353
3560,80567;2,8194
3558,75451;2,82518
3556,70336;2,83865
3554,6522;2,84985
3552,60105;2,84849
3550,54989;2,8398
3548,49874;2,84345
3546,44758;2,86526
3544,39642;2,88478
3542,34527;2,88911
3540,29411;2,8871
3538,24296;2,88172
3536,1918;2,86723
3534,14065;2,85173
3532,08949;2,8519
3530,03834;2,86622
3527,98718;2,88079
3525,93603;2,88701
3523,88487;2,8801
3521,83372;2,8683
3519,78256;2,86659
3517,73141;2,8757
3515,68025;2,89042
3513,62909;2,90224
3511,57794;2,8982
3509,52678;2,88276
3507,47563;2,87102
3505,42447;2,86853
3503,37332;2,87427
3501,32216;2,88497
3499,27101;2,89995
3497,21985;2,91248
3495,1687;2,91475
3493,11754;2,91405
3491,06639;2,9167
3489,01523;2,9163
3486,96407;2,90374
3484,91292;2,88719
3482,86176;2,88954
3480,81061;2,91662
3478,75945;2,93757
3476,7083;2,92499
3474,65714;2,8983
3472,60599;2,88339
3470,55483;2,88258
3468,50368;2,89029
3466,45252;2,8957
3464,40137;2,90005
3462,35021;2,90845
3460,29906;2,90594
3458,2479;2,89001
3456,19674;2,88368
3454,14559;2,89557
3452,09443;2,90509
3450,04328;2,89613
3447,99212;2,88505
3445,94097;2,88998
3443,88981;2,90304
3441,83866;2,91402
3439,7875;2,92069
3437,73635;2,91922
3435,68519;2,91658
3433,63404;2,92006
3431,58288;2,92034
3429,53173;2,91421
3427,48057;2,91433
3425,42941;2,92732
3423,37826;2,94055
3421,3271;2,9302
3419,27595;2,90586
3417,22479;2,9043
3415,17364;2,92236
3413,12248;2,93098
3411,07133;2,92305
3409,02017;2,90605
3406,96902;2,89728
3404,91786;2,90564
3402,86671;2,90794
3400,81555;2,89471
3398,7644;2,88854
3396,71324;2,89735
3394,66208;2,91002
3392,61093;2,92103
3390,55977;2,9241
3388,50862;2,9103
3386,45746;2,89435
3384,40631;2,88814
3382,35515;2,88274
3380,304;2,88185
3378,25284;2,89524
3376,20169;2,91189
3374,15053;2,9179
3372,09938;2,91165
3370,04822;2,89965
3367,99707;2,88982
3365,94591;2,88408
3363,89475;2,88448
3361,8436;2,88719
3359,79244;2,88545
3357,74129;2,88316
3355,69013;2,88495
3353,63898;2,89053
3351,58782;2,89215
3349,53667;2,88735
3347,48551;2,88429
3345,43436;2,88098
3343,3832;2,87459
3341,33205;2,86895
3339,28089;2,86565
3337,22974;2,87071
3335,17858;2,88676
3333,12742;2,89592
3331,07627;2,89054
3329,02511;2,88879
3326,97396;2,89988
3324,9228;2,90506
3322,87165;2,88703
3320,82049;2,85951
3318,76934;2,84353
3316,71818;2,84131
3314,66703;2,84706
3312,61587;2,85747
3310,56472;2,86438
3308,51356;2,85795
3306,46241;2,84599
3304,41125;2,84353
3302,36009;2,85177
3300,30894;2,85583
3298,25778;2,84794
3296,20663;2,84015
3294,15547;2,83693
3292,10432;2,8306
3290,05316;2,82547
3288,00201;2,83085
3285,95085;2,84224
3283,8997;2,84959
3281,84854;2,84507
3279,79739;2,83209
3277,74623;2,82523
3275,69508;2,8237
3273,64392;2,82009
3271,59276;2,82102
3269,54161;2,82644
3267,49045;2,82894
3265,4393;2,83247
3263,38814;2,83607
3261,33699;2,83302
3259,28583;2,82647
3257,23468;2,82367
3255,18352;2,82746
3253,13237;2,82488
3251,08121;2,81228
3249,03006;2,80945
3246,9789;2,8227
3244,92775;2,83997
3242,87659;2,84608
3240,82543;2,83752
3238,77428;2,82302
3236,72312;2,80846
3234,67197;2,8013
3232,62081;2,80201
3230,56966;2,80139
3228,5185;2,7999
3226,46735;2,80111
3224,41619;2,802
3222,36504;2,80425
3220,31388;2,80743
3218,26273;2,80535
3216,21157;2,8015
3214,16041;2,80081
3212,10926;2,79935
3210,0581;2,79757
3208,00695;2,799
3205,95579;2,79504
3203,90464;2,78443
3201,85348;2,78353
3199,80233;2,78958
3197,75117;2,78469
3195,70002;2,77667
3193,64886;2,77943
3191,59771;2,78685
3189,54655;2,79133
3187,4954;2,78939
3185,44424;2,7846
3183,39308;2,78478
3181,34193;2,78333
3179,29077;2,77774
3177,23962;2,77931
3175,18846;2,78571
3173,13731;2,78518
3171,08615;2,7793
3169,035;2,77341
3166,98384;2,76721
3164,93269;2,76442
3162,88153;2,76405
3160,83038;2,758
3158,77922;2,752
3156,72807;2,75421
3154,67691;2,76143
3152,62575;2,76741
3150,5746;2,76855
3148,52344;2,76649
3146,47229;2,76105
3144,42113;2,74598
3142,36998;2,72823
3140,31882;2,72643
3138,26767;2,74044
3136,21651;2,75126
3134,16536;2,74718
3132,1142;2,73723
3130,06305;2,73215
3128,01189;2,73011
3125,96074;2,73075
3123,90958;2,73172
3121,85842;2,72807
3119,80727;2,72335
3117,75611;2,72002
3115,70496;2,71808
3113,6538;2,72283
3111,60265;2,73146
3109,55149;2,73244
3107,50034;2,72661
3105,44918;2,72113
3103,39803;2,71748
3101,34687;2,71677
3099,29572;2,71753
3097,24456;2,71572
3095,19341;2,71626
3093,14225;2,72269
3091,09109;2,7262
3089,03994;2,72029
3086,98878;2,71172
3084,93763;2,70785
3082,88647;2,70272
3080,83532;2,69577
3078,78416;2,69395
3076,73301;2,6924
3074,68185;2,69081
3072,6307;2,69366
3070,57954;2,69739
3068,52839;2,70322
3066,47723;2,71389
3064,42608;2,71973
3062,37492;2,71112
3060,32376;2,69652
3058,27261;2,68847
3056,22145;2,68932
3054,1703;2,69577
3052,11914;2,69935
3050,06799;2,69566
3048,01683;2,69221
3045,96568;2,69226
3043,91452;2,68875
3041,86337;2,68011
3039,81221;2,67642
3037,76106;2,6783
3035,7099;2,67681
3033,65875;2,67689
3031,60759;2,68324
3029,55643;2,6851
3027,50528;2,67824
3025,45412;2,67268
3023,40297;2,67457
3021,35181;2,67747
3019,30066;2,67542
3017,2495;2,67298
3015,19835;2,67272
3013,14719;2,6708
3011,09604;2,66568
3009,04488;2,65883
3006,99373;2,65478
3004,94257;2,65891
3002,89142;2,67241
3000,84026;2,68797
2998,7891;2,69177
2996,73795;2,68465
2994,68679;2,68471
2992,63564;2,69252
2990,58448;2,70022
2988,53333;2,70869
2986,48217;2,71459
2984,43102;2,71648
2982,37986;2,72165
2980,32871;2,72698
2978,27755;2,72476
2976,2264;2,71899
2974,17524;2,71412
2972,12409;2,70862
2970,07293;2,7063
2968,02177;2,71366
2965,97062;2,72275
2963,91946;2,72039
2961,86831;2,71287
2959,81715;2,71451
2957,766;2,72322
2955,71484;2,72445
2953,66369;2,71623
2951,61253;2,7059
2949,56138;2,69498
2947,51022;2,68774
2945,45907;2,68789
2943,40791;2,69384
2941,35675;2,70249
2939,3056;2,71125
2937,25444;2,71727
2935,20329;2,71654
2933,15213;2,70982
2931,10098;2,69979
2929,04982;2,69144
2926,99867;2,68999
2924,94751;2,69161
2922,89636;2,69297
2920,8452;2,69213
2918,79405;2,68451
2916,74289;2,67583
2914,69174;2,67397
2912,64058;2,67665
2910,58942;2,67883
2908,53827;2,67433
2906,48711;2,66732
2904,43596;2,66726
2902,3848;2,66773
2900,33365;2,66233
2898,28249;2,65742
2896,23134;2,65555
2894,18018;2,65326
2892,12903;2,6518
2890,07787;2,65083
2888,02672;2,64896
2885,97556;2,65118
2883,92441;2,65829
2881,87325;2,66365
2879,82209;2,66606
2877,77094;2,66893
2875,71978;2,6716
2873,66863;2,67211
2871,61747;2,67183
2869,56632;2,6719
2867,51516;2,66905
2865,46401;2,66344
2863,41285;2,65933
2861,3617;2,655
2859,31054;2,64711
2857,25939;2,63896
2855,20823;2,63401
2853,15708;2,62824
2851,10592;2,62049
2849,05476;2,61648
2847,00361;2,61657
2844,95245;2,61172
2842,9013;2,59987
2840,85014;2,59095
2838,79899;2,58542
2836,74783;2,57546
2834,69668;2,56391
2832,64552;2,55708
2830,59437;2,55092
2828,54321;2,53886
2826,49206;2,52423
2824,4409;2,51436
2822,38975;2,50822
2820,33859;2,50403
2818,28743;2,50448
2816,23628;2,50517
2814,18512;2,49843
2812,13397;2,48834
2810,08281;2,48394
2808,03166;2,48513
2805,9805;2,48496
2803,92935;2,48082
2801,87819;2,47617
2799,82704;2,47293
2797,77588;2,47083
2795,72473;2,46977
2793,67357;2,46908
2791,62242;2,46718
2789,57126;2,46088
2787,5201;2,45069
2785,46895;2,44158
2783,41779;2,43707
2781,36664;2,43675
2779,31548;2,43696
2777,26433;2,43412
2775,21317;2,42972
2773,16202;2,42831
2771,11086;2,42984
2769,05971;2,43024
2767,00855;2,42828
2764,9574;2,42533
2762,90624;2,42157
2760,85509;2,41772
2758,80393;2,41553
2756,75277;2,41329
2754,70162;2,40824
2752,65046;2,40372
2750,59931;2,40399
2748,54815;2,40634
2746,497;2,40576
2744,44584;2,40276
2742,39469;2,40033
2740,34353;2,39891
2738,29238;2,39889
2736,24122;2,39968
2734,19007;2,39778
2732,13891;2,39305
2730,08776;2,38795
2728,0366;2,38371
2725,98544;2,38143
2723,93429;2,38045
2721,88313;2,38074
2719,83198;2,38214
2717,78082;2,38244
2715,72967;2,37988
2713,67851;2,37593
2711,62736;2,37384
2709,5762;2,37297
2707,52505;2,37168
2705,47389;2,37078
2703,42274;2,36927
2701,37158;2,36614
2699,32043;2,3641
2697,26927;2,36468
2695,21811;2,36628
2693,16696;2,36662
2691,1158;2,36444
2689,06465;2,36196
2687,01349;2,36205
2684,96234;2,36406
2682,91118;2,36383
2680,86003;2,36099
2678,80887;2,35895
2676,75772;2,35789
2674,70656;2,35816
2672,65541;2,35988
2670,60425;2,35983
2668,55309;2,35723
2666,50194;2,355
2664,45078;2,35547
2662,39963;2,35868
2660,34847;2,36076
2658,29732;2,35776
2656,24616;2,353
2654,19501;2,35301
2652,14385;2,35721
2650,0927;2,36004
2648,04154;2,35979
2645,99039;2,35834
2643,93923;2,35897
2641,88808;2,36401
2639,83692;2,37027
2637,78576;2,37355
2635,73461;2,37656
2633,68345;2,38198
2631,6323;2,38898
2629,58114;2,39809
2627,52999;2,40731
2625,47883;2,41367
2623,42768;2,41931
2621,37652;2,42707
2619,32537;2,43538
2617,27421;2,44151
2615,22306;2,44586
2613,1719;2,44938
2611,12075;2,45219
2609,06959;2,45664
2607,01843;2,46258
2604,96728;2,46573
2602,91612;2,46864
2600,86497;2,47539
2598,81381;2,4799
2596,76266;2,47695
2594,7115;2,47351
2592,66035;2,47556
2590,60919;2,47823
2588,55804;2,47857
2586,50688;2,48069
2584,45573;2,48446
2582,40457;2,48595
2580,35342;2,48596
2578,30226;2,48585
2576,2511;2,48469
2574,19995;2,48428
2572,14879;2,48648
2570,09764;2,4898
2568,04648;2,49377
2565,99533;2,49613
2563,94417;2,49287
2561,89302;2,48992
2559,84186;2,49276
2557,79071;2,49459
2555,73955;2,49359
2553,6884;2,49555
2551,63724;2,4989
2549,58609;2,50166
2547,53493;2,50771
2545,48377;2,51507
2543,43262;2,51897
2541,38146;2,52137
2539,33031;2,5261
2537,27915;2,53365
2535,228;2,5413
2533,17684;2,54725
2531,12569;2,554
2529,07453;2,56358
2527,02338;2,57346
2524,97222;2,58033
2522,92107;2,58374
2520,86991;2,58792
2518,81876;2,59479
2516,7676;2,59857
2514,71644;2,59764
2512,66529;2,59732
2510,61413;2,59769
2508,56298;2,5953
2506,51182;2,59063
2504,46067;2,58499
2502,40951;2,57786
2500,35836;2,56808
2498,3072;2,55574
2496,25605;2,5422
2494,20489;2,52973
2492,15374;2,51991
2490,10258;2,50929
2488,05143;2,4951
2486,00027;2,47968
2483,94911;2,46445
2481,89796;2,45071
2479,8468;2,43867
2477,79565;2,42608
2475,74449;2,41487
2473,69334;2,40552
2471,64218;2,39402
2469,59103;2,38114
2467,53987;2,37079
2465,48872;2,36364
2463,43756;2,3583
2461,38641;2,35274
2459,33525;2,34622
2457,2841;2,34127
2455,23294;2,33755
2453,18178;2,33175
2451,13063;2,32549
2449,07947;2,32208
2447,02832;2,32032
2444,97716;2,31661
2442,92601;2,31129
2440,87485;2,30642
2438,8237;2,30226
2436,77254;2,29996
2434,72139;2,29836
2432,67023;2,29565
2430,61908;2,29306
2428,56792;2,2898
2426,51677;2,28629
2424,46561;2,28483
2422,41445;2,28332
2420,3633;2,28061
2418,31214;2,27894
2416,26099;2,27751
2414,20983;2,27432
2412,15868;2,27139
2410,10752;2,27189
2408,05637;2,27364
2406,00521;2,27194
2403,95406;2,26863
2401,9029;2,26751
2399,85175;2,26674
2397,80059;2,26536
2395,74944;2,26405
2393,69828;2,26325
2391,64712;2,26303
2389,59597;2,2622
2387,54481;2,25928
2385,49366;2,25672
2383,4425;2,25858
2381,39135;2,26369
2379,34019;2,26762
2377,28904;2,26933
2375,23788;2,27059
2373,18673;2,27106
2371,13557;2,26967
2369,08442;2,26895
2367,03326;2,2716
2364,9821;2,27532
2362,93095;2,27741
2360,87979;2,27986
2358,82864;2,27994
2356,77748;2,27515
2354,72633;2,27213
2352,67517;2,27387
2350,62402;2,27608
2348,57286;2,2743
2346,52171;2,26852
2344,47055;2,26404
2342,4194;2,26397
2340,36824;2,26385
2338,31709;2,26133
2336,26593;2,26035
2334,21477;2,2637
2332,16362;2,26963
2330,11246;2,27356
2328,06131;2,27353
2326,01015;2,27154
2323,959;2,27041
2321,90784;2,27076
2319,85669;2,27102
2317,80553;2,27062
2315,75438;2,26977
2313,70322;2,26834
2311,65207;2,26734
2309,60091;2,26758
2307,54976;2,26725
2305,4986;2,26537
2303,44744;2,26386
2301,39629;2,26408
2299,34513;2,26529
2297,29398;2,26634
2295,24282;2,26692
2293,19167;2,26778
2291,14051;2,26926
2289,08936;2,27007
2287,0382;2,26978
2284,98705;2,26976
2282,93589;2,27046
2280,88474;2,27075
2278,83358;2,27122
2276,78243;2,27369
2274,73127;2,27637
2272,68011;2,27629
2270,62896;2,27438
2268,5778;2,27267
2266,52665;2,27235
2264,47549;2,27415
2262,42434;2,27658
2260,37318;2,27812
2258,32203;2,27949
2256,27087;2,28163
2254,21972;2,2838
2252,16856;2,28559
2250,11741;2,2878
2248,06625;2,28952
2246,0151;2,28903
2243,96394;2,28924
2241,91278;2,29231
2239,86163;2,29684
2237,81047;2,30051
2235,75932;2,30276
2233,70816;2,30526
2231,65701;2,30755
2229,60585;2,30959
2227,5547;2,31253
2225,50354;2,3149
2223,45239;2,31626
2221,40123;2,31662
2219,35008;2,31592
2217,29892;2,31695
2215,24777;2,32034
2213,19661;2,32226
2211,14545;2,32221
2209,0943;2,32318
2207,04314;2,32557
2204,99199;2,32836
2202,94083;2,33102
2200,88968;2,3317
2198,83852;2,32971
2196,78737;2,32906
2194,73621;2,33208
2192,68506;2,33573
2190,6339;2,3377
2188,58275;2,33879
2186,53159;2,33986
2184,48044;2,34161
2182,42928;2,34394
2180,37812;2,34532
2178,32697;2,34674
2176,27581;2,3504
2174,22466;2,3541
2172,1735;2,35581
2170,12235;2,35748
2168,07119;2,35921
2166,02004;2,36096
2163,96888;2,36423
2161,91773;2,36785
2159,86657;2,3702
2157,81542;2,37326
2155,76426;2,38019
2153,71311;2,3896
2151,66195;2,3975
2149,61079;2,40303
2147,55964;2,40537
2145,50848;2,4052
2143,45733;2,40793
2141,40617;2,41416
2139,35502;2,41768
2137,30386;2,41656
2135,25271;2,41343
2133,20155;2,40877
2131,1504;2,40386
2129,09924;2,3999
2127,04809;2,39602
2124,99693;2,39327
2122,94578;2,39028
2120,89462;2,38367
2118,84346;2,37664
2116,79231;2,37357
2114,74115;2,37282
2112,69;2,3708
2110,63884;2,36765
2108,58769;2,36608
2106,53653;2,36545
2104,48538;2,36548
2102,43422;2,36761
2100,38307;2,36953
2098,33191;2,36917
2096,28076;2,36811
2094,2296;2,36823
2092,17844;2,36853
2090,12729;2,36784
2088,07613;2,36831
2086,02498;2,37127
2083,97382;2,3742
2081,92267;2,37471
2079,87151;2,37465
2077,82036;2,37593
2075,7692;2,37697
2073,71805;2,37666
2071,66689;2,37597
2069,61574;2,3758
2067,56458;2,37683
2065,51343;2,37891
2063,46227;2,38048
2061,41111;2,38061
2059,35996;2,38034
2057,3088;2,38038
2055,25765;2,38016
2053,20649;2,38053
2051,15534;2,38221
2049,10418;2,38314
2047,05303;2,3833
2045,00187;2,38548
2042,95072;2,38846
2040,89956;2,38915
2038,84841;2,38854
2036,79725;2,38893
2034,7461;2,3906
2032,69494;2,39212
2030,64378;2,39317
2028,59263;2,39539
2026,54147;2,39799
2024,49032;2,399
2022,43916;2,40007
2020,38801;2,40252
2018,33685;2,40513
2016,2857;2,40671
2014,23454;2,40627
2012,18339;2,40447
2010,13223;2,40422
2008,08108;2,40667
2006,02992;2,40915
2003,97877;2,40892
2001,92761;2,40712
1999,87645;2,40641
1997,8253;2,4071
1995,77414;2,40826
1993,72299;2,40956
1991,67183;2,4123
1989,62068;2,41777
1987,56952;2,42418
1985,51837;2,42799
1983,46721;2,42707
1981,41606;2,42452
1979,3649;2,4232
1977,31375;2,4234
1975,26259;2,42461
1973,21144;2,42608
1971,16028;2,42909
1969,10912;2,43471
1967,05797;2,44102
1965,00681;2,44516
1962,95566;2,44804
1960,9045;2,45132
1958,85335;2,45173
1956,80219;2,44915
1954,75104;2,44764
1952,69988;2,44678
1950,64873;2,44537
1948,59757;2,44735
1946,54642;2,45269
1944,49526;2,45288
1942,44411;2,4471
1940,39295;2,44644
1938,34179;2,4529
1936,29064;2,45919
1934,23948;2,46071
1932,18833;2,46117
1930,13717;2,46337
1928,08602;2,46474
1926,03486;2,46619
1923,98371;2,46939
1921,93255;2,47431
1919,8814;2,47869
1917,83024;2,48149
1915,77909;2,48438
1913,72793;2,48572
1911,67678;2,48575
1909,62562;2,48519
1907,57446;2,48327
1905,52331;2,48134
1903,47215;2,48337
1901,421;2,48872
1899,36984;2,49225
1897,31869;2,49275
1895,26753;2,49355
1893,21638;2,49741
1891,16522;2,50334
1889,11407;2,50913
1887,06291;2,51221
1885,01176;2,51344
1882,9606;2,51804
1880,90945;2,5237
1878,85829;2,52408
1876,80713;2,52154
1874,75598;2,52233
1872,70482;2,52652
1870,65367;2,5313
1868,60251;2,53775
1866,55136;2,54585
1864,5002;2,55089
1862,44905;2,55094
1860,39789;2,55062
1858,34674;2,55542
1856,29558;2,56311
1854,24443;2,56866
1852,19327;2,57326
1850,14212;2,57943
1848,09096;2,58544
1846,0398;2,59038
1843,98865;2,59766
1841,93749;2,60648
1839,88634;2,61037
1837,83518;2,61174
1835,78403;2,61558
1833,73287;2,62125
1831,68172;2,62738
1829,63056;2,63427
1827,57941;2,64177
1825,52825;2,6502
1823,4771;2,66177
1821,42594;2,6727
1819,37478;2,68086
1817,32363;2,68947
1815,27247;2,69989
1813,22132;2,71186
1811,17016;2,72545
1809,11901;2,74062
1807,06785;2,75838
1805,0167;2,77866
1802,96554;2,79735
1800,91439;2,8126
1798,86323;2,8278
1796,81208;2,84389
1794,76092;2,85414
1792,70977;2,85025
1790,65861;2,83691
1788,60745;2,8232
1786,5563;2,80954
1784,50514;2,79749
1782,45399;2,78664
1780,40283;2,77527
1778,35168;2,76894
1776,30052;2,76882
1774,24937;2,76734
1772,19821;2,76088
1770,14706;2,75726
1768,0959;2,76271
1766,04475;2,77413
1763,99359;2,78174
1761,94244;2,7842
1759,89128;2,78716
1757,84012;2,78991
1755,78897;2,79353
1753,73781;2,79899
1751,68666;2,80674
1749,6355;2,81926
1747,58435;2,83063
1745,53319;2,83629
1743,48204;2,83866
1741,43088;2,83929
1739,37973;2,83931
1737,32857;2,8401
1735,27742;2,83978
1733,22626;2,84765
1731,17511;2,86411
1729,12395;2,87381
1727,07279;2,87654
1725,02164;2,87991
1722,97048;2,88558
1720,91933;2,88896
1718,86817;2,89349
1716,81702;2,91183
1714,76586;2,93608
1712,71471;2,95229
1710,66355;2,96113
1708,6124;2,96676
1706,56124;2,97932
1704,51009;3,01033
1702,45893;3,05364
1700,40778;3,08787
1698,35662;3,09138
1696,30546;3,07263
1694,25431;3,06521
1692,20315;3,07217
1690,152;3,08512
1688,10084;3,10465
1686,04969;3,11888
1683,99853;3,1131
1681,94738;3,09014
1679,89622;3,06659
1677,84507;3,05114
1675,79391;3,04074
1673,74276;3,03677
1671,6916;3,03756
1669,64045;3,03715
1667,58929;3,0344
1665,53813;3,02394
1663,48698;3,00507
1661,43582;2,98766
1659,38467;2,97242
1657,33351;2,95491
1655,28236;2,93598
1653,2312;2,92061
1651,18005;2,91312
1649,12889;2,8985
1647,07774;2,87966
1645,02658;2,87706
1642,97543;2,88228
1640,92427;2,88045
1638,87312;2,8702
1636,82196;2,85055
1634,7708;2,83356
1632,71965;2,83275
1630,66849;2,83279
1628,61734;2,82503
1626,56618;2,82232
1624,51503;2,82807
1622,46387;2,83062
1620,41272;2,8256
1618,36156;2,81717
1616,31041;2,81564
1614,25925;2,82223
1612,2081;2,82542
1610,15694;2,82429
1608,10579;2,82331
1606,05463;2,8235
1604,00347;2,82492
1601,95232;2,82792
1599,90116;2,83089
1597,85001;2,83299
1595,79885;2,83654
1593,7477;2,8404
1591,69654;2,8416
1589,64539;2,84191
1587,59423;2,84242
1585,54308;2,84248
1583,49192;2,84025
1581,44077;2,83537
1579,38961;2,83202
1577,33846;2,82827
1575,2873;2,8217
1573,23614;2,81505
1571,18499;2,80773
1569,13383;2,80257
1567,08268;2,79899
1565,03152;2,79308
1562,98037;2,78504
1560,92921;2,76383
1558,87806;2,7312
1556,8269;2,71941
1554,77575;2,71943
1552,72459;2,71319
1550,67344;2,70112
1548,62228;2,68967
1546,57113;2,68272
1544,51997;2,68174
1542,46881;2,68718
1540,41766;2,69163
1538,3665;2,69104
1536,31535;2,68597
1534,26419;2,67826
1532,21304;2,67494
1530,16188;2,67222
1528,11073;2,66594
1526,05957;2,66349
1524,00842;2,66472
1521,95726;2,6618
1519,90611;2,66126
1517,85495;2,66338
1515,80379;2,65801
1513,75264;2,64514
1511,70148;2,63386
1509,65033;2,62694
1507,59917;2,6132
1505,54802;2,59455
1503,49686;2,58507
1501,44571;2,58034
1499,39455;2,57497
1497,3434;2,56745
1495,29224;2,56006
1493,24109;2,55548
1491,18993;2,55126
1489,13878;2,54574
1487,08762;2,5367
1485,03646;2,52636
1482,98531;2,51919
1480,93415;2,51654
1478,883;2,51803
1476,83184;2,52406
1474,78069;2,53283
1472,72953;2,53838
1470,67838;2,54157
1468,62722;2,54252
1466,57607;2,5407
1464,52491;2,54146
1462,47376;2,54687
1460,4226;2,55163
1458,37145;2,5524
1456,32029;2,55256
1454,26913;2,55403
1452,21798;2,55209
1450,16682;2,54757
1448,11567;2,54362
1446,06451;2,54165
1444,01336;2,54087
1441,9622;2,54058
1439,91105;2,53814
1437,85989;2,53045
1435,80874;2,52554
1433,75758;2,52556
1431,70643;2,51926
1429,65527;2,50805
1427,60412;2,49812
1425,55296;2,48679
1423,5018;2,47386
1421,45065;2,45937
1419,39949;2,44124
1417,34834;2,42489
1415,29718;2,40943
1413,24603;2,38947
1411,19487;2,36838
1409,14372;2,35459
1407,09256;2,35201
1405,04141;2,35984
1402,99025;2,37487
1400,9391;2,39088
1398,88794;2,40652
1396,83679;2,42165
1394,78563;2,43418
1392,73447;2,4462
1390,68332;2,45794
1388,63216;2,46963
1386,58101;2,48355
1384,52985;2,49733
1382,4787;2,50873
1380,42754;2,51983
1378,37639;2,52925
1376,32523;2,53601
1374,27408;2,54452
1372,22292;2,55628
1370,17177;2,5648
1368,12061;2,56864
1366,06946;2,57261
1364,0183;2,5783
1361,96714;2,58432
1359,91599;2,58861
1357,86483;2,59229
1355,81368;2,59864
1353,76252;2,60589
1351,71137;2,61021
1349,66021;2,61236
1347,60906;2,61392
1345,5579;2,61538
1343,50675;2,61792
1341,45559;2,61988
1339,40444;2,62063
1337,35328;2,62432
1335,30213;2,63073
1333,25097;2,63514
1331,19981;2,63725
1329,14866;2,639
1327,0975;2,63803
1325,04635;2,63554
1322,99519;2,63748
1320,94404;2,64383
1318,89288;2,65033
1316,84173;2,65523
1314,79057;2,6554
1312,73942;2,64956
1310,68826;2,64354
1308,63711;2,64265
1306,58595;2,64737
1304,5348;2,65336
1302,48364;2,65687
1300,43248;2,65889
1298,38133;2,66032
1296,33017;2,65991
1294,27902;2,65817
1292,22786;2,65819
1290,17671;2,66172
1288,12555;2,66504
1286,0744;2,66365
1284,02324;2,66347
1281,97209;2,66883
1279,92093;2,67124
1277,86978;2,66898
1275,81862;2,66941
1273,76747;2,67225
1271,71631;2,67576
1269,66515;2,6792
1267,614;2,67856
1265,56284;2,67498
1263,51169;2,67516
1261,46053;2,68091
1259,40938;2,68677
1257,35822;2,69081
1255,30707;2,69527
1253,25591;2,70001
1251,20476;2,70504
1249,1536;2,70738
1247,10245;2,70541
1245,05129;2,70481
1243,00013;2,70968
1240,94898;2,71451
1238,89782;2,71029
1236,84667;2,70129
1234,79551;2,70056
1232,74436;2,70757
1230,6932;2,71147
1228,64205;2,71042
1226,59089;2,71004
1224,53974;2,70973
1222,48858;2,70702
1220,43743;2,70859
1218,38627;2,71539
1216,33512;2,71809
1214,28396;2,71529
1212,2328;2,71456
1210,18165;2,72126
1208,13049;2,7333
1206,07934;2,74251
1204,02818;2,74535
1201,97703;2,74317
1199,92587;2,74223
1197,87472;2,74876
1195,82356;2,75507
1193,77241;2,75694
1191,72125;2,76271
1189,6701;2,7704
1187,61894;2,77167
1185,56779;2,77365
1183,51663;2,7834
1181,46547;2,78871
1179,41432;2,78276
1177,36316;2,77837
1175,31201;2,7809
1173,26085;2,78404
1171,2097;2,79111
1169,15854;2,80166
1167,10739;2,80362
1165,05623;2,79782
1163,00508;2,79347
1160,95392;2,79395
1158,90277;2,79939
1156,85161;2,80367
1154,80046;2,8029
1152,7493;2,79985
1150,69814;2,79224
1148,64699;2,78144
1146,59583;2,77855
1144,54468;2,78528
1142,49352;2,79415
1140,44237;2,80081
1138,39121;2,80074
1136,34006;2,79715
1134,2889;2,79889
1132,23775;2,79983
1130,18659;2,7925
1128,13544;2,78887
1126,08428;2,79589
1124,03313;2,80703
1121,98197;2,81704
1119,93081;2,814
1117,87966;2,79797
1115,8285;2,79206
1113,77735;2,80002
1111,72619;2,80365
1109,67504;2,79709
1107,62388;2,78855
1105,57273;2,78318
1103,52157;2,77711
1101,47042;2,76795
1099,41926;2,76062
1097,36811;2,76041
1095,31695;2,76434
1093,2658;2,76152
1091,21464;2,75311
1089,16348;2,73976
1087,11233;2,72075
1085,06117;2,71073
1083,01002;2,71181
1080,95886;2,7041
1078,90771;2,68451
1076,85655;2,67387
1074,8054;2,67003
1072,75424;2,65703
1070,70309;2,64373
1068,65193;2,63506
1066,60078;2,61718
1064,54962;2,58889
1062,49847;2,5617
1060,44731;2,54238
1058,39615;2,53002
1056,345;2,52158
1054,29384;2,51542
1052,24269;2,51012
1050,19153;2,50515
1048,14038;2,49834
1046,08922;2,48894
1044,03807;2,48278
1041,98691;2,48227
1039,93576;2,48483
1037,8846;2,49182
1035,83345;2,49938
1033,78229;2,49867
1031,73114;2,49127
1029,67998;2,48491
1027,62882;2,48363
1025,57767;2,48431
1023,52651;2,48486
1021,47536;2,48811
1019,4242;2,49631
1017,37305;2,50639
1015,32189;2,51051
1013,27074;2,51054
1011,21958;2,51451
1009,16843;2,52369
1007,11727;2,53343
1005,06612;2,53947
1003,01496;2,54377
1000,96381;2,55128
998,91265;2,56379
996,86149;2,57624
994,81034;2,58292
992,75918;2,58338
990,70803;2,58183
988,65687;2,58413
986,60572;2,59088
984,55456;2,60088
982,50341;2,61063
980,45225;2,61607
978,4011;2,61929
976,34994;2,62235
974,29879;2,62634
972,24763;2,62918
970,19647;2,62894
968,14532;2,63131
966,09416;2,63951
964,04301;2,64772
961,99185;2,65202
959,9407;2,65424
957,88954;2,65443
955,83839;2,661
953,78723;2,67792
951,73608;2,68776
949,68492;2,68577
947,63377;2,68468
945,58261;2,68342
943,53146;2,67992
941,4803;2,68273
939,42914;2,69522
937,37799;2,70924
935,32683;2,70903
933,27568;2,69482
931,22452;2,68911
929,17337;2,70011
927,12221;2,7119
925,07106;2,71286
923,0199;2,70956
920,96875;2,70919
918,91759;2,71283
916,86644;2,71587
914,81528;2,71054
912,76413;2,70372
910,71297;2,70635
908,66181;2,71517
906,61066;2,723
904,5595;2,72903
902,50835;2,73426
900,45719;2,73618
898,40604;2,73811
896,35488;2,73767
894,30373;2,71985
892,25257;2,68652
890,20142;2,65229
888,15026;2,63209
886,09911;2,64401
884,04795;2,69239
881,9968;2,75268
879,94564;2,78758
877,89448;2,7851
875,84333;2,75095
873,79217;2,68726
871,74102;2,63026
869,68986;2,62086
867,63871;2,6451
865,58755;2,66744
863,5364;2,68173
861,48524;2,6982
859,43409;2,71336
857,38293;2,71417
855,33178;2,70796
853,28062;2,71596
851,22947;2,73981
849,17831;2,76223
847,12715;2,76804
845,076;2,75019
843,02484;2,72394
840,97369;2,71665
838,92253;2,73531
836,87138;2,75461
834,82022;2,75128
832,76907;2,73567
830,71791;2,72734
828,66676;2,73246
826,6156;2,74145
824,56445;2,73768
822,51329;2,72698
820,46214;2,72719
818,41098;2,74316
816,35982;2,76495
814,30867;2,77384
812,25751;2,76778
810,20636;2,75353
808,1552;2,74481
806,10405;2,75734
804,05289;2,77335
802,00174;2,77763
799,95058;2,77676
797,89943;2,77649
795,84827;2,78129
793,79712;2,78781
791,74596;2,79011
789,69481;2,79149
787,64365;2,79325
785,59249;2,78759
783,54134;2,76739
781,49018;2,74596
779,43903;2,74185
777,38787;2,75874
775,33672;2,78628
773,28556;2,80702
771,23441;2,80356
769,18325;2,78686
767,1321;2,78528
765,08094;2,79992
763,02979;2,81773
760,97863;2,82609
758,92748;2,81733
756,87632;2,80341
754,82516;2,80545
752,77401;2,81593
750,72285;2,80749
748,6717;2,78824
746,62054;2,77739
744,56939;2,77302
742,51823;2,77636
740,46708;2,77944
738,41592;2,77346
736,36477;2,77788
734,31361;2,8015
732,26246;2,82449
730,2113;2,83148
728,16015;2,81979
726,10899;2,80933
724,05783;2,82356
722,00668;2,85188
719,95552;2,87609
717,90437;2,90542
715,85321;2,94299
713,80206;2,94296
711,7509;2,89135
709,69975;2,83298
707,64859;2,80386
705,59744;2,81076
703,54628;2,8314
701,49513;2,83708
699,44397;2,82542
697,39281;2,81459
695,34166;2,81518
693,2905;2,82498
691,23935;2,82592
689,18819;2,80916
687,13704;2,80151
685,08588;2,81641
683,03473;2,82561
680,98357;2,81091
678,93242;2,79623
676,88126;2,80195
674,83011;2,81737
672,77895;2,82582
670,7278;2,82289
668,67664;2,81552
666,62548;2,81431
664,57433;2,81597
662,52317;2,8124
660,47202;2,81052
658,42086;2,81709
656,36971;2,82029
654,31855;2,80195
652,2674;2,77366
650,21624;2,77574
648,16509;2,80527
646,11393;2,81219
644,06278;2,78557
642,01162;2,77138
639,96047;2,78594
637,90931;2,79232
635,85815;2,78428
633,807;2,79298
631,75584;2,82195
629,70469;2,84212
627,65353;2,83591
625,60238;2,82701
623,55122;2,83412
621,50007;2,8588
619,44891;2,86881
617,39776;2,83555
615,3466;2,78944
613,29545;2,77413
611,24429;2,78405
609,19314;2,79661
607,14198;2,81108
605,09082;2,82869
603,03967;2,83905
600,98851;2,83481
598,93736;2,84471
596,8862;2,87449
594,83505;2,87347
592,78389;2,83994
590,73274;2,82029
588,68158;2,80036
586,63043;2,7824
584,57927;2,79236
582,52812;2,8139
580,47696;2,83356
578,42581;2,83857
576,37465;2,81717
574,32349;2,80169
572,27234;2,79678
570,22118;2,77554
568,17003;2,75321
566,11887;2,75617
564,06772;2,76455
562,01656;2,74905
559,96541;2,7184
557,91425;2,70501
555,8631;2,71415
553,81194;2,72164
551,76079;2,7321
549,70963;2,75517
547,65848;2,75245
545,60732;2,73034
543,55616;2,72693
541,50501;2,71248
539,45385;2,67946
537,4027;2,65612
535,35154;2,65088
533,30039;2,66561
531,24923;2,67368
529,19808;2,65353
527,14692;2,61931
525,09577;2,59088
523,04461;2,59297
520,99346;2,61929
518,9423;2,62579
516,89115;2,59877
514,83999;2,57307
512,78883;2,57772
510,73768;2,59501
508,68652;2,58661
506,63537;2,55383
504,58421;2,52664
502,53306;2,52149
500,4819;2,53352
498,43075;2,54515
496,37959;2,54394
494,32844;2,53123
492,27728;2,51739
490,22613;2,51218
488,17497;2,52414
486,12382;2,54545
484,07266;2,55801
482,0215;2,56187
479,97035;2,56453
477,91919;2,56354
475,86804;2,5566
473,81688;2,54582
471,76573;2,53402
469,71457;2,52512
467,66342;2,52646
465,61226;2,52883
463,56111;2,51893
461,50995;2,50618
459,4588;2,48825
457,40764;2,46779
455,35649;2,46666
453,30533;2,47978
451,25417;2,48658
449,20302;2,48032
447,15186;2,46724
445,10071;2,47036
443,04955;2,51737
440,9984;2,57291
438,94724;2,58054
436,89609;2,56129
434,84493;2,54073
432,79378;2,53363
430,74262;2,54395
428,69147;2,55165
426,64031;2,53484
424,58916;2,50414
422,538;2,49991
420,48684;2,52486
418,43569;2,54649
416,38453;2,54482
414,33338;2,52432
412,28222;2,50935
410,23107;2,52557
408,17991;2,56841
406,12876;2,60856
404,0776;2,60044
402,02645;2,5449
399,97529;2,48583
