3997,70175;1,86969
3995,6506;1,87064
3993,59944;1,87185
3991,54829;1,87349
3989,49713;1,875
3987,44598;1,87557
3985,39482;1,875
3983,34367;1,87511
3981,29251;1,87657
3979,24136;1,87799
3977,1902;1,87909
3975,13905;1,88004
3973,08789;1,8803
3971,03673;1,88051
3968,98558;1,8817
3966,93442;1,88341
3964,88327;1,88473
3962,83211;1,88551
3960,78096;1,88663
3958,7298;1,88803
3956,67865;1,88899
3954,62749;1,89027
3952,57634;1,89232
3950,52518;1,89384
3948,47403;1,8945
3946,42287;1,89528
3944,37172;1,89438
3942,32056;1,89229
3940,2694;1,89165
3938,21825;1,89232
3936,16709;1,8939
3934,11594;1,89398
3932,06478;1,89243
3930,01363;1,8914
3927,96247;1,8901
3925,91132;1,88724
3923,86016;1,8841
3921,80901;1,88028
3919,75785;1,87483
3917,7067;1,87005
3915,65554;1,86783
3913,60439;1,86641
3911,55323;1,86446
3909,50207;1,8638
3907,45092;1,86398
3905,39976;1,86415
3903,34861;1,8655
3901,29745;1,86551
3899,2463;1,86321
3897,19514;1,86277
3895,14399;1,86192
3893,09283;1,85789
3891,04168;1,85604
3888,99052;1,85912
3886,93937;1,86009
3884,88821;1,86233
3882,83706;1,86537
3880,7859;1,86316
3878,73474;1,86242
3876,68359;1,86197
3874,63243;1,86027
3872,58128;1,86088
3870,53012;1,85992
3868,47897;1,86131
3866,42781;1,86263
3864,37666;1,8615
3862,3255;1,86101
3860,27435;1,85972
3858,22319;1,85907
3856,17204;1,85635
3854,12088;1,85162
3852,06973;1,85502
3850,01857;1,85984
3847,96741;1,8587
3845,91626;1,85675
3843,8651;1,85876
3841,81395;1,86327
3839,76279;1,86274
3837,71164;1,85854
3835,66048;1,85785
3833,60933;1,85811
3831,55817;1,85706
3829,50702;1,85707
3827,45586;1,85822
3825,40471;1,86268
3823,35355;1,86596
3821,3024;1,86636
3819,25124;1,86986
3817,20008;1,86761
3815,14893;1,86435
3813,09777;1,86729
3811,04662;1,87008
3808,99546;1,86994
3806,94431;1,87047
3804,89315;1,87569
3802,842;1,87679
3800,79084;1,87821
3798,73969;1,88238
3796,68853;1,88037
3794,63738;1,87801
3792,58622;1,87817
3790,53506;1,87964
3788,48391;1,88281
3786,43275;1,88702
3784,3816;1,89188
3782,33044;1,89543
3780,27929;1,89506
3778,22813;1,89495
3776,17698;1,89623
3774,12582;1,89652
3772,07467;1,89612
3770,02351;1,89743
3767,97236;1,90176
3765,9212;1,90498
3763,87005;1,90988
3761,81889;1,91576
3759,76773;1,9201
3757,71658;1,92462
3755,66542;1,92851
3753,61427;1,93083
3751,56311;1,93523
3749,51196;1,94438
3747,4608;1,95007
3745,40965;1,94634
3743,35849;1,94985
3741,30734;1,96113
3739,25618;1,96806
3737,20503;1,97433
3735,15387;1,98215
3733,10272;1,98815
3731,05156;1,99407
3729,0004;2,00121
3726,94925;2,00677
3724,89809;2,01331
3722,84694;2,02126
3720,79578;2,03003
3718,74463;2,03865
3716,69347;2,04774
3714,64232;2,05723
3712,59116;2,06744
3710,54001;2,08155
3708,48885;2,09604
3706,4377;2,10776
3704,38654;2,1214
3702,33539;2,14392
3700,28423;2,17654
3698,23307;2,20823
3696,18192;2,23057
3694,13076;2,24619
3692,07961;2,25953
3690,02845;2,27053
3687,9773;2,27802
3685,92614;2,28605
3683,87499;2,29317
3681,82383;2,3001
3679,77268;2,31413
3677,72152;2,33802
3675,67037;2,36681
3673,61921;2,39551
3671,56806;2,41547
3669,5169;2,43551
3667,46574;2,45877
3665,41459;2,47693
3663,36343;2,4964
3661,31228;2,51948
3659,26112;2,53846
3657,20997;2,55371
3655,15881;2,5756
3653,10766;2,59925
3651,0565;2,62193
3649,00535;2,65115
3646,95419;2,6718
3644,90304;2,67619
3642,85188;2,67327
3640,80073;2,67487
3638,74957;2,68397
3636,69841;2,69347
3634,64726;2,69808
3632,5961;2,69922
3630,54495;2,70199
3628,49379;2,7184
3626,44264;2,73796
3624,39148;2,73597
3622,34033;2,72055
3620,28917;2,71039
3618,23802;2,71881
3616,18686;2,739
3614,13571;2,75091
3612,08455;2,74971
3610,0334;2,73644
3607,98224;2,71729
3605,93108;2,70916
3603,87993;2,71848
3601,82877;2,73662
3599,77762;2,74858
3597,72646;2,75146
3595,67531;2,75563
3593,62415;2,76118
3591,573;2,7616
3589,52184;2,75812
3587,47069;2,7519
3585,41953;2,74644
3583,36838;2,74764
3581,31722;2,75135
3579,26607;2,7516
3577,21491;2,75385
3575,16375;2,76196
3573,1126;2,76924
3571,06144;2,77186
3569,01029;2,7711
3566,95913;2,76722
3564,90798;2,76021
3562,85682;2,75445
3560,80567;2,75395
3558,75451;2,75309
3556,70336;2,7494
3554,6522;2,7482
3552,60105;2,74987
3550,54989;2,75287
3548,49874;2,75415
3546,44758;2,75019
3544,39642;2,74512
3542,34527;2,74332
3540,29411;2,74351
3538,24296;2,74226
3536,1918;2,73811
3534,14065;2,73922
3532,08949;2,74937
3530,03834;2,75904
3527,98718;2,76109
3525,93603;2,75507
3523,88487;2,74428
3521,83372;2,73779
3519,78256;2,73719
3517,73141;2,737
3515,68025;2,73858
3513,62909;2,74143
3511,57794;2,74026
3509,52678;2,73736
3507,47563;2,73578
3505,42447;2,7315
3503,37332;2,72815
3501,32216;2,73039
3499,27101;2,73285
3497,21985;2,73524
3495,1687;2,73562
3493,11754;2,72851
3491,06639;2,72215
3489,01523;2,72444
3486,96407;2,73129
3484,91292;2,73403
3482,86176;2,72702
3480,81061;2,71723
3478,75945;2,71507
3476,7083;2,7201
3474,65714;2,72273
3472,60599;2,71876
3470,55483;2,71115
3468,50368;2,70226
3466,45252;2,70085
3464,40137;2,70992
3462,35021;2,71388
3460,29906;2,70304
3458,2479;2,68992
3456,19674;2,68532
3454,14559;2,6838
3452,09443;2,68412
3450,04328;2,68641
3447,99212;2,68251
3445,94097;2,67351
3443,88981;2,66883
3441,83866;2,67191
3439,7875;2,67413
3437,73635;2,66957
3435,68519;2,66412
3433,63404;2,66212
3431,58288;2,66175
3429,53173;2,66391
3427,48057;2,6677
3425,42941;2,66931
3423,37826;2,67125
3421,3271;2,66939
3419,27595;2,6582
3417,22479;2,6481
3415,17364;2,64452
3413,12248;2,64102
3411,07133;2,63838
3409,02017;2,64033
3406,96902;2,64186
3404,91786;2,63452
3402,86671;2,62349
3400,81555;2,62051
3398,7644;2,62405
3396,71324;2,62668
3394,66208;2,62684
3392,61093;2,62911
3390,55977;2,63262
3388,50862;2,63191
3386,45746;2,627
3384,40631;2,62107
3382,35515;2,61995
3380,304;2,62116
3378,25284;2,61735
3376,20169;2,61563
3374,15053;2,62378
3372,09938;2,62858
3370,04822;2,62018
3367,99707;2,61159
3365,94591;2,60781
3363,89475;2,601
3361,8436;2,59728
3359,79244;2,60309
3357,74129;2,60897
3355,69013;2,61157
3353,63898;2,61283
3351,58782;2,6074
3349,53667;2,59934
3347,48551;2,59617
3345,43436;2,5932
3343,3832;2,58801
3341,33205;2,5856
3339,28089;2,58834
3337,22974;2,59118
3335,17858;2,58726
3333,12742;2,58058
3331,07627;2,58001
3329,02511;2,58299
3326,97396;2,58027
3324,9228;2,57543
3322,87165;2,5734
3320,82049;2,57247
3318,76934;2,57444
3316,71818;2,57524
3314,66703;2,57246
3312,61587;2,57348
3310,56472;2,57828
3308,51356;2,58215
3306,46241;2,58393
3304,41125;2,57987
3302,36009;2,5699
3300,30894;2,56399
3298,25778;2,56798
3296,20663;2,57432
3294,15547;2,5755
3292,10432;2,57177
3290,05316;2,56564
3288,00201;2,55846
3285,95085;2,55266
3283,8997;2,55161
3281,84854;2,55308
3279,79739;2,55506
3277,74623;2,55829
3275,69508;2,56169
3273,64392;2,56377
3271,59276;2,56363
3269,54161;2,56137
3267,49045;2,55664
3265,4393;2,5511
3263,38814;2,55016
3261,33699;2,5536
3259,28583;2,55467
3257,23468;2,5563
3255,18352;2,56381
3253,13237;2,56815
3251,08121;2,56283
3249,03006;2,555
3246,9789;2,55004
3244,92775;2,54996
3242,87659;2,55458
3240,82543;2,5552
3238,77428;2,54848
3236,72312;2,54192
3234,67197;2,53923
3232,62081;2,53972
3230,56966;2,54332
3228,5185;2,54812
3226,46735;2,54837
3224,41619;2,54293
3222,36504;2,53776
3220,31388;2,53442
3218,26273;2,53195
3216,21157;2,53454
3214,16041;2,54046
3212,10926;2,54018
3210,0581;2,53571
3208,00695;2,53803
3205,95579;2,54519
3203,90464;2,55067
3201,85348;2,55528
3199,80233;2,55805
3197,75117;2,55575
3195,70002;2,54873
3193,64886;2,5421
3191,59771;2,54017
3189,54655;2,53926
3187,4954;2,53633
3185,44424;2,53402
3183,39308;2,53502
3181,34193;2,54011
3179,29077;2,54562
3177,23962;2,54679
3175,18846;2,54139
3173,13731;2,5341
3171,08615;2,53459
3169,035;2,539
3166,98384;2,53882
3164,93269;2,53629
3162,88153;2,53549
3160,83038;2,53756
3158,77922;2,53845
3156,72807;2,53476
3154,67691;2,52997
3152,62575;2,52751
3150,5746;2,52897
3148,52344;2,53414
3146,47229;2,54026
3144,42113;2,54549
3142,36998;2,54775
3140,31882;2,54557
3138,26767;2,54225
3136,21651;2,54103
3134,16536;2,54042
3132,1142;2,53797
3130,06305;2,53433
3128,01189;2,532
3125,96074;2,5355
3123,90958;2,54442
3121,85842;2,54865
3119,80727;2,54364
3117,75611;2,53778
3115,70496;2,53614
3113,6538;2,53653
3111,60265;2,5389
3109,55149;2,54279
3107,50034;2,5446
3105,44918;2,54465
3103,39803;2,5451
3101,34687;2,54408
3099,29572;2,54183
3097,24456;2,54059
3095,19341;2,53947
3093,14225;2,53695
3091,09109;2,5343
3089,03994;2,53324
3086,98878;2,53297
3084,93763;2,53415
3082,88647;2,53881
3080,83532;2,54462
3078,78416;2,54691
3076,73301;2,54426
3074,68185;2,53914
3072,6307;2,53644
3070,57954;2,53733
3068,52839;2,54121
3066,47723;2,54683
3064,42608;2,5468
3062,37492;2,53995
3060,32376;2,53513
3058,27261;2,53642
3056,22145;2,53929
3054,1703;2,53882
3052,11914;2,53627
3050,06799;2,53659
3048,01683;2,53849
3045,96568;2,53954
3043,91452;2,54354
3041,86337;2,54773
3039,81221;2,54615
3037,76106;2,54043
3035,7099;2,53478
3033,65875;2,53278
3031,60759;2,53494
3029,55643;2,53953
3027,50528;2,54554
3025,45412;2,55114
3023,40297;2,55074
3021,35181;2,54559
3019,30066;2,54501
3017,2495;2,54755
3015,19835;2,54646
3013,14719;2,54447
3011,09604;2,54465
3009,04488;2,54557
3006,99373;2,54553
3004,94257;2,54333
3002,89142;2,54151
3000,84026;2,54456
2998,7891;2,54924
2996,73795;2,5481
2994,68679;2,54593
2992,63564;2,54862
2990,58448;2,5501
2988,53333;2,54603
2986,48217;2,54301
2984,43102;2,546
2982,37986;2,55212
2980,32871;2,55741
2978,27755;2,55924
2976,2264;2,5604
2974,17524;2,56322
2972,12409;2,56328
2970,07293;2,56159
2968,02177;2,56359
2965,97062;2,56773
2963,91946;2,56953
2961,86831;2,56834
2959,81715;2,5682
2957,766;2,56889
2955,71484;2,56854
2953,66369;2,57287
2951,61253;2,57922
2949,56138;2,57792
2947,51022;2,57146
2945,45907;2,56718
2943,40791;2,5655
2941,35675;2,56627
2939,3056;2,5673
2937,25444;2,56235
2935,20329;2,55638
2933,15213;2,55534
2931,10098;2,55662
2929,04982;2,55618
2926,99867;2,5527
2924,94751;2,55209
2922,89636;2,55816
2920,8452;2,56844
2918,79405;2,57458
2916,74289;2,56839
2914,69174;2,55781
2912,64058;2,55484
2910,58942;2,55858
2908,53827;2,56049
2906,48711;2,55547
2904,43596;2,54636
2902,3848;2,54187
2900,33365;2,54655
2898,28249;2,55316
2896,23134;2,55596
2894,18018;2,5577
2892,12903;2,55862
2890,07787;2,55637
2888,02672;2,55133
2885,97556;2,547
2883,92441;2,54673
2881,87325;2,54824
2879,82209;2,54884
2877,77094;2,54732
2875,71978;2,54139
2873,66863;2,53605
2871,61747;2,53791
2869,56632;2,54012
2867,51516;2,53586
2865,46401;2,53148
2863,41285;2,5313
2861,3617;2,53311
2859,31054;2,53362
2857,25939;2,53383
2855,20823;2,5361
2853,15708;2,53533
2851,10592;2,53102
2849,05476;2,5286
2847,00361;2,52723
2844,95245;2,52376
2842,9013;2,51904
2840,85014;2,51741
2838,79899;2,51896
2836,74783;2,51972
2834,69668;2,51942
2832,64552;2,51664
2830,59437;2,5109
2828,54321;2,50805
2826,49206;2,50794
2824,4409;2,50682
2822,38975;2,5079
2820,33859;2,50938
2818,28743;2,50579
2816,23628;2,49987
2814,18512;2,49552
2812,13397;2,49536
2810,08281;2,49889
2808,03166;2,50209
2805,9805;2,50175
2803,92935;2,49492
2801,87819;2,48521
2799,82704;2,48135
2797,77588;2,48397
2795,72473;2,48429
2793,67357;2,48061
2791,62242;2,47969
2789,57126;2,48187
2787,5201;2,48324
2785,46895;2,4831
2783,41779;2,48152
2781,36664;2,47799
2779,31548;2,47347
2777,26433;2,46954
2775,21317;2,46891
2773,16202;2,47086
2771,11086;2,46979
2769,05971;2,46612
2767,00855;2,46492
2764,9574;2,46536
2762,90624;2,46333
2760,85509;2,458
2758,80393;2,45322
2756,75277;2,45413
2754,70162;2,45794
2752,65046;2,45836
2750,59931;2,45679
2748,54815;2,45608
2746,497;2,45569
2744,44584;2,45523
2742,39469;2,45666
2740,34353;2,46029
2738,29238;2,45998
2736,24122;2,45403
2734,19007;2,45042
2732,13891;2,45063
2730,08776;2,44813
2728,0366;2,44299
2725,98544;2,4407
2723,93429;2,44188
2721,88313;2,44109
2719,83198;2,43825
2717,78082;2,43775
2715,72967;2,4368
2713,67851;2,43514
2711,62736;2,4368
2709,5762;2,43847
2707,52505;2,43526
2705,47389;2,4305
2703,42274;2,42994
2701,37158;2,43302
2699,32043;2,4361
2697,26927;2,43633
2695,21811;2,43487
2693,16696;2,43227
2691,1158;2,4269
2689,06465;2,42398
2687,01349;2,42501
2684,96234;2,42492
2682,91118;2,42402
2680,86003;2,42368
2678,80887;2,42165
2676,75772;2,41881
2674,70656;2,41748
2672,65541;2,41696
2670,60425;2,41708
2668,55309;2,41651
2666,50194;2,41564
2664,45078;2,41553
2662,39963;2,41349
2660,34847;2,41011
2658,29732;2,40629
2656,24616;2,40099
2654,19501;2,39817
2652,14385;2,40016
2650,0927;2,40112
2648,04154;2,39742
2645,99039;2,39423
2643,93923;2,39549
2641,88808;2,39876
2639,83692;2,40133
2637,78576;2,4024
2635,73461;2,40109
2633,68345;2,39924
2631,6323;2,4007
2629,58114;2,40464
2627,52999;2,40803
2625,47883;2,41049
2623,42768;2,41201
2621,37652;2,41227
2619,32537;2,41172
2617,27421;2,41144
2615,22306;2,41316
2613,1719;2,41608
2611,12075;2,41686
2609,06959;2,41421
2607,01843;2,41223
2604,96728;2,41703
2602,91612;2,42436
2600,86497;2,42551
2598,81381;2,42316
2596,76266;2,42272
2594,7115;2,42534
2592,66035;2,42879
2590,60919;2,42939
2588,55804;2,42895
2586,50688;2,42976
2584,45573;2,42998
2582,40457;2,4286
2580,35342;2,42591
2578,30226;2,42468
2576,2511;2,42723
2574,19995;2,42992
2572,14879;2,43071
2570,09764;2,43128
2568,04648;2,43082
2565,99533;2,42978
2563,94417;2,42997
2561,89302;2,42985
2559,84186;2,42821
2557,79071;2,4278
2555,73955;2,42887
2553,6884;2,42836
2551,63724;2,42763
2549,58609;2,42942
2547,53493;2,43274
2545,48377;2,43478
2543,43262;2,43492
2541,38146;2,43593
2539,33031;2,44039
2537,27915;2,44679
2535,228;2,4525
2533,17684;2,45655
2531,12569;2,45913
2529,07453;2,46245
2527,02338;2,46698
2524,97222;2,47122
2522,92107;2,47507
2520,86991;2,47819
2518,81876;2,48046
2516,7676;2,48359
2514,71644;2,48817
2512,66529;2,49032
2510,61413;2,48799
2508,56298;2,48506
2506,51182;2,48317
2504,46067;2,47843
2502,40951;2,46987
2500,35836;2,46241
2498,3072;2,45691
2496,25605;2,45036
2494,20489;2,44307
2492,15374;2,4361
2490,10258;2,42954
2488,05143;2,42266
2486,00027;2,41534
2483,94911;2,40687
2481,89796;2,39751
2479,8468;2,39133
2477,79565;2,38781
2475,74449;2,38248
2473,69334;2,37509
2471,64218;2,36776
2469,59103;2,36228
2467,53987;2,35972
2465,48872;2,35815
2463,43756;2,355
2461,38641;2,35218
2459,33525;2,3496
2457,2841;2,34403
2455,23294;2,33749
2453,18178;2,33287
2451,13063;2,33058
2449,07947;2,3307
2447,02832;2,33103
2444,97716;2,32853
2442,92601;2,32467
2440,87485;2,32282
2438,8237;2,32221
2436,77254;2,32161
2434,72139;2,32116
2432,67023;2,32093
2430,61908;2,32054
2428,56792;2,31811
2426,51677;2,31415
2424,46561;2,312
2422,41445;2,31261
2420,3633;2,31246
2418,31214;2,30811
2416,26099;2,3027
2414,20983;2,30129
2412,15868;2,30091
2410,10752;2,29836
2408,05637;2,29756
2406,00521;2,29892
2403,95406;2,29935
2401,9029;2,29883
2399,85175;2,29834
2397,80059;2,29797
2395,74944;2,29699
2393,69828;2,29514
2391,64712;2,2943
2389,59597;2,29591
2387,54481;2,29801
2385,49366;2,29765
2383,4425;2,29452
2381,39135;2,2911
2379,34019;2,2894
2377,28904;2,28991
2375,23788;2,29305
2373,18673;2,29792
2371,13557;2,30233
2369,08442;2,30574
2367,03326;2,30652
2364,9821;2,30162
2362,93095;2,29678
2360,87979;2,29948
2358,82864;2,30645
2356,77748;2,31036
2354,72633;2,3086
2352,67517;2,3063
2350,62402;2,30708
2348,57286;2,3082
2346,52171;2,30739
2344,47055;2,30682
2342,4194;2,30857
2340,36824;2,31028
2338,31709;2,31029
2336,26593;2,30859
2334,21477;2,30504
2332,16362;2,30276
2330,11246;2,30293
2328,06131;2,30257
2326,01015;2,30218
2323,959;2,30369
2321,90784;2,30736
2319,85669;2,3129
2317,80553;2,31694
2315,75438;2,31548
2313,70322;2,30999
2311,65207;2,30495
2309,60091;2,30204
2307,54976;2,30169
2305,4986;2,30486
2303,44744;2,30958
2301,39629;2,31185
2299,34513;2,31039
2297,29398;2,30789
2295,24282;2,30681
2293,19167;2,30701
2291,14051;2,30795
2289,08936;2,30914
2287,0382;2,30998
2284,98705;2,31042
2282,93589;2,31118
2280,88474;2,31224
2278,83358;2,31165
2276,78243;2,30944
2274,73127;2,30909
2272,68011;2,31167
2270,62896;2,31392
2268,5778;2,31359
2266,52665;2,31237
2264,47549;2,31268
2262,42434;2,31434
2260,37318;2,31584
2258,32203;2,31692
2256,27087;2,31941
2254,21972;2,32376
2252,16856;2,32726
2250,11741;2,32912
2248,06625;2,33179
2246,0151;2,33513
2243,96394;2,33688
2241,91278;2,33721
2239,86163;2,33655
2237,81047;2,33529
2235,75932;2,33524
2233,70816;2,33643
2231,65701;2,33778
2229,60585;2,33923
2227,5547;2,34099
2225,50354;2,34281
2223,45239;2,34477
2221,40123;2,34619
2219,35008;2,34585
2217,29892;2,34659
2215,24777;2,35012
2213,19661;2,3526
2211,14545;2,35275
2209,0943;2,35156
2207,04314;2,35032
2204,99199;2,35203
2202,94083;2,35578
2200,88968;2,3588
2198,83852;2,36007
2196,78737;2,36
2194,73621;2,36123
2192,68506;2,36342
2190,6339;2,3638
2188,58275;2,36335
2186,53159;2,36394
2184,48044;2,36683
2182,42928;2,37187
2180,37812;2,3748
2178,32697;2,375
2176,27581;2,37737
2174,22466;2,38147
2172,1735;2,38287
2170,12235;2,38135
2168,07119;2,37942
2166,02004;2,38027
2163,96888;2,38495
2161,91773;2,39011
2159,86657;2,39439
2157,81542;2,39803
2155,76426;2,40044
2153,71311;2,40277
2151,66195;2,40475
2149,61079;2,40541
2147,55964;2,40666
2145,50848;2,40879
2143,45733;2,41036
2141,40617;2,4113
2139,35502;2,41085
2137,30386;2,40892
2135,25271;2,40757
2133,20155;2,40697
2131,1504;2,40644
2129,09924;2,40784
2127,04809;2,41
2124,99693;2,40879
2122,94578;2,40573
2120,89462;2,4037
2118,84346;2,4014
2116,79231;2,39869
2114,74115;2,39747
2112,69;2,3976
2110,63884;2,39812
2108,58769;2,39819
2106,53653;2,39633
2104,48538;2,39439
2102,43422;2,39455
2100,38307;2,39589
2098,33191;2,39781
2096,28076;2,39867
2094,2296;2,39752
2092,17844;2,39687
2090,12729;2,39753
2088,07613;2,39726
2086,02498;2,3958
2083,97382;2,39536
2081,92267;2,39621
2079,87151;2,39771
2077,82036;2,40061
2075,7692;2,40376
2073,71805;2,40549
2071,66689;2,40552
2069,61574;2,40398
2067,56458;2,40205
2065,51343;2,39998
2063,46227;2,39867
2061,41111;2,3997
2059,35996;2,40175
2057,3088;2,40409
2055,25765;2,40724
2053,20649;2,40778
2051,15534;2,40479
2049,10418;2,40315
2047,05303;2,40497
2045,00187;2,40774
2042,95072;2,40832
2040,89956;2,40605
2038,84841;2,40316
2036,79725;2,4025
2034,7461;2,40379
2032,69494;2,40528
2030,64378;2,40666
2028,59263;2,4072
2026,54147;2,40694
2024,49032;2,40718
2022,43916;2,40806
2020,38801;2,40882
2018,33685;2,40917
2016,2857;2,40976
2014,23454;2,41133
2012,18339;2,41363
2010,13223;2,41525
2008,08108;2,41476
2006,02992;2,41294
2003,97877;2,41076
2001,92761;2,40926
1999,87645;2,40941
1997,8253;2,40966
1995,77414;2,4091
1993,72299;2,40879
1991,67183;2,41018
1989,62068;2,41185
1987,56952;2,4126
1985,51837;2,41519
1983,46721;2,41761
1981,41606;2,41787
1979,3649;2,4176
1977,31375;2,41862
1975,26259;2,42146
1973,21144;2,42424
1971,16028;2,42648
1969,10912;2,42916
1967,05797;2,43166
1965,00681;2,43316
1962,95566;2,43377
1960,9045;2,43476
1958,85335;2,43589
1956,80219;2,43557
1954,75104;2,43403
1952,69988;2,43277
1950,64873;2,43215
1948,59757;2,4327
1946,54642;2,43408
1944,49526;2,43389
1942,44411;2,43282
1940,39295;2,43452
1938,34179;2,4371
1936,29064;2,4394
1934,23948;2,44155
1932,18833;2,44208
1930,13717;2,44071
1928,08602;2,43985
1926,03486;2,44162
1923,98371;2,4455
1921,93255;2,4505
1919,8814;2,45128
1917,83024;2,44882
1915,77909;2,45019
1913,72793;2,45091
1911,67678;2,44946
1909,62562;2,44977
1907,57446;2,4521
1905,52331;2,45313
1903,47215;2,45297
1901,421;2,45373
1899,36984;2,45468
1897,31869;2,45474
1895,26753;2,45639
1893,21638;2,46207
1891,16522;2,466
1889,11407;2,46523
1887,06291;2,46411
1885,01176;2,46422
1882,9606;2,46744
1880,90945;2,47276
1878,85829;2,47552
1876,80713;2,47444
1874,75598;2,47394
1872,70482;2,47766
1870,65367;2,4821
1868,60251;2,48346
1866,55136;2,48255
1864,5002;2,48122
1862,44905;2,48174
1860,39789;2,48323
1858,34674;2,48361
1856,29558;2,48466
1854,24443;2,48858
1852,19327;2,49411
1850,14212;2,49955
1848,09096;2,50403
1846,0398;2,5046
1843,98865;2,50303
1841,93749;2,50529
1839,88634;2,50784
1837,83518;2,51002
1835,78403;2,51459
1833,73287;2,5191
1831,68172;2,51942
1829,63056;2,51984
1827,57941;2,52554
1825,52825;2,53013
1823,4771;2,53281
1821,42594;2,53593
1819,37478;2,53905
1817,32363;2,54212
1815,27247;2,5473
1813,22132;2,55531
1811,17016;2,56301
1809,11901;2,56872
1807,06785;2,57385
1805,0167;2,58158
1802,96554;2,59326
1800,91439;2,60597
1798,86323;2,61652
1796,81208;2,6238
1794,76092;2,62687
1792,70977;2,62415
1790,65861;2,61754
1788,60745;2,60969
1786,5563;2,60146
1784,50514;2,59623
1782,45399;2,59337
1780,40283;2,58896
1778,35168;2,58505
1776,30052;2,58322
1774,24937;2,58282
1772,19821;2,58526
1770,14706;2,58964
1768,0959;2,58982
1766,04475;2,59014
1763,99359;2,59123
1761,94244;2,59129
1759,89128;2,59378
1757,84012;2,59546
1755,78897;2,59746
1753,73781;2,60077
1751,68666;2,60309
1749,6355;2,60898
1747,58435;2,61676
1745,53319;2,62105
1743,48204;2,62194
1741,43088;2,62185
1739,37973;2,62521
1737,32857;2,63157
1735,27742;2,62814
1733,22626;2,62235
1731,17511;2,62632
1729,12395;2,63204
1727,07279;2,63317
1725,02164;2,62871
1722,97048;2,62842
1720,91933;2,63621
1718,86817;2,64275
1716,81702;2,64657
1714,76586;2,65041
1712,71471;2,65478
1710,66355;2,65924
1708,6124;2,66479
1706,56124;2,67206
1704,51009;2,67825
1702,45893;2,67558
1700,40778;2,6695
1698,35662;2,67429
1696,30546;2,677
1694,25431;2,6824
1692,20315;2,69113
1690,152;2,69682
1688,10084;2,70441
1686,04969;2,71038
1683,99853;2,71325
1681,94738;2,71368
1679,89622;2,70722
1677,84507;2,70105
1675,79391;2,70131
1673,74276;2,71058
1671,6916;2,71652
1669,64045;2,71709
1667,58929;2,72356
1665,53813;2,72592
1663,48698;2,71709
1661,43582;2,70814
1659,38467;2,706
1657,33351;2,7085
1655,28236;2,70593
1653,2312;2,69946
1651,18005;2,70708
1649,12889;2,71013
1647,07774;2,70403
1645,02658;2,70465
1642,97543;2,70495
1640,92427;2,7017
1638,87312;2,6971
1636,82196;2,68659
1634,7708;2,68045
1632,71965;2,68467
1630,66849;2,68662
1628,61734;2,68717
1626,56618;2,69103
1624,51503;2,6918
1622,46387;2,68897
1620,41272;2,6867
1618,36156;2,68063
1616,31041;2,67611
1614,25925;2,67844
1612,2081;2,67917
1610,15694;2,67612
1608,10579;2,66859
1606,05463;2,6564
1604,00347;2,64542
1601,95232;2,63962
1599,90116;2,63643
1597,85001;2,63129
1595,79885;2,62278
1593,7477;2,61407
1591,69654;2,6097
1589,64539;2,60919
1587,59423;2,60661
1585,54308;2,59999
1583,49192;2,59484
1581,44077;2,59559
1579,38961;2,59714
1577,33846;2,59074
1575,2873;2,58467
1573,23614;2,58397
1571,18499;2,57738
1569,13383;2,57125
1567,08268;2,57112
1565,03152;2,56888
1562,98037;2,56546
1560,92921;2,55758
1558,87806;2,55097
1556,8269;2,55251
1554,77575;2,54142
1552,72459;2,52318
1550,67344;2,50632
1548,62228;2,49246
1546,57113;2,48343
1544,51997;2,47954
1542,46881;2,479
1540,41766;2,47412
1538,3665;2,47302
1536,31535;2,47539
1534,26419;2,47217
1532,21304;2,4724
1530,16188;2,47628
1528,11073;2,47826
1526,05957;2,48361
1524,00842;2,49168
1521,95726;2,49594
1519,90611;2,50022
1517,85495;2,50171
1515,80379;2,4997
1513,75264;2,49756
1511,70148;2,49785
1509,65033;2,50254
1507,59917;2,50427
1505,54802;2,50572
1503,49686;2,50902
1501,44571;2,50792
1499,39455;2,50517
1497,3434;2,50539
1495,29224;2,51215
1493,24109;2,52186
1491,18993;2,52931
1489,13878;2,53662
1487,08762;2,53947
1485,03646;2,53845
1482,98531;2,54083
1480,93415;2,54803
1478,883;2,55502
1476,83184;2,56072
1474,78069;2,57073
1472,72953;2,58211
1470,67838;2,59142
1468,62722;2,59918
1466,57607;2,60502
1464,52491;2,61149
1462,47376;2,62048
1460,4226;2,62773
1458,37145;2,63263
1456,32029;2,63903
1454,26913;2,6409
1452,21798;2,63386
1450,16682;2,62741
1448,11567;2,62843
1446,06451;2,63553
1444,01336;2,64143
1441,9622;2,64399
1439,91105;2,64591
1437,85989;2,64614
1435,80874;2,64895
1433,75758;2,6536
1431,70643;2,65165
1429,65527;2,64581
1427,60412;2,6414
1425,55296;2,63824
1423,5018;2,63634
1421,45065;2,63094
1419,39949;2,61872
1417,34834;2,61013
1415,29718;2,60664
1413,24603;2,60232
1411,19487;2,5959
1409,14372;2,59106
1407,09256;2,58896
1405,04141;2,58596
1402,99025;2,58411
1400,9391;2,58579
1398,88794;2,59
1396,83679;2,59315
1394,78563;2,5922
1392,73447;2,59225
1390,68332;2,59409
1388,63216;2,59581
1386,58101;2,59822
1384,52985;2,59784
1382,4787;2,5934
1380,42754;2,59135
1378,37639;2,59281
1376,32523;2,59306
1374,27408;2,59328
1372,22292;2,59769
1370,17177;2,60172
1368,12061;2,60279
1366,06946;2,60287
1364,0183;2,60261
1361,96714;2,60477
1359,91599;2,60893
1357,86483;2,61141
1355,81368;2,61172
1353,76252;2,61154
1351,71137;2,61191
1349,66021;2,61228
1347,60906;2,61328
1345,5579;2,61609
1343,50675;2,62033
1341,45559;2,62311
1339,40444;2,62372
1337,35328;2,6252
1335,30213;2,62615
1333,25097;2,62414
1331,19981;2,62171
1329,14866;2,62047
1327,0975;2,61917
1325,04635;2,61911
1322,99519;2,6211
1320,94404;2,62558
1318,89288;2,63212
1316,84173;2,63443
1314,79057;2,63102
1312,73942;2,62901
1310,68826;2,62897
1308,63711;2,62702
1306,58595;2,62619
1304,5348;2,62889
1302,48364;2,63094
1300,43248;2,63166
1298,38133;2,63473
1296,33017;2,63669
1294,27902;2,63352
1292,22786;2,62957
1290,17671;2,62791
1288,12555;2,62874
1286,0744;2,63226
1284,02324;2,63612
1281,97209;2,63849
1279,92093;2,63852
1277,86978;2,6369
1275,81862;2,63816
1273,76747;2,64301
1271,71631;2,64619
1269,66515;2,64633
1267,614;2,64585
1265,56284;2,64537
1263,51169;2,64718
1261,46053;2,65242
1259,40938;2,65705
1257,35822;2,65875
1255,30707;2,65841
1253,25591;2,65671
1251,20476;2,65513
1249,1536;2,65522
1247,10245;2,65886
1245,05129;2,66915
1243,00013;2,68161
1240,94898;2,68459
1238,89782;2,67776
1236,84667;2,67201
1234,79551;2,67394
1232,74436;2,68209
1230,6932;2,6852
1228,64205;2,67853
1226,59089;2,67682
1224,53974;2,68363
1222,48858;2,68851
1220,43743;2,69149
1218,38627;2,69276
1216,33512;2,68955
1214,28396;2,68754
1212,2328;2,69105
1210,18165;2,69687
1208,13049;2,70116
1206,07934;2,70237
1204,02818;2,70284
1201,97703;2,70574
1199,92587;2,71023
1197,87472;2,7177
1195,82356;2,73238
1193,77241;2,74904
1191,72125;2,75752
1189,6701;2,76524
1187,61894;2,7842
1185,56779;2,80382
1183,51663;2,816
1181,46547;2,82749
1179,41432;2,83775
1177,36316;2,84578
1175,31201;2,85079
1173,26085;2,85411
1171,2097;2,86191
1169,15854;2,86862
1167,10739;2,86822
1165,05623;2,86983
1163,00508;2,87692
1160,95392;2,88159
1158,90277;2,88165
1156,85161;2,87513
1154,80046;2,86276
1152,7493;2,85508
1150,69814;2,85583
1148,64699;2,8593
1146,59583;2,85659
1144,54468;2,84141
1142,49352;2,82527
1140,44237;2,8208
1138,39121;2,82214
1136,34006;2,81943
1134,2889;2,81352
1132,23775;2,80924
1130,18659;2,8083
1128,13544;2,81319
1126,08428;2,82185
1124,03313;2,82352
1121,98197;2,81695
1119,93081;2,81298
1117,87966;2,81131
1115,8285;2,8034
1113,77735;2,79361
1111,72619;2,79385
1109,67504;2,79693
1107,62388;2,78755
1105,57273;2,77324
1103,52157;2,76028
1101,47042;2,7456
1099,41926;2,73144
1097,36811;2,71445
1095,31695;2,69132
1093,2658;2,66862
1091,21464;2,64771
1089,16348;2,62359
1087,11233;2,5943
1085,06117;2,5644
1083,01002;2,54082
1080,95886;2,52119
1078,90771;2,50228
1076,85655;2,48529
1074,8054;2,4701
1072,75424;2,45854
1070,70309;2,45114
1068,65193;2,44486
1066,60078;2,43926
1064,54962;2,43314
1062,49847;2,42428
1060,44731;2,41646
1058,39615;2,41185
1056,345;2,40556
1054,29384;2,39438
1052,24269;2,3808
1050,19153;2,36973
1048,14038;2,36106
1046,08922;2,35044
1044,03807;2,33646
1041,98691;2,32084
1039,93576;2,30797
1037,8846;2,29921
1035,83345;2,29075
1033,78229;2,28235
1031,73114;2,27749
1029,67998;2,27592
1027,62882;2,27433
1025,57767;2,27187
1023,52651;2,26934
1021,47536;2,26728
1019,4242;2,26553
1017,37305;2,26374
1015,32189;2,26261
1013,27074;2,26488
1011,21958;2,27084
1009,16843;2,27525
1007,11727;2,27754
1005,06612;2,28168
1003,01496;2,28811
1000,96381;2,29427
998,91265;2,29885
996,86149;2,30478
994,81034;2,31334
992,75918;2,32038
990,70803;2,32508
988,65687;2,32725
986,60572;2,32543
984,55456;2,32511
982,50341;2,32741
980,45225;2,32715
978,4011;2,32501
976,34994;2,32512
974,29879;2,32627
972,24763;2,32507
970,19647;2,32459
968,14532;2,32669
966,09416;2,32919
964,04301;2,33207
961,99185;2,33608
959,9407;2,34128
957,88954;2,34625
955,83839;2,35292
953,78723;2,36425
951,73608;2,37359
949,68492;2,3784
947,63377;2,38332
945,58261;2,38791
943,53146;2,39262
941,4803;2,39823
939,42914;2,40454
937,37799;2,41011
935,32683;2,41352
933,27568;2,41636
931,22452;2,41937
929,17337;2,42396
927,12221;2,43144
925,07106;2,4387
923,0199;2,4452
920,96875;2,454
918,91759;2,46066
916,86644;2,46186
914,81528;2,46296
912,76413;2,46546
910,71297;2,46755
908,66181;2,47204
906,61066;2,48024
904,5595;2,48577
902,50835;2,48506
900,45719;2,48213
898,40604;2,48161
896,35488;2,48519
894,30373;2,49099
892,25257;2,49168
890,20142;2,48452
888,15026;2,47622
886,09911;2,47162
884,04795;2,47331
881,9968;2,47668
879,94564;2,47606
877,89448;2,47644
875,84333;2,48233
873,79217;2,48994
871,74102;2,49217
869,68986;2,4868
867,63871;2,48122
865,58755;2,4872
863,5364;2,50218
861,48524;2,51215
859,43409;2,51351
857,38293;2,51371
855,33178;2,5178
853,28062;2,52288
851,22947;2,52882
849,17831;2,53504
847,12715;2,53514
845,076;2,52951
843,02484;2,52501
840,97369;2,52441
838,92253;2,52757
836,87138;2,53137
834,82022;2,53309
832,76907;2,53964
830,71791;2,54414
828,66676;2,53479
826,6156;2,52337
824,56445;2,52114
822,51329;2,52565
820,46214;2,52976
818,41098;2,53066
816,35982;2,52672
814,30867;2,52123
812,25751;2,52087
810,20636;2,53088
808,1552;2,5442
806,10405;2,54454
804,05289;2,53568
802,00174;2,53243
799,95058;2,53549
797,89943;2,53802
795,84827;2,53989
793,79712;2,54508
791,74596;2,55131
789,69481;2,55209
787,64365;2,54425
785,59249;2,53451
783,54134;2,53331
781,49018;2,53574
779,43903;2,5303
777,38787;2,526
775,33672;2,52952
773,28556;2,5307
771,23441;2,53169
769,18325;2,53616
767,1321;2,53689
765,08094;2,53098
763,02979;2,52563
760,97863;2,53031
758,92748;2,53908
756,87632;2,54136
754,82516;2,54064
752,77401;2,54191
750,72285;2,54916
748,6717;2,55776
746,62054;2,55482
744,56939;2,54119
742,51823;2,52848
740,46708;2,5244
738,41592;2,53035
736,36477;2,53552
734,31361;2,53106
732,26246;2,52778
730,2113;2,52608
728,16015;2,52297
726,10899;2,52859
724,05783;2,53674
722,00668;2,53861
719,95552;2,53309
717,90437;2,5194
715,85321;2,50887
713,80206;2,51228
711,7509;2,52231
709,69975;2,53092
707,64859;2,53386
705,59744;2,5241
703,54628;2,50869
701,49513;2,50547
699,44397;2,51761
697,39281;2,53068
695,34166;2,53233
693,2905;2,52739
691,23935;2,52512
689,18819;2,52566
687,13704;2,52497
685,08588;2,52087
683,03473;2,51676
680,98357;2,51647
678,93242;2,51821
676,88126;2,51696
674,83011;2,51439
672,77895;2,51825
670,7278;2,52535
668,67664;2,52332
666,62548;2,51326
664,57433;2,50617
662,52317;2,49738
660,47202;2,48373
658,42086;2,47669
656,36971;2,48135
654,31855;2,48721
652,2674;2,48846
650,21624;2,48941
648,16509;2,4918
646,11393;2,49105
644,06278;2,48375
642,01162;2,47129
639,96047;2,46065
637,90931;2,46256
635,85815;2,4751
633,807;2,48085
631,75584;2,47636
629,70469;2,47593
627,65353;2,47866
625,60238;2,47449
623,55122;2,47352
621,50007;2,48087
619,44891;2,49332
617,39776;2,50391
615,3466;2,507
613,29545;2,50434
611,24429;2,49371
609,19314;2,47948
607,14198;2,47781
605,09082;2,48214
603,03967;2,47713
600,98851;2,46434
598,93736;2,45586
596,8862;2,46311
594,83505;2,46986
592,78389;2,45998
590,73274;2,4557
588,68158;2,47221
586,63043;2,48517
584,57927;2,48183
582,52812;2,48288
580,47696;2,49458
578,42581;2,49945
576,37465;2,49221
574,32349;2,47891
572,27234;2,47009
570,22118;2,47406
568,17003;2,4786
566,11887;2,47573
564,06772;2,47291
562,01656;2,46861
559,96541;2,45653
557,91425;2,45287
555,8631;2,46395
553,81194;2,45427
551,76079;2,42285
549,70963;2,41017
547,65848;2,41596
545,60732;2,41586
543,55616;2,41617
541,50501;2,42662
539,45385;2,43742
537,4027;2,44515
535,35154;2,45373
533,30039;2,45639
531,24923;2,44579
529,19808;2,42589
527,14692;2,40766
525,09577;2,3979
523,04461;2,39609
520,99346;2,40254
518,9423;2,40252
516,89115;2,3832
514,83999;2,36712
512,78883;2,37226
510,73768;2,37782
508,68652;2,36138
506,63537;2,3387
504,58421;2,32782
502,53306;2,32503
500,4819;2,32177
498,43075;2,30972
496,37959;2,29316
494,32844;2,28633
492,27728;2,29655
490,22613;2,3138
488,17497;2,32238
486,12382;2,32162
484,07266;2,32102
482,0215;2,32418
479,97035;2,32397
477,91919;2,31652
475,86804;2,30888
473,81688;2,29857
471,76573;2,28353
469,71457;2,26776
467,66342;2,25433
465,61226;2,24854
463,56111;2,25284
461,50995;2,26515
459,4588;2,27186
457,40764;2,26104
455,35649;2,2436
453,30533;2,238
451,25417;2,25183
449,20302;2,26391
447,15186;2,25204
445,10071;2,23535
443,04955;2,24513
440,9984;2,26903
438,94724;2,26462
436,89609;2,22906
434,84493;2,20024
432,79378;2,20401
430,74262;2,23199
428,69147;2,24845
426,64031;2,23056
424,58916;2,20774
422,538;2,21593
420,48684;2,23873
418,43569;2,24068
416,38453;2,22618
414,33338;2,20996
412,28222;2,19177
410,23107;2,17789
408,17991;2,17469
406,12876;2,18693
404,0776;2,21461
402,02645;2,22861
399,97529;2,21263
