3997,70175;1,89189
3995,6506;1,89223
3993,59944;1,89374
3991,54829;1,89623
3989,49713;1,89806
3987,44598;1,8986
3985,39482;1,89887
3983,34367;1,89891
3981,29251;1,8989
3979,24136;1,90044
3977,1902;1,90329
3975,13905;1,90634
3973,08789;1,90859
3971,03673;1,90917
3968,98558;1,90889
3966,93442;1,90994
3964,88327;1,91325
3962,83211;1,91688
3960,78096;1,91818
3958,7298;1,91768
3956,67865;1,91902
3954,62749;1,92338
3952,57634;1,92815
3950,52518;1,93083
3948,47403;1,93071
3946,42287;1,93071
3944,37172;1,93315
3942,32056;1,93583
3940,2694;1,93605
3938,21825;1,93455
3936,16709;1,93396
3934,11594;1,93349
3932,06478;1,9321
3930,01363;1,93054
3927,96247;1,9295
3925,91132;1,92888
3923,86016;1,92748
3921,80901;1,92403
3919,75785;1,91966
3917,7067;1,91615
3915,65554;1,91348
3913,60439;1,91065
3911,55323;1,90778
3909,50207;1,90783
3907,45092;1,91158
3905,39976;1,91598
3903,34861;1,91899
3901,29745;1,91954
3899,2463;1,91748
3897,19514;1,91511
3895,14399;1,91319
3893,09283;1,91215
3891,04168;1,91315
3888,99052;1,91473
3886,93937;1,91291
3884,88821;1,91428
3882,83706;1,91885
3880,7859;1,91743
3878,73474;1,91351
3876,68359;1,91137
3874,63243;1,91336
3872,58128;1,91853
3870,53012;1,91844
3868,47897;1,91798
3866,42781;1,91933
3864,37666;1,91917
3862,3255;1,91738
3860,27435;1,91431
3858,22319;1,91158
3856,17204;1,90733
3854,12088;1,9076
3852,06973;1,918
3850,01857;1,92316
3847,96741;1,91836
3845,91626;1,91428
3843,8651;1,91741
3841,81395;1,92428
3839,76279;1,92587
3837,71164;1,92317
3835,66048;1,92269
3833,60933;1,92203
3831,55817;1,92042
3829,50702;1,92016
3827,45586;1,91969
3825,40471;1,92113
3823,35355;1,92401
3821,3024;1,92906
3819,25124;1,93646
3817,20008;1,93478
3815,14893;1,92963
3813,09777;1,92873
3811,04662;1,92766
3808,99546;1,92714
3806,94431;1,9314
3804,89315;1,94145
3802,842;1,94751
3800,79084;1,95064
3798,73969;1,95313
3796,68853;1,95006
3794,63738;1,94543
3792,58622;1,94177
3790,53506;1,94014
3788,48391;1,94178
3786,43275;1,94575
3784,3816;1,95096
3782,33044;1,95629
3780,27929;1,95932
3778,22813;1,95975
3776,17698;1,95866
3774,12582;1,95988
3772,07467;1,96524
3770,02351;1,97268
3767,97236;1,98079
3765,9212;1,98559
3763,87005;1,9885
3761,81889;1,99183
3759,76773;1,99694
3757,71658;2,00406
3755,66542;2,01067
3753,61427;2,01509
3751,56311;2,01934
3749,51196;2,02607
3747,4608;2,03121
3745,40965;2,02981
3743,35849;2,03895
3741,30734;2,05742
3739,25618;2,06843
3737,20503;2,07746
3735,15387;2,08928
3733,10272;2,09524
3731,05156;2,09744
3729,0004;2,10321
3726,94925;2,11104
3724,89809;2,12276
3722,84694;2,13757
3720,79578;2,1514
3718,74463;2,16044
3716,69347;2,16631
3714,64232;2,17469
3712,59116;2,19317
3710,54001;2,22125
3708,48885;2,24174
3706,4377;2,25174
3704,38654;2,26549
3702,33539;2,2923
3700,28423;2,32919
3698,23307;2,36326
3696,18192;2,387
3694,13076;2,40501
3692,07961;2,42503
3690,02845;2,44592
3687,9773;2,45956
3685,92614;2,47109
3683,87499;2,48759
3681,82383;2,50931
3679,77268;2,52989
3677,72152;2,5461
3675,67037;2,57191
3673,61921;2,61575
3671,56806;2,65478
3669,5169;2,68688
3667,46574;2,71907
3665,41459;2,74803
3663,36343;2,77644
3661,31228;2,80289
3659,26112;2,82575
3657,20997;2,85292
3655,15881;2,88799
3653,10766;2,9152
3651,0565;2,94071
3649,00535;2,98831
3646,95419;3,03299
3644,90304;3,04331
3642,85188;3,03791
3640,80073;3,03918
3638,74957;3,04423
3636,69841;3,04905
3634,64726;3,05775
3632,5961;3,07412
3630,54495;3,10165
3628,49379;3,12331
3626,44264;3,10793
3624,39148;3,07999
3622,34033;3,06936
3620,28917;3,07431
3618,23802;3,08748
3616,18686;3,09021
3614,13571;3,06835
3612,08455;3,04144
3610,0334;3,02365
3607,98224;3,018
3605,93108;3,03216
3603,87993;3,06078
3601,82877;3,08944
3599,77762;3,10213
3597,72646;3,09052
3595,67531;3,06786
3593,62415;3,04826
3591,573;3,03355
3589,52184;3,02742
3587,47069;3,04431
3585,41953;3,07983
3583,36838;3,09628
3581,31722;3,08782
3579,26607;3,08235
3577,21491;3,08425
3575,16375;3,08039
3573,1126;3,07526
3571,06144;3,08096
3569,01029;3,08833
3566,95913;3,07849
3564,90798;3,06852
3562,85682;3,08098
3560,80567;3,08832
3558,75451;3,07226
3556,70336;3,06657
3554,6522;3,08991
3552,60105;3,11629
3550,54989;3,11814
3548,49874;3,10098
3546,44758;3,0901
3544,39642;3,09766
3542,34527;3,10691
3540,29411;3,10652
3538,24296;3,11054
3536,1918;3,12708
3534,14065;3,14032
3532,08949;3,13774
3530,03834;3,12832
3527,98718;3,12071
3525,93603;3,11644
3523,88487;3,11693
3521,83372;3,12316
3519,78256;3,13163
3517,73141;3,13937
3515,68025;3,1507
3513,62909;3,15446
3511,57794;3,14025
3509,52678;3,12346
3507,47563;3,11345
3505,42447;3,0999
3503,37332;3,08366
3501,32216;3,07324
3499,27101;3,07018
3497,21985;3,08485
3495,1687;3,11795
3493,11754;3,14119
3491,06639;3,14353
3489,01523;3,14716
3486,96407;3,14522
3484,91292;3,1199
3482,86176;3,09481
3480,81061;3,08931
3478,75945;3,09901
3476,7083;3,11698
3474,65714;3,13064
3472,60599;3,13243
3470,55483;3,12195
3468,50368;3,10762
3466,45252;3,10357
3464,40137;3,108
3462,35021;3,10989
3460,29906;3,11076
3458,2479;3,12635
3456,19674;3,16034
3454,14559;3,17582
3452,09443;3,15388
3450,04328;3,13608
3447,99212;3,13387
3445,94097;3,12608
3443,88981;3,12668
3441,83866;3,12974
3439,7875;3,11109
3437,73635;3,09727
3435,68519;3,11883
3433,63404;3,15066
3431,58288;3,14688
3429,53173;3,11877
3427,48057;3,10353
3425,42941;3,09529
3423,37826;3,09055
3421,3271;3,09307
3419,27595;3,09309
3417,22479;3,09716
3415,17364;3,10233
3413,12248;3,09913
3411,07133;3,10125
3409,02017;3,09632
3406,96902;3,0781
3404,91786;3,07931
3402,86671;3,08986
3400,81555;3,08443
3398,7644;3,08901
3396,71324;3,10721
3394,66208;3,1016
3392,61093;3,0771
3390,55977;3,06645
3388,50862;3,06559
3386,45746;3,0599
3384,40631;3,06188
3382,35515;3,07604
3380,304;3,08071
3378,25284;3,06552
3376,20169;3,04905
3374,15053;3,04164
3372,09938;3,04668
3370,04822;3,06962
3367,99707;3,09201
3365,94591;3,09698
3363,89475;3,09502
3361,8436;3,09034
3359,79244;3,07957
3357,74129;3,07018
3355,69013;3,07676
3353,63898;3,09313
3351,58782;3,09131
3349,53667;3,07792
3347,48551;3,07849
3345,43436;3,08953
3343,3832;3,09914
3341,33205;3,10628
3339,28089;3,11777
3337,22974;3,13461
3335,17858;3,13839
3333,12742;3,11848
3331,07627;3,08834
3329,02511;3,06433
3326,97396;3,05316
3324,9228;3,06244
3322,87165;3,07838
3320,82049;3,07361
3318,76934;3,06278
3316,71818;3,06308
3314,66703;3,05906
3312,61587;3,05354
3310,56472;3,05919
3308,51356;3,05956
3306,46241;3,04549
3304,41125;3,02923
3302,36009;3,0152
3300,30894;3,0071
3298,25778;3,01213
3296,20663;3,02006
3294,15547;3,018
3292,10432;3,02173
3290,05316;3,03564
3288,00201;3,04131
3285,95085;3,03171
3283,8997;3,0147
3281,84854;3,00336
3279,79739;3,00636
3277,74623;3,01611
3275,69508;3,019
3273,64392;3,01375
3271,59276;3,00901
3269,54161;3,01286
3267,49045;3,01226
3265,4393;3,00638
3263,38814;3,02006
3261,33699;3,04217
3259,28583;3,04818
3257,23468;3,04762
3255,18352;3,04524
3253,13237;3,03336
3251,08121;3,02202
3249,03006;3,01108
3246,9789;2,99327
3244,92775;2,97953
3242,87659;2,9788
3240,82543;2,98678
3238,77428;3,00569
3236,72312;3,02136
3234,67197;3,00973
3232,62081;2,98958
3230,56966;2,98575
3228,5185;2,98949
3226,46735;2,98899
3224,41619;2,99481
3222,36504;3,00784
3220,31388;3,00833
3218,26273;3,01204
3216,21157;3,03676
3214,16041;3,03957
3212,10926;3,00137
3210,0581;2,97409
3208,00695;2,97949
3205,95579;2,98727
3203,90464;2,97584
3201,85348;2,96395
3199,80233;2,97053
3197,75117;2,9841
3195,70002;2,99414
3193,64886;3,00402
3191,59771;3,00975
3189,54655;3,00862
3187,4954;2,99635
3185,44424;2,97036
3183,39308;2,95776
3181,34193;2,97478
3179,29077;2,99566
3177,23962;2,99679
3175,18846;2,989
3173,13731;2,98791
3171,08615;2,99471
3169,035;3,00807
3166,98384;3,01045
3164,93269;2,98734
3162,88153;2,97283
3160,83038;2,98987
3158,77922;3,00609
3156,72807;2,99549
3154,67691;2,97689
3152,62575;2,96771
3150,5746;2,97554
3148,52344;2,99278
3146,47229;3,0008
3144,42113;3,00134
3142,36998;2,99392
3140,31882;2,98026
3138,26767;2,97601
3136,21651;2,9766
3134,16536;2,9702
3132,1142;2,96949
3130,06305;2,98113
3128,01189;2,98715
3125,96074;2,97462
3123,90958;2,95737
3121,85842;2,95621
3119,80727;2,96695
3117,75611;2,97616
3115,70496;2,98339
3113,6538;2,98827
3111,60265;2,98826
3109,55149;2,98025
3107,50034;2,96371
3105,44918;2,94679
3103,39803;2,94179
3101,34687;2,95733
3099,29572;2,97374
3097,24456;2,97007
3095,19341;2,96595
3093,14225;2,9737
3091,09109;2,97367
3089,03994;2,964
3086,98878;2,95819
3084,93763;2,95749
3082,88647;2,95621
3080,83532;2,95031
3078,78416;2,94137
3076,73301;2,93608
3074,68185;2,94185
3072,6307;2,9585
3070,57954;2,9674
3068,52839;2,96363
3066,47723;2,95675
3064,42608;2,9485
3062,37492;2,94188
3060,32376;2,93943
3058,27261;2,94059
3056,22145;2,9431
3054,1703;2,94461
3052,11914;2,94128
3050,06799;2,93183
3048,01683;2,92558
3045,96568;2,92611
3043,91452;2,92371
3041,86337;2,91965
3039,81221;2,91979
3037,76106;2,92195
3035,7099;2,9248
3033,65875;2,9251
3031,60759;2,92416
3029,55643;2,9259
3027,50528;2,92786
3025,45412;2,92846
3023,40297;2,92602
3021,35181;2,91961
3019,30066;2,91374
3017,2495;2,91321
3015,19835;2,91931
3013,14719;2,92324
3011,09604;2,9136
3009,04488;2,89822
3006,99373;2,89333
3004,94257;2,90004
3002,89142;2,90768
3000,84026;2,9089
2998,7891;2,91052
2996,73795;2,91779
2994,68679;2,9189
2992,63564;2,91737
2990,58448;2,92378
2988,53333;2,92607
2986,48217;2,91824
2984,43102;2,91631
2982,37986;2,92437
2980,32871;2,92645
2978,27755;2,92343
2976,2264;2,92387
2974,17524;2,92472
2972,12409;2,92565
2970,07293;2,92437
2968,02177;2,921
2965,97062;2,9193
2963,91946;2,91812
2961,86831;2,92088
2959,81715;2,93077
2957,766;2,94073
2955,71484;2,94062
2953,66369;2,92606
2951,61253;2,90706
2949,56138;2,89364
2947,51022;2,88903
2945,45907;2,89156
2943,40791;2,89932
2941,35675;2,907
2939,3056;2,91555
2937,25444;2,93007
2935,20329;2,93242
2933,15213;2,91884
2931,10098;2,91064
2929,04982;2,90856
2926,99867;2,9024
2924,94751;2,89433
2922,89636;2,88945
2920,8452;2,88746
2918,79405;2,88382
2916,74289;2,87485
2914,69174;2,86715
2912,64058;2,85927
2910,58942;2,84904
2908,53827;2,84704
2906,48711;2,85057
2904,43596;2,84989
2902,3848;2,84291
2900,33365;2,83695
2898,28249;2,83813
2896,23134;2,84376
2894,18018;2,84662
2892,12903;2,83937
2890,07787;2,82794
2888,02672;2,82335
2885,97556;2,82419
2883,92441;2,82204
2881,87325;2,81782
2879,82209;2,81976
2877,77094;2,82487
2875,71978;2,829
2873,66863;2,83394
2871,61747;2,83159
2869,56632;2,82371
2867,51516;2,82076
2865,46401;2,8198
2863,41285;2,81555
2861,3617;2,80737
2859,31054;2,79993
2857,25939;2,79775
2855,20823;2,79197
2853,15708;2,77702
2851,10592;2,76892
2849,05476;2,77188
2847,00361;2,76995
2844,95245;2,76289
2842,9013;2,7599
2840,85014;2,76089
2838,79899;2,76141
2836,74783;2,75724
2834,69668;2,74928
2832,64552;2,74054
2830,59437;2,73324
2828,54321;2,72917
2826,49206;2,72981
2824,4409;2,73109
2822,38975;2,72537
2820,33859;2,7149
2818,28743;2,70827
2816,23628;2,70515
2814,18512;2,70208
2812,13397;2,70081
2810,08281;2,6991
2808,03166;2,69491
2805,9805;2,69497
2803,92935;2,69705
2801,87819;2,69294
2799,82704;2,68587
2797,77588;2,68171
2795,72473;2,68173
2793,67357;2,68145
2791,62242;2,67967
2789,57126;2,67969
2787,5201;2,6784
2785,46895;2,67556
2783,41779;2,6725
2781,36664;2,66665
2779,31548;2,66053
2777,26433;2,65258
2775,21317;2,64148
2773,16202;2,6339
2771,11086;2,63212
2769,05971;2,63065
2767,00855;2,62707
2764,9574;2,62634
2762,90624;2,62543
2760,85509;2,61995
2758,80393;2,61353
2756,75277;2,60695
2754,70162;2,60401
2752,65046;2,60773
2750,59931;2,61205
2748,54815;2,61116
2746,497;2,60562
2744,44584;2,59885
2742,39469;2,59513
2740,34353;2,59674
2738,29238;2,59752
2736,24122;2,59495
2734,19007;2,59282
2732,13891;2,58975
2730,08776;2,58543
2728,0366;2,58135
2725,98544;2,57829
2723,93429;2,57727
2721,88313;2,57514
2719,83198;2,56909
2717,78082;2,56525
2715,72967;2,56727
2713,67851;2,57032
2711,62736;2,57175
2709,5762;2,5694
2707,52505;2,56285
2705,47389;2,5561
2703,42274;2,55245
2701,37158;2,55207
2699,32043;2,55014
2697,26927;2,5468
2695,21811;2,54881
2693,16696;2,55165
2691,1158;2,54711
2689,06465;2,54137
2687,01349;2,53836
2684,96234;2,5343
2682,91118;2,53123
2680,86003;2,53143
2678,80887;2,53288
2676,75772;2,53425
2674,70656;2,53383
2672,65541;2,5315
2670,60425;2,52721
2668,55309;2,52083
2666,50194;2,51431
2664,45078;2,50833
2662,39963;2,50593
2660,34847;2,50856
2658,29732;2,51206
2656,24616;2,51222
2654,19501;2,50786
2652,14385;2,50522
2650,0927;2,50853
2648,04154;2,51244
2645,99039;2,51261
2643,93923;2,50978
2641,88808;2,50757
2639,83692;2,50746
2637,78576;2,50699
2635,73461;2,50838
2633,68345;2,51368
2631,6323;2,51726
2629,58114;2,51603
2627,52999;2,51528
2625,47883;2,51805
2623,42768;2,52212
2621,37652;2,5249
2619,32537;2,52274
2617,27421;2,51884
2615,22306;2,51912
2613,1719;2,52192
2611,12075;2,52477
2609,06959;2,52649
2607,01843;2,52696
2604,96728;2,52896
2602,91612;2,53094
2600,86497;2,5281
2598,81381;2,52643
2596,76266;2,53029
2594,7115;2,53551
2592,66035;2,53717
2590,60919;2,53265
2588,55804;2,52856
2586,50688;2,53015
2584,45573;2,53389
2582,40457;2,53404
2580,35342;2,53006
2578,30226;2,52699
2576,2511;2,5272
2574,19995;2,52757
2572,14879;2,52568
2570,09764;2,52246
2568,04648;2,52026
2565,99533;2,52145
2563,94417;2,52265
2561,89302;2,52127
2559,84186;2,52135
2557,79071;2,52395
2555,73955;2,52756
2553,6884;2,5307
2551,63724;2,53073
2549,58609;2,52879
2547,53493;2,52785
2545,48377;2,52833
2543,43262;2,53087
2541,38146;2,53554
2539,33031;2,54178
2537,27915;2,54583
2535,228;2,54449
2533,17684;2,54182
2531,12569;2,54175
2529,07453;2,54409
2527,02338;2,5455
2524,97222;2,54427
2522,92107;2,54666
2520,86991;2,55528
2518,81876;2,5606
2516,7676;2,56009
2514,71644;2,56005
2512,66529;2,5576
2510,61413;2,5502
2508,56298;2,54438
2506,51182;2,54314
2504,46067;2,54107
2502,40951;2,53544
2500,35836;2,53101
2498,3072;2,52705
2496,25605;2,51823
2494,20489;2,50884
2492,15374;2,50548
2490,10258;2,50572
2488,05143;2,50356
2486,00027;2,49817
2483,94911;2,49365
2481,89796;2,49078
2479,8468;2,48492
2477,79565;2,47628
2475,74449;2,46961
2473,69334;2,4646
2471,64218;2,45957
2469,59103;2,4556
2467,53987;2,45237
2465,48872;2,4502
2463,43756;2,45115
2461,38641;2,45022
2459,33525;2,44378
2457,2841;2,43855
2455,23294;2,43715
2453,18178;2,43631
2451,13063;2,4345
2449,07947;2,4328
2447,02832;2,43164
2444,97716;2,42921
2442,92601;2,42724
2440,87485;2,42775
2438,8237;2,42744
2436,77254;2,42313
2434,72139;2,41902
2432,67023;2,42072
2430,61908;2,42389
2428,56792;2,42289
2426,51677;2,42055
2424,46561;2,42059
2422,41445;2,42063
2420,3633;2,41751
2418,31214;2,41429
2416,26099;2,41505
2414,20983;2,41778
2412,15868;2,4162
2410,10752;2,41063
2408,05637;2,40801
2406,00521;2,40893
2403,95406;2,41059
2401,9029;2,41205
2399,85175;2,41124
2397,80059;2,40867
2395,74944;2,40588
2393,69828;2,4047
2391,64712;2,40653
2389,59597;2,40925
2387,54481;2,41083
2385,49366;2,41254
2383,4425;2,41382
2381,39135;2,41228
2379,34019;2,40972
2377,28904;2,4101
2375,23788;2,41295
2373,18673;2,41437
2371,13557;2,41458
2369,08442;2,41928
2367,03326;2,42764
2364,9821;2,42741
2362,93095;2,41465
2360,87979;2,4044
2358,82864;2,40949
2356,77748;2,42295
2354,72633;2,42686
2352,67517;2,42032
2350,62402;2,41673
2348,57286;2,41797
2346,52171;2,41828
2344,47055;2,41711
2342,4194;2,41661
2340,36824;2,41545
2338,31709;2,41237
2336,26593;2,40918
2334,21477;2,40882
2332,16362;2,41334
2330,11246;2,42053
2328,06131;2,42553
2326,01015;2,42549
2323,959;2,42095
2321,90784;2,41655
2319,85669;2,41771
2317,80553;2,42454
2315,75438;2,43091
2313,70322;2,43236
2311,65207;2,43066
2309,60091;2,42814
2307,54976;2,42628
2305,4986;2,42636
2303,44744;2,4271
2301,39629;2,42666
2299,34513;2,42543
2297,29398;2,42427
2295,24282;2,42408
2293,19167;2,42574
2291,14051;2,42728
2289,08936;2,42681
2287,0382;2,42642
2284,98705;2,42788
2282,93589;2,42988
2280,88474;2,43122
2278,83358;2,43152
2276,78243;2,43113
2274,73127;2,43226
2272,68011;2,43455
2270,62896;2,43449
2268,5778;2,4324
2266,52665;2,43248
2264,47549;2,43661
2262,42434;2,44087
2260,37318;2,44185
2258,32203;2,44211
2256,27087;2,44294
2254,21972;2,44331
2252,16856;2,44489
2250,11741;2,44798
2248,06625;2,45066
2246,0151;2,45201
2243,96394;2,45271
2241,91278;2,45389
2239,86163;2,45617
2237,81047;2,45702
2235,75932;2,4567
2233,70816;2,45932
2231,65701;2,46432
2229,60585;2,46791
2227,5547;2,46876
2225,50354;2,4681
2223,45239;2,46823
2221,40123;2,46931
2219,35008;2,46908
2217,29892;2,46751
2215,24777;2,46856
2213,19661;2,47304
2211,14545;2,47669
2209,0943;2,4777
2207,04314;2,47908
2204,99199;2,4813
2202,94083;2,48172
2200,88968;2,48177
2198,83852;2,48345
2196,78737;2,48501
2194,73621;2,48725
2192,68506;2,49222
2190,6339;2,49486
2188,58275;2,49169
2186,53159;2,48778
2184,48044;2,48734
2182,42928;2,49025
2180,37812;2,49337
2178,32697;2,49563
2176,27581;2,49871
2174,22466;2,50153
2172,1735;2,50374
2170,12235;2,50607
2168,07119;2,50771
2166,02004;2,5086
2163,96888;2,51063
2161,91773;2,51378
2159,86657;2,51535
2157,81542;2,51801
2155,76426;2,52312
2153,71311;2,52568
2151,66195;2,52562
2149,61079;2,52661
2147,55964;2,53039
2145,50848;2,53684
2143,45733;2,54239
2141,40617;2,54215
2139,35502;2,53714
2137,30386;2,53349
2135,25271;2,5331
2133,20155;2,534
2131,1504;2,53618
2129,09924;2,53893
2127,04809;2,53728
2124,99693;2,53154
2122,94578;2,52766
2120,89462;2,52659
2118,84346;2,52646
2116,79231;2,52572
2114,74115;2,52428
2112,69;2,52373
2110,63884;2,52406
2108,58769;2,52446
2106,53653;2,52451
2104,48538;2,52299
2102,43422;2,52042
2100,38307;2,52043
2098,33191;2,52388
2096,28076;2,52849
2094,2296;2,53137
2092,17844;2,53234
2090,12729;2,53542
2088,07613;2,5392
2086,02498;2,53872
2083,97382;2,5366
2081,92267;2,53703
2079,87151;2,53866
2077,82036;2,53917
2075,7692;2,53874
2073,71805;2,53846
2071,66689;2,53724
2069,61574;2,53505
2067,56458;2,53296
2065,51343;2,53179
2063,46227;2,5331
2061,41111;2,53439
2059,35996;2,53444
2057,3088;2,536
2055,25765;2,53682
2053,20649;2,535
2051,15534;2,53461
2049,10418;2,53566
2047,05303;2,53613
2045,00187;2,53783
2042,95072;2,53898
2040,89956;2,53802
2038,84841;2,53807
2036,79725;2,53931
2034,7461;2,53859
2032,69494;2,53467
2030,64378;2,53153
2028,59263;2,53254
2026,54147;2,53564
2024,49032;2,53862
2022,43916;2,54126
2020,38801;2,54347
2018,33685;2,5449
2016,2857;2,54451
2014,23454;2,54166
2012,18339;2,53873
2010,13223;2,53777
2008,08108;2,53818
2006,02992;2,53991
2003,97877;2,54093
2001,92761;2,53999
1999,87645;2,53871
1997,8253;2,53897
1995,77414;2,54405
1993,72299;2,55079
1991,67183;2,55238
1989,62068;2,55138
1987,56952;2,55172
1985,51837;2,55272
1983,46721;2,55287
1981,41606;2,55366
1979,3649;2,55757
1977,31375;2,56091
1975,26259;2,55941
1973,21144;2,55735
1971,16028;2,55871
1969,10912;2,56317
1967,05797;2,57023
1965,00681;2,57559
1962,95566;2,57379
1960,9045;2,56861
1958,85335;2,56635
1956,80219;2,56796
1954,75104;2,5714
1952,69988;2,57434
1950,64873;2,57726
1948,59757;2,58058
1946,54642;2,58291
1944,49526;2,58436
1942,44411;2,58442
1940,39295;2,58169
1938,34179;2,57857
1936,29064;2,58037
1934,23948;2,58359
1932,18833;2,58265
1930,13717;2,58134
1928,08602;2,5842
1926,03486;2,58906
1923,98371;2,59355
1921,93255;2,59817
1919,8814;2,60009
1917,83024;2,60105
1915,77909;2,60623
1913,72793;2,61177
1911,67678;2,61489
1909,62562;2,61346
1907,57446;2,60814
1905,52331;2,60552
1903,47215;2,60717
1901,421;2,60877
1899,36984;2,60892
1897,31869;2,6096
1895,26753;2,61422
1893,21638;2,62282
1891,16522;2,6284
1889,11407;2,62825
1887,06291;2,62519
1885,01176;2,62101
1882,9606;2,62114
1880,90945;2,62707
1878,85829;2,63188
1876,80713;2,6328
1874,75598;2,63311
1872,70482;2,63366
1870,65367;2,63617
1868,60251;2,6449
1866,55136;2,65475
1864,5002;2,65702
1862,44905;2,65539
1860,39789;2,65759
1858,34674;2,66249
1856,29558;2,66495
1854,24443;2,66613
1852,19327;2,66865
1850,14212;2,67166
1848,09096;2,67463
1846,0398;2,67582
1843,98865;2,67673
1841,93749;2,6832
1839,88634;2,68968
1837,83518;2,69087
1835,78403;2,68984
1833,73287;2,69035
1831,68172;2,69335
1829,63056;2,69968
1827,57941;2,70681
1825,52825;2,71007
1823,4771;2,71159
1821,42594;2,71206
1819,37478;2,715
1817,32363;2,72775
1815,27247;2,7467
1813,22132;2,75783
1811,17016;2,7602
1809,11901;2,76758
1807,06785;2,78199
1805,0167;2,7946
1802,96554;2,80359
1800,91439;2,81225
1798,86323;2,81968
1796,81208;2,82289
1794,76092;2,82179
1792,70977;2,82142
1790,65861;2,82629
1788,60745;2,82583
1786,5563;2,81309
1784,50514;2,80149
1782,45399;2,80075
1780,40283;2,8038
1778,35168;2,80569
1776,30052;2,80777
1774,24937;2,80851
1772,19821;2,80596
1770,14706;2,80308
1768,0959;2,80035
1766,04475;2,80053
1763,99359;2,80416
1761,94244;2,81334
1759,89128;2,82717
1757,84012;2,83317
1755,78897;2,83093
1753,73781;2,83325
1751,68666;2,84957
1749,6355;2,87493
1747,58435;2,88975
1745,53319;2,8916
1743,48204;2,89186
1741,43088;2,89311
1739,37973;2,89125
1737,32857;2,88593
1735,27742;2,88068
1733,22626;2,89185
1731,17511;2,91532
1729,12395;2,93119
1727,07279;2,93633
1725,02164;2,93798
1722,97048;2,94567
1720,91933;2,95785
1718,86817;2,9696
1716,81702;2,98683
1714,76586;3,00619
1712,71471;3,02218
1710,66355;3,03814
1708,6124;3,05857
1706,56124;3,08441
1704,51009;3,10424
1702,45893;3,10677
1700,40778;3,11845
1698,35662;3,15457
1696,30546;3,17529
1694,25431;3,18584
1692,20315;3,19631
1690,152;3,19642
1688,10084;3,19645
1686,04969;3,20788
1683,99853;3,22685
1681,94738;3,23501
1679,89622;3,22863
1677,84507;3,21635
1675,79391;3,19776
1673,74276;3,18075
1671,6916;3,16671
1669,64045;3,14639
1667,58929;3,12829
1665,53813;3,11626
1663,48698;3,10283
1661,43582;3,09001
1659,38467;3,08233
1657,33351;3,08261
1655,28236;3,0771
1653,2312;3,05233
1651,18005;3,03534
1649,12889;3,03355
1647,07774;3,02649
1645,02658;3,01428
1642,97543;3,00594
1640,92427;3,00398
1638,87312;3,00544
1636,82196;3,00161
1634,7708;2,99123
1632,71965;2,98181
1630,66849;2,9783
1628,61734;2,98663
1626,56618;3,00175
1624,51503;3,00671
1622,46387;3,00162
1620,41272;2,99804
1618,36156;2,99438
1616,31041;2,99016
1614,25925;2,98959
1612,2081;2,98824
1610,15694;2,98562
1608,10579;2,98837
1606,05463;2,99849
1604,00347;3,00969
1601,95232;3,01682
1599,90116;3,02247
1597,85001;3,02971
1595,79885;3,03149
1593,7477;3,02759
1591,69654;3,03093
1589,64539;3,04236
1587,59423;3,04935
1585,54308;3,04521
1583,49192;3,03833
1581,44077;3,03896
1579,38961;3,04151
1577,33846;3,03965
1575,2873;3,04487
1573,23614;3,05515
1571,18499;3,05593
1569,13383;3,04976
1567,08268;3,04159
1565,03152;3,03664
1562,98037;3,04085
1560,92921;3,04505
1558,87806;3,0425
1556,8269;3,02904
1554,77575;3,00571
1552,72459;2,9878
1550,67344;2,98214
1548,62228;2,9851
1546,57113;2,99324
1544,51997;3,00254
1542,46881;3,0036
1540,41766;2,98402
1538,3665;2,95904
1536,31535;2,94299
1534,26419;2,92684
1532,21304;2,9181
1530,16188;2,92019
1528,11073;2,92194
1526,05957;2,91665
1524,00842;2,90459
1521,95726;2,89817
1519,90611;2,91345
1517,85495;2,92526
1515,80379;2,91022
1513,75264;2,88695
1511,70148;2,87533
1509,65033;2,87463
1507,59917;2,87275
1505,54802;2,86625
1503,49686;2,85637
1501,44571;2,84651
1499,39455;2,84668
1497,3434;2,85322
1495,29224;2,8509
1493,24109;2,84236
1491,18993;2,83902
1489,13878;2,84138
1487,08762;2,83556
1485,03646;2,82311
1482,98531;2,81439
1480,93415;2,81382
1478,883;2,82274
1476,83184;2,83876
1474,78069;2,85612
1472,72953;2,86619
1470,67838;2,86652
1468,62722;2,85972
1466,57607;2,85395
1464,52491;2,86119
1462,47376;2,87844
1460,4226;2,89209
1458,37145;2,89812
1456,32029;2,9029
1454,26913;2,91134
1452,21798;2,91714
1450,16682;2,91809
1448,11567;2,91787
1446,06451;2,91809
1444,01336;2,91419
1441,9622;2,9088
1439,91105;2,90799
1437,85989;2,90185
1435,80874;2,88574
1433,75758;2,87053
1431,70643;2,85786
1429,65527;2,84711
1427,60412;2,84184
1425,55296;2,84149
1423,5018;2,83961
1421,45065;2,83042
1419,39949;2,8172
1417,34834;2,80854
1415,29718;2,79918
1413,24603;2,78334
1411,19487;2,7682
1409,14372;2,76372
1407,09256;2,77147
1405,04141;2,78452
1402,99025;2,79385
1400,9391;2,79605
1398,88794;2,79835
1396,83679;2,80448
1394,78563;2,80739
1392,73447;2,80701
1390,68332;2,80844
1388,63216;2,8118
1386,58101;2,81178
1384,52985;2,80742
1382,4787;2,80413
1380,42754;2,80361
1378,37639;2,8046
1376,32523;2,8098
1374,27408;2,81748
1372,22292;2,81914
1370,17177;2,8149
1368,12061;2,81287
1366,06946;2,81429
1364,0183;2,8166
1361,96714;2,82172
1359,91599;2,82914
1357,86483;2,83439
1355,81368;2,83412
1353,76252;2,82699
1351,71137;2,81568
1349,66021;2,80694
1347,60906;2,80781
1345,5579;2,8162
1343,50675;2,82458
1341,45559;2,83203
1339,40444;2,83734
1337,35328;2,8357
1335,30213;2,83107
1333,25097;2,83255
1331,19981;2,83929
1329,14866;2,84291
1327,0975;2,84118
1325,04635;2,83992
1322,99519;2,84448
1320,94404;2,85496
1318,89288;2,86785
1316,84173;2,87536
1314,79057;2,8687
1312,73942;2,8554
1310,68826;2,85159
1308,63711;2,85459
1306,58595;2,85271
1304,5348;2,84692
1302,48364;2,84422
1300,43248;2,84338
1298,38133;2,83935
1296,33017;2,83613
1294,27902;2,84218
1292,22786;2,85367
1290,17671;2,85796
1288,12555;2,85377
1286,0744;2,85038
1284,02324;2,85213
1281,97209;2,85452
1279,92093;2,85448
1277,86978;2,85532
1275,81862;2,85397
1273,76747;2,84934
1271,71631;2,85609
1269,66515;2,87335
1267,614;2,87972
1265,56284;2,87523
1263,51169;2,87307
1261,46053;2,87379
1259,40938;2,87511
1257,35822;2,87828
1255,30707;2,88247
1253,25591;2,8884
1251,20476;2,8982
1249,1536;2,90836
1247,10245;2,91151
1245,05129;2,90529
1243,00013;2,89602
1240,94898;2,8921
1238,89782;2,89332
1236,84667;2,89487
1234,79551;2,89685
1232,74436;2,89743
1230,6932;2,89418
1228,64205;2,88681
1226,59089;2,87776
1224,53974;2,87487
1222,48858;2,88029
1220,43743;2,88478
1218,38627;2,87797
1216,33512;2,86685
1214,28396;2,86936
1212,2328;2,88474
1210,18165;2,89999
1208,13049;2,90989
1206,07934;2,9162
1204,02818;2,92265
1201,97703;2,92629
1199,92587;2,92653
1197,87472;2,92964
1195,82356;2,93171
1193,77241;2,9364
1191,72125;2,95031
1189,6701;2,96503
1187,61894;2,96898
1185,56779;2,96363
1183,51663;2,96345
1181,46547;2,97305
1179,41432;2,98295
1177,36316;2,98938
1175,31201;2,99747
1173,26085;3,00302
1171,2097;2,99717
1169,15854;2,99213
1167,10739;2,99896
1165,05623;3,00067
1163,00508;2,99594
1160,95392;2,99816
1158,90277;2,99678
1156,85161;2,98728
1154,80046;2,97736
1152,7493;2,97566
1150,69814;2,98206
1148,64699;2,98304
1146,59583;2,98678
1144,54468;3,00426
1142,49352;3,01786
1140,44237;3,023
1138,39121;3,03242
1136,34006;3,03012
1134,2889;3,01648
1132,23775;3,02538
1130,18659;3,04636
1128,13544;3,05225
1126,08428;3,05691
1124,03313;3,06535
1121,98197;3,0668
1119,93081;3,06356
1117,87966;3,06386
1115,8285;3,07977
1113,77735;3,09638
1111,72619;3,09063
1109,67504;3,08448
1107,62388;3,09758
1105,57273;3,11197
1103,52157;3,10229
1101,47042;3,07598
1099,41926;3,0556
1097,36811;3,04825
1095,31695;3,0508
1093,2658;3,04653
1091,21464;3,03617
1089,16348;3,03729
1087,11233;3,03655
1085,06117;3,02768
1083,01002;3,03534
1080,95886;3,05783
1078,90771;3,06216
1076,85655;3,0403
1074,8054;3,01407
1072,75424;2,99557
1070,70309;2,98686
1068,65193;2,98153
1066,60078;2,96638
1064,54962;2,9411
1062,49847;2,91399
1060,44731;2,88447
1058,39615;2,86209
1056,345;2,85402
1054,29384;2,84465
1052,24269;2,83011
1050,19153;2,81769
1048,14038;2,80331
1046,08922;2,7834
1044,03807;2,76776
1041,98691;2,76744
1039,93576;2,77356
1037,8846;2,76854
1035,83345;2,75497
1033,78229;2,74823
1031,73114;2,74575
1029,67998;2,74426
1027,62882;2,74755
1025,57767;2,74623
1023,52651;2,74352
1021,47536;2,74649
1019,4242;2,74971
1017,37305;2,75309
1015,32189;2,75719
1013,27074;2,7644
1011,21958;2,77185
1009,16843;2,77517
1007,11727;2,7839
1005,06612;2,79795
1003,01496;2,80894
1000,96381;2,81393
998,91265;2,80522
996,86149;2,78985
994,81034;2,78625
992,75918;2,79411
990,70803;2,80654
988,65687;2,81658
986,60572;2,8154
984,55456;2,814
982,50341;2,82475
980,45225;2,83793
978,4011;2,84889
976,34994;2,8586
974,29879;2,85879
972,24763;2,85622
970,19647;2,8651
968,14532;2,88179
966,09416;2,89803
964,04301;2,91144
961,99185;2,91827
959,9407;2,92285
957,88954;2,93564
955,83839;2,94819
953,78723;2,94397
951,73608;2,93123
949,68492;2,93209
947,63377;2,94757
945,58261;2,95923
943,53146;2,95857
941,4803;2,95437
939,42914;2,95577
937,37799;2,95876
935,32683;2,95985
933,27568;2,96258
931,22452;2,9578
929,17337;2,95139
927,12221;2,95695
925,07106;2,97026
923,0199;2,98226
920,96875;2,98364
918,91759;2,96241
916,86644;2,93727
914,81528;2,94125
912,76413;2,96569
910,71297;2,9796
908,66181;2,9829
906,61066;2,99261
904,5595;3,00811
902,50835;3,012
900,45719;2,99759
898,40604;2,98826
896,35488;2,99514
894,30373;2,99282
892,25257;2,96534
890,20142;2,94359
888,15026;2,93943
886,09911;2,93746
884,04795;2,94772
881,9968;2,97779
879,94564;2,99204
877,89448;2,98008
875,84333;2,96704
873,79217;2,96366
871,74102;2,96058
869,68986;2,95678
867,63871;2,97202
865,58755;2,99285
863,5364;2,99788
861,48524;2,99921
859,43409;3,00144
857,38293;2,99431
855,33178;2,99721
853,28062;3,02138
851,22947;3,04981
849,17831;3,06577
847,12715;3,06569
845,076;3,05699
843,02484;3,04574
840,97369;3,03898
838,92253;3,03745
836,87138;3,03288
834,82022;3,01864
832,76907;3,0064
830,71791;3,00729
828,66676;3,01181
826,6156;3,01497
824,56445;3,02191
822,51329;3,01886
820,46214;2,98676
818,41098;2,95806
816,35982;2,97511
814,30867;3,00949
812,25751;3,01547
810,20636;3,00897
808,1552;3,00781
806,10405;3,00998
804,05289;3,02528
802,00174;3,0504
799,95058;3,06602
797,89943;3,07667
795,84827;3,09401
793,79712;3,09051
791,74596;3,07373
789,69481;3,08478
787,64365;3,10361
785,59249;3,08218
783,54134;3,04888
781,49018;3,04265
779,43903;3,04871
777,38787;3,06511
775,33672;3,10289
773,28556;3,10629
771,23441;3,06453
769,18325;3,04392
767,1321;3,04722
765,08094;3,04444
763,02979;3,04098
760,97863;3,04734
758,92748;3,0485
756,87632;3,02772
754,82516;3,01064
752,77401;3,0267
750,72285;3,05304
748,6717;3,0626
746,62054;3,05136
744,56939;3,02745
742,51823;3,02901
740,46708;3,05044
738,41592;3,04586
736,36477;3,04384
734,31361;3,07952
732,26246;3,10828
730,2113;3,0851
728,16015;3,03452
726,10899;3,00373
724,05783;3,00078
722,00668;3,01946
719,95552;3,05345
717,90437;3,08265
715,85321;3,07722
713,80206;3,04256
711,7509;3,02594
709,69975;3,04312
707,64859;3,07364
705,59744;3,0905
703,54628;3,08106
701,49513;3,05457
699,44397;3,0338
697,39281;3,04164
695,34166;3,0741
693,2905;3,11741
691,23935;3,14759
689,18819;3,14439
687,13704;3,10804
685,08588;3,06614
683,03473;3,05774
680,98357;3,07484
678,93242;3,08432
676,88126;3,11621
674,83011;3,17009
672,77895;3,16754
670,7278;3,12269
668,67664;3,11131
666,62548;3,12506
664,57433;3,09932
662,52317;3,05751
660,47202;3,06843
658,42086;3,09492
656,36971;3,06443
654,31855;3,01205
652,2674;3,00857
650,21624;3,04156
648,16509;3,06045
646,11393;3,06928
644,06278;3,08786
642,01162;3,09534
639,96047;3,07144
637,90931;3,04805
635,85815;3,03412
633,807;3,00453
631,75584;2,99809
629,70469;3,0687
627,65353;3,18841
625,60238;3,2341
623,55122;3,15541
621,50007;3,09066
619,44891;3,09787
617,39776;3,14036
615,3466;3,18226
613,29545;3,21929
611,24429;3,22401
609,19314;3,16333
607,14198;3,12176
605,09082;3,14269
603,03967;3,18114
600,98851;3,19449
598,93736;3,15702
596,8862;3,10585
594,83505;3,09889
592,78389;3,13263
590,73274;3,15052
588,68158;3,139
586,63043;3,13964
584,57927;3,17283
582,52812;3,19491
580,47696;3,17357
578,42581;3,15851
576,37465;3,1625
574,32349;3,15759
572,27234;3,16858
570,22118;3,18299
568,17003;3,15603
566,11887;3,09343
564,06772;3,03725
562,01656;3,00136
559,96541;2,99826
557,91425;3,04249
555,8631;3,10129
553,81194;3,12366
551,76079;3,13343
549,70963;3,15449
547,65848;3,17093
545,60732;3,16747
543,55616;3,11903
541,50501;3,02154
539,45385;2,95681
537,4027;2,95393
535,35154;2,94824
533,30039;2,89704
531,24923;2,85578
529,19808;2,86382
527,14692;2,92896
525,09577;3,02004
523,04461;3,05056
520,99346;2,99272
518,9423;2,89988
516,89115;2,83258
514,83999;2,80187
512,78883;2,78285
510,73768;2,75839
508,68652;2,74243
506,63537;2,75424
504,58421;2,76243
502,53306;2,75423
500,4819;2,75956
498,43075;2,75263
496,37959;2,73302
494,32844;2,76204
492,27728;2,81622
490,22613;2,80542
488,17497;2,73693
486,12382;2,68201
484,07266;2,6718
482,0215;2,70753
479,97035;2,7575
477,91919;2,7626
475,86804;2,73414
473,81688;2,71684
471,76573;2,69902
469,71457;2,66998
467,66342;2,6555
465,61226;2,68264
463,56111;2,74057
461,50995;2,7588
459,4588;2,71031
457,40764;2,6871
455,35649;2,74634
453,30533;2,78115
451,25417;2,70928
449,20302;2,59646
447,15186;2,557
445,10071;2,61239
443,04955;2,66852
440,9984;2,67061
438,94724;2,65475
436,89609;2,64192
434,84493;2,66528
432,79378;2,71977
430,74262;2,74891
428,69147;2,72684
426,64031;2,68755
424,58916;2,65722
422,538;2,64114
420,48684;2,64597
418,43569;2,65617
416,38453;2,68012
414,33338;2,70747
412,28222;2,71719
410,23107;2,69423
408,17991;2,64649
406,12876;2,58198
404,0776;2,54044
402,02645;2,54436
399,97529;2,55967
