Data from neroAvorioWhite_Reflection__0__15.txt Node;
"Date: Fri Sep 12 10:48:50 CEST 2025 User: sycur Spectrometer: SR400348 Trigger mode: 0 Integration Time (sec): 2,000000E-2 Scans to average: 20 Electric dark correction enabled: true Nonlinearity correction enabled: false Boxcar width: 10 XAxis mode: Wavelengths Number of Pixels in Spectrum: 3648 >>>>>Begin Spectral Data<<<<<";
186,01;-227,29
186,281;-3938,24
186,552;149,71
186,822;125,09
187,093;63,64
187,364;-64,44
187,635;5974,47
187,905;57,6
188,176;31,78
188,447;29,13
188,717;27,38
188,988;26,12
189,258;25,31
189,529;28,87
189,8;31,32
190,07;29,82
190,341;29,59
190,611;27,71
190,882;27,49
191,152;28,91
191,423;28,71
191,693;28,22
191,964;28,47
192,234;29,09
192,505;27,78
192,775;27,66
193,045;27,34
193,316;27,23
193,586;26,94
193,856;27,03
194,127;27,16
194,397;27,06
194,667;27,43
194,938;27,94
195,208;27,9
195,478;28,04
195,748;27,99
196,019;27,34
196,289;27,45
196,559;27,25
196,829;26,87
197,099;27,03
197,37;27,64
197,64;27,93
197,91;28,09
198,18;28,39
198,45;28,13
198,72;28,32
198,99;28,04
199,26;28,05
199,53;28,44
199,8;28,94
200,07;29,24
200,34;29,26
200,61;29,15
200,88;29,27
201,15;28,88
201,42;29,02
201,69;29,48
201,96;29,57
202,23;29,45
202,499;29,58
202,769;29,45
203,039;29,15
203,309;28,98
203,579;28,72
203,849;28,87
204,118;28,92
204,388;28,62
204,658;28,77
204,927;28,82
205,197;28,67
205,467;28,23
205,736;28,05
206,006;27,93
206,276;27,84
206,545;27,58
206,815;27,63
207,085;27,49
207,354;27,41
207,624;27,33
207,893;27,18
208,163;26,94
208,432;26,92
208,702;26,81
208,971;26,8
209,241;26,84
209,51;26,62
209,78;26,6
210,049;26,59
210,318;26,47
210,588;26,41
210,857;26,34
211,127;26,28
211,396;26,33
211,665;26,21
211,935;26,27
212,204;26,25
212,473;26,09
212,742;26,1
213,012;25,99
213,281;25,92
213,55;25,96
213,819;25,97
214,088;25,84
214,358;25,85
214,627;25,84
214,896;25,8
215,165;25,78
215,434;25,67
215,703;25,63
215,972;25,65
216,241;25,64
216,51;25,61
216,779;25,6
217,048;25,57
217,317;25,62
217,586;25,62
217,855;25,66
218,124;25,71
218,393;25,74
218,662;25,85
218,931;25,94
219,2;25,96
219,469;25,97
219,738;26,08
220,006;26,09
220,275;26,15
220,544;26,21
220,813;26,3
221,082;26,39
221,35;26,48
221,619;26,57
221,888;26,67
222,157;26,78
222,425;26,89
222,694;27
222,963;27,12
223,231;27,18
223,5;27,33
223,769;27,42
224,037;27,53
224,306;27,66
224,574;27,78
224,843;27,88
225,111;28,06
225,38;28,18
225,648;28,3
225,917;28,39
226,185;28,51
226,454;28,6
226,722;28,71
226,991;28,84
227,259;28,92
227,528;29
227,796;29,13
228,064;29,24
228,333;29,33
228,601;29,44
228,869;29,58
229,138;29,68
229,406;29,82
229,674;29,92
229,942;29,99
230,211;30,1
230,479;30,2
230,747;30,26
231,015;30,36
231,283;30,46
231,552;30,57
231,82;30,64
232,088;30,73
232,356;30,82
232,624;30,89
232,892;30,98
233,16;31,07
233,428;31,13
233,696;31,21
233,964;31,28
234,232;31,32
234,5;31,35
234,768;31,41
235,036;31,44
235,304;31,5
235,572;31,52
235,84;31,57
236,108;31,6
236,376;31,64
236,644;31,67
236,912;31,7
237,179;31,71
237,447;31,76
237,715;31,8
237,983;31,83
238,251;31,84
238,518;31,87
238,786;31,89
239,054;31,91
239,322;31,92
239,589;31,94
239,857;31,95
240,125;32,01
240,392;32
240,66;32,02
240,927;32,01
241,195;32,04
241,463;32,04
241,73;32,05
241,998;32,06
242,265;32,07
242,533;32,07
242,8;32,09
243,068;32,09
243,335;32,07
243,603;32,09
243,87;32,08
244,138;32,08
244,405;32,08
244,672;32,07
244,94;32,07
245,207;32,06
245,474;32,07
245,742;32,04
246,009;32,04
246,276;32,02
246,544;32,03
246,811;32,01
247,078;31,99
247,345;31,98
247,613;31,95
247,88;31,93
248,147;31,94
248,414;31,92
248,681;31,88
248,948;31,87
249,215;31,83
249,483;31,81
249,75;31,77
250,017;31,74
250,284;31,73
250,551;31,71
250,818;31,69
251,085;31,66
251,352;31,63
251,619;31,6
251,886;31,59
252,153;31,54
252,42;31,53
252,687;31,51
252,953;31,49
253,22;31,49
253,487;31,47
253,754;31,43
254,021;31,42
254,288;31,39
254,555;31,38
254,821;31,37
255,088;31,37
255,355;31,37
255,622;31,36
255,888;31,33
256,155;31,31
256,422;31,3
256,688;31,29
256,955;31,27
257,222;31,27
257,488;31,25
257,755;31,24
258,022;31,23
258,288;31,2
258,555;31,16
258,821;31,14
259,088;31,13
259,354;31,12
259,621;31,11
259,887;31,11
260,154;31,08
260,42;31,06
260,687;31,05
260,953;31,03
261,219;31,03
261,486;31,02
261,752;31
262,019;31,01
262,285;31
262,551;31
262,818;30,99
263,084;30,98
263,35;30,98
263,616;30,98
263,883;30,97
264,149;30,98
264,415;30,98
264,681;30,98
264,947;30,97
265,214;30,97
265,48;30,97
265,746;30,99
266,012;30,98
266,278;30,98
266,544;30,98
266,81;30,99
267,076;31
267,342;31,01
267,608;31,01
267,874;31
268,14;31,02
268,406;31,03
268,672;31,04
268,938;31,06
269,204;31,06
269,47;31,07
269,736;31,07
270,002;31,08
270,268;31,08
270,533;31,09
270,799;31,08
271,065;31,09
271,331;31,09
271,597;31,11
271,862;31,12
272,128;31,12
272,394;31,12
272,66;31,12
272,925;31,14
273,191;31,14
273,457;31,15
273,722;31,16
273,988;31,16
274,254;31,15
274,519;31,14
274,785;31,15
275,05;31,16
275,316;31,17
275,582;31,19
275,847;31,18
276,113;31,18
276,378;31,19
276,644;31,2
276,909;31,19
277,174;31,18
277,44;31,19
277,705;31,19
277,971;31,2
278,236;31,19
278,501;31,17
278,767;31,16
279,032;31,17
279,297;31,15
279,563;31,16
279,828;31,16
280,093;31,18
280,358;31,17
280,624;31,18
280,889;31,16
281,154;31,15
281,419;31,14
281,684;31,14
281,95;31,15
282,215;31,14
282,48;31,14
282,745;31,16
283,01;31,13
283,275;31,13
283,54;31,11
283,805;31,12
284,07;31,13
284,335;31,12
284,6;31,1
284,865;31,09
285,13;31,07
285,395;31,07
285,66;31,04
285,925;31,04
286,19;31,03
286,455;31,05
286,72;31,04
286,985;31,06
287,249;31,05
287,514;31,04
287,779;31,05
288,044;31,06
288,309;31,05
288,573;31,04
288,838;31,05
289,103;31,04
289,367;31,03
289,632;31,04
289,897;31,04
290,161;31,03
290,426;31,02
290,691;31,02
290,955;31
291,22;31,02
291,484;31,01
291,749;31,02
292,014;31
292,278;31
292,543;30,99
292,807;30,98
293,072;30,98
293,336;30,95
293,6;30,95
293,865;30,94
294,129;30,94
294,394;30,93
294,658;30,94
294,922;30,93
295,187;30,91
295,451;30,91
295,715;30,91
295,98;30,91
296,244;30,9
296,508;30,91
296,773;30,89
297,037;30,88
297,301;30,86
297,565;30,85
297,829;30,83
298,094;30,81
298,358;30,81
298,622;30,79
298,886;30,78
299,15;30,75
299,414;30,75
299,678;30,73
299,942;30,71
300,206;30,69
300,47;30,67
300,734;30,66
300,998;30,63
301,262;30,62
301,526;30,58
301,79;30,56
302,054;30,53
302,318;30,51
302,582;30,48
302,846;30,47
303,11;30,46
303,374;30,45
303,637;30,42
303,901;30,4
304,165;30,38
304,429;30,36
304,693;30,34
304,956;30,33
305,22;30,31
305,484;30,3
305,747;30,27
306,011;30,26
306,275;30,24
306,538;30,21
306,802;30,2
307,066;30,19
307,329;30,18
307,593;30,16
307,856;30,16
308,12;30,15
308,384;30,13
308,647;30,09
308,911;30,06
309,174;30,06
309,438;30,03
309,701;30,01
309,964;29,98
310,228;29,97
310,491;29,94
310,755;29,93
311,018;29,93
311,281;29,91
311,545;29,9
311,808;29,87
312,071;29,85
312,335;29,83
312,598;29,81
312,861;29,79
313,124;29,77
313,388;29,74
313,651;29,71
313,914;29,69
314,177;29,69
314,44;29,68
314,704;29,65
314,967;29,63
315,23;29,6
315,493;29,6
315,756;29,56
316,019;29,54
316,282;29,5
316,545;29,46
316,808;29,45
317,071;29,42
317,334;29,4
317,597;29,37
317,86;29,33
318,123;29,3
318,386;29,27
318,649;29,25
318,912;29,22
319,175;29,18
319,437;29,16
319,7;29,14
319,963;29,11
320,226;29,07
320,489;29,05
320,751;29,02
321,014;28,98
321,277;28,97
321,54;28,94
321,802;28,93
322,065;28,9
322,328;28,87
322,59;28,84
322,853;28,83
323,116;28,81
323,378;28,81
323,641;28,79
323,903;28,78
324,166;28,77
324,428;28,76
324,691;28,73
324,953;28,69
325,216;28,66
325,478;28,65
325,741;28,61
326,003;28,6
326,266;28,58
326,528;28,57
326,791;28,54
327,053;28,52
327,315;28,49
327,578;28,44
327,84;28,41
328,102;28,39
328,365;28,37
328,627;28,35
328,889;28,31
329,151;28,29
329,414;28,27
329,676;28,23
329,938;28,19
330,2;28,18
330,462;28,16
330,725;28,14
330,987;28,1
331,249;28,09
331,511;28,05
331,773;28,01
332,035;27,97
332,297;27,95
332,559;27,91
332,821;27,89
333,083;27,86
333,345;27,86
333,607;27,83
333,869;27,78
334,131;27,74
334,393;27,72
334,655;27,69
334,917;27,67
335,179;27,66
335,44;27,65
335,702;27,61
335,964;27,61
336,226;27,6
336,488;27,59
336,749;27,59
337,011;27,59
337,273;27,6
337,535;27,61
337,796;27,58
338,058;27,59
338,32;27,59
338,581;27,58
338,843;27,55
339,105;27,56
339,366;27,55
339,628;27,57
339,889;27,55
340,151;27,55
340,412;27,53
340,674;27,52
340,935;27,51
341,197;27,52
341,458;27,51
341,72;27,49
341,981;27,48
342,243;27,46
342,504;27,45
342,766;27,41
343,027;27,38
343,288;27,37
343,55;27,33
343,811;27,31
344,072;27,3
344,334;27,27
344,595;27,22
344,856;27,2
345,117;27,14
345,379;27,12
345,64;27,07
345,901;27,03
346,162;26,99
346,423;26,94
346,684;26,87
346,946;26,84
347,207;26,79
347,468;26,74
347,729;26,7
347,99;26,62
348,251;26,59
348,512;26,56
348,773;26,54
349,034;26,51
349,295;26,45
349,556;26,42
349,817;26,38
350,078;26,37
350,339;26,34
350,6;26,32
350,86;26,27
351,121;26,24
351,382;26,21
351,643;26,19
351,904;26,16
352,165;26,17
352,425;26,15
352,686;26,14
352,947;26,11
353,208;26,09
353,468;26,09
353,729;26,08
353,99;26,05
354,25;26,04
354,511;26
354,772;26
355,032;25,98
355,293;25,99
355,553;25,96
355,814;25,93
356,074;25,9
356,335;25,89
356,596;25,89
356,856;25,91
357,116;25,91
357,377;25,93
357,637;25,89
357,898;25,87
358,158;25,85
358,419;25,85
358,679;25,84
358,939;25,85
359,2;25,83
359,46;25,82
359,72;25,79
359,981;25,81
360,241;25,79
360,501;25,79
360,761;25,78
361,022;25,77
361,282;25,78
361,542;25,78
361,802;25,77
362,062;25,76
362,323;25,72
362,583;25,72
362,843;25,69
363,103;25,7
363,363;25,67
363,623;25,67
363,883;25,67
364,143;25,65
364,403;25,63
364,663;25,64
364,923;25,61
365,183;25,61
365,443;25,61
365,703;25,59
365,963;25,57
366,223;25,55
366,483;25,54
366,743;25,54
367,002;25,53
367,262;25,54
367,522;25,52
367,782;25,52
368,042;25,5
368,301;25,48
368,561;25,47
368,821;25,48
369,081;25,45
369,34;25,44
369,6;25,43
369,86;25,43
370,119;25,43
370,379;25,43
370,638;25,4
370,898;25,37
371,158;25,37
371,417;25,36
371,677;25,36
371,936;25,34
372,196;25,34
372,455;25,34
372,715;25,3
372,974;25,31
373,234;25,3
373,493;25,3
373,753;25,27
374,012;25,29
374,271;25,25
374,531;25,25
374,79;25,23
375,049;25,23
375,309;25,21
375,568;25,19
375,827;25,17
376,086;25,18
376,346;25,19
376,605;25,2
376,864;25,21
377,123;25,21
377,383;25,2
377,642;25,18
377,901;25,18
378,16;25,17
378,419;25,15
378,678;25,14
378,937;25,1
379,196;25,11
379,455;25,06
379,714;25,06
379,973;25,06
380,232;25,07
380,491;25,04
380,75;25,05
381,009;25,03
381,268;25,04
381,527;25,01
381,786;25,02
382,045;24,97
382,304;24,94
382,563;24,91
382,821;24,9
383,08;24,89
383,339;24,9
383,598;24,86
383,857;24,85
384,115;24,83
384,374;24,84
384,633;24,82
384,891;24,84
385,15;24,84
385,409;24,83
385,667;24,78
385,926;24,76
386,185;24,74
386,443;24,74
386,702;24,72
386,96;24,7
387,219;24,66
387,477;24,69
387,736;24,68
387,994;24,7
388,253;24,69
388,511;24,69
388,77;24,67
389,028;24,69
389,287;24,68
389,545;24,69
389,803;24,68
390,062;24,69
390,32;24,66
390,578;24,64
390,837;24,63
391,095;24,64
391,353;24,66
391,612;24,65
391,87;24,62
392,128;24,64
392,386;24,63
392,644;24,63
392,903;24,59
393,161;24,56
393,419;24,5
393,677;24,48
393,935;24,44
394,193;24,42
394,451;24,41
394,709;24,4
394,967;24,36
395,225;24,36
395,483;24,35
395,741;24,35
395,999;24,33
396,257;24,3
396,515;24,28
396,773;24,27
397,031;24,23
397,289;24,24
397,547;24,21
397,805;24,2
398,062;24,19
398,32;24,2
398,578;24,2
398,836;24,22
399,094;24,22
399,351;24,21
399,609;24,19
399,867;24,17
400,124;24,14
400,382;24,14
400,64;24,08
400,897;24,05
401,155;24,02
401,413;24,04
401,67;24,04
401,928;24,04
402,185;24,05
402,443;24,06
402,701;24,04
402,958;24,04
403,216;24,02
403,473;24
403,73;23,97
403,988;23,96
404,245;23,95
404,503;23,95
404,76;23,95
405,018;23,94
405,275;23,93
405,532;23,91
405,79;23,9
406,047;23,91
406,304;23,91
406,561;23,92
406,819;23,88
407,076;23,87
407,333;23,84
407,59;23,81
407,848;23,77
408,105;23,77
408,362;23,75
408,619;23,75
408,876;23,72
409,133;23,74
409,39;23,72
409,647;23,69
409,904;23,67
410,161;23,66
410,418;23,67
410,675;23,68
410,932;23,7
411,189;23,68
411,446;23,69
411,703;23,67
411,96;23,65
412,217;23,66
412,474;23,63
412,731;23,61
412,988;23,6
413,245;23,62
413,501;23,58
413,758;23,57
414,015;23,55
414,272;23,57
414,529;23,55
414,785;23,54
415,042;23,53
415,299;23,52
415,555;23,48
415,812;23,45
416,069;23,41
416,325;23,44
416,582;23,42
416,838;23,41
417,095;23,39
417,352;23,38
417,608;23,37
417,865;23,38
418,121;23,38
418,378;23,39
418,634;23,4
418,891;23,45
419,147;23,47
419,403;23,49
419,66;23,48
419,916;23,5
420,173;23,51
420,429;23,54
420,685;23,56
420,942;23,6
421,198;23,6
421,454;23,62
421,711;23,59
421,967;23,61
422,223;23,6
422,479;23,63
422,735;23,62
422,992;23,61
423,248;23,59
423,504;23,6
423,76;23,57
424,016;23,56
424,272;23,5
424,528;23,49
424,784;23,48
425,041;23,47
425,297;23,45
425,553;23,44
425,809;23,42
426,065;23,41
426,32;23,4
426,576;23,41
426,832;23,44
427,088;23,46
427,344;23,45
427,6;23,47
427,856;23,46
428,112;23,48
428,368;23,5
428,623;23,52
428,879;23,52
429,135;23,53
429,391;23,5
429,646;23,51
429,902;23,49
430,158;23,48
430,414;23,47
430,669;23,48
430,925;23,5
431,181;23,5
431,436;23,51
431,692;23,49
431,947;23,48
432,203;23,47
432,458;23,44
432,714;23,43
432,97;23,41
433,225;23,4
433,481;23,36
433,736;23,38
433,991;23,35
434,247;23,36
434,502;23,36
434,758;23,39
435,013;23,39
435,268;23,43
435,524;23,43
435,779;23,47
436,034;23,46
436,29;23,45
436,545;23,44
436,8;23,45
437,056;23,45
437,311;23,45
437,566;23,43
437,821;23,42
438,076;23,43
438,331;23,46
438,587;23,48
438,842;23,54
439,097;23,5
439,352;23,54
439,607;23,55
439,862;23,57
440,117;23,57
440,372;23,6
440,627;23,59
440,882;23,62
441,137;23,61
441,392;23,61
441,647;23,62
441,902;23,66
442,157;23,65
442,412;23,66
442,667;23,66
442,921;23,69
443,176;23,72
443,431;23,73
443,686;23,71
443,941;23,7
444,195;23,68
444,45;23,71
444,705;23,71
444,96;23,72
445,214;23,7
445,469;23,71
445,724;23,69
445,978;23,68
446,233;23,64
446,487;23,64
446,742;23,64
446,997;23,63
447,251;23,58
447,506;23,59
447,76;23,6
448,015;23,59
448,269;23,55
448,524;23,52
448,778;23,5
449,033;23,49
449,287;23,49
449,541;23,47
449,796;23,45
450,05;23,44
450,305;23,41
450,559;23,4
450,813;23,35
451,067;23,35
451,322;23,34
451,576;23,35
451,83;23,32
452,084;23,29
452,339;23,26
452,593;23,26
452,847;23,23
453,101;23,22
453,355;23,21
453,609;23,23
453,864;23,22
454,118;23,21
454,372;23,2
454,626;23,19
454,88;23,19
455,134;23,19
455,388;23,21
455,642;23,24
455,896;23,25
456,15;23,28
456,404;23,29
456,658;23,3
456,912;23,3
457,165;23,36
457,419;23,36
457,673;23,4
457,927;23,41
458,181;23,43
458,435;23,44
458,688;23,46
458,942;23,46
459,196;23,47
459,45;23,47
459,703;23,49
459,957;23,49
460,211;23,5
460,464;23,49
460,718;23,48
460,972;23,5
461,225;23,51
461,479;23,51
461,732;23,53
461,986;23,52
462,239;23,52
462,493;23,51
462,746;23,56
463;23,55
463,253;23,61
463,507;23,62
463,76;23,63
464,014;23,62
464,267;23,66
464,52;23,67
464,774;23,7
465,027;23,7
465,28;23,72
465,534;23,75
465,787;23,78
466,04;23,76
466,294;23,74
466,547;23,74
466,8;23,77
467,053;23,76
467,306;23,79
467,56;23,79
467,813;23,79
468,066;23,78
468,319;23,82
468,572;23,8
468,825;23,81
469,078;23,81
469,331;23,83
469,584;23,81
469,837;23,84
470,09;23,86
470,343;23,91
470,596;23,96
470,849;24
471,102;24,02
471,355;24,08
471,608;24,12
471,861;24,15
472,114;24,17
472,367;24,22
472,619;24,26
472,872;24,34
473,125;24,37
473,378;24,41
473,631;24,44
473,883;24,47
474,136;24,51
474,389;24,56
474,641;24,61
474,894;24,67
475,147;24,69
475,399;24,74
475,652;24,76
475,905;24,79
476,157;24,8
476,41;24,81
476,662;24,84
476,915;24,88
477,167;24,93
477,42;24,97
477,672;25
477,925;25,04
478,177;25,05
478,43;25,08
478,682;25,1
478,934;25,15
479,187;25,18
479,439;25,21
479,691;25,23
479,944;25,28
480,196;25,31
480,448;25,37
480,701;25,39
480,953;25,41
481,205;25,44
481,457;25,49
481,709;25,55
481,962;25,62
482,214;25,69
482,466;25,78
482,718;25,86
482,97;25,97
483,222;26,05
483,474;26,14
483,726;26,22
483,978;26,29
484,23;26,32
484,482;26,37
484,734;26,4
484,986;26,43
485,238;26,43
485,49;26,44
485,742;26,44
485,994;26,45
486,246;26,45
486,498;26,46
486,75;26,46
487,001;26,46
487,253;26,44
487,505;26,42
487,757;26,37
488,009;26,36
488,26;26,3
488,512;26,26
488,764;26,2
489,015;26,14
489,267;26,08
489,519;26,05
489,77;26,02
490,022;25,99
490,274;25,96
490,525;25,97
490,777;25,97
491,028;25,97
491,28;25,96
491,531;25,96
491,783;25,96
492,034;25,97
492,286;25,97
492,537;25,99
492,789;25,98
493,04;26
493,291;25,99
493,543;26
493,794;25,99
494,045;25,99
494,297;26
494,548;26,01
494,799;26,01
495,051;26,01
495,302;26,01
495,553;26,03
495,804;26,03
496,056;26,04
496,307;26,03
496,558;26,04
496,809;26,05
497,06;26,06
497,311;26,08
497,562;26,08
497,813;26,09
498,064;26,09
498,316;26,09
498,567;26,09
498,818;26,09
499,069;26,11
499,319;26,11
499,57;26,13
499,821;26,13
500,072;26,14
500,323;26,16
500,574;26,18
500,825;26,19
501,076;26,2
501,327;26,2
501,577;26,22
501,828;26,22
502,079;26,22
502,33;26,22
502,58;26,24
502,831;26,24
503,082;26,25
503,333;26,27
503,583;26,27
503,834;26,29
504,084;26,3
504,335;26,29
504,586;26,29
504,836;26,29
505,087;26,29
505,337;26,27
505,588;26,26
505,838;26,26
506,089;26,27
506,339;26,25
506,59;26,26
506,84;26,25
507,091;26,27
507,341;26,26
507,591;26,26
507,842;26,23
508,092;26,24
508,343;26,22
508,593;26,22
508,843;26,21
509,093;26,2
509,344;26,19
509,594;26,19
509,844;26,2
510,094;26,19
510,345;26,19
510,595;26,21
510,845;26,22
511,095;26,21
511,345;26,21
511,595;26,21
511,845;26,21
512,095;26,21
512,345;26,22
512,595;26,22
512,845;26,23
513,095;26,25
513,345;26,25
513,595;26,26
513,845;26,26
514,095;26,25
514,345;26,25
514,595;26,26
514,845;26,26
515,095;26,25
515,345;26,27
515,594;26,29
515,844;26,28
516,094;26,27
516,344;26,27
516,593;26,26
516,843;26,26
517,093;26,27
517,343;26,27
517,592;26,27
517,842;26,27
518,092;26,28
518,341;26,25
518,591;26,26
518,84;26,26
519,09;26,27
519,34;26,28
519,589;26,28
519,839;26,28
520,088;26,29
520,338;26,29
520,587;26,3
520,836;26,29
521,086;26,3
521,335;26,31
521,585;26,32
521,834;26,33
522,083;26,35
522,333;26,34
522,582;26,35
522,831;26,34
523,081;26,35
523,33;26,35
523,579;26,38
523,828;26,39
524,078;26,4
524,327;26,37
524,576;26,39
524,825;26,38
525,074;26,39
525,323;26,38
525,573;26,39
525,822;26,38
526,071;26,38
526,32;26,39
526,569;26,38
526,818;26,39
527,067;26,39
527,316;26,38
527,565;26,39
527,814;26,39
528,063;26,4
528,312;26,39
528,56;26,4
528,809;26,38
529,058;26,37
529,307;26,37
529,556;26,39
529,805;26,39
530,053;26,41
530,302;26,39
530,551;26,42
530,8;26,41
531,048;26,43
531,297;26,42
531,546;26,43
531,794;26,44
532,043;26,45
532,292;26,45
532,54;26,46
532,789;26,44
533,037;26,45
533,286;26,46
533,535;26,48
533,783;26,47
534,032;26,49
534,28;26,49
534,528;26,49
534,777;26,49
535,025;26,48
535,274;26,47
535,522;26,48
535,771;26,47
536,019;26,49
536,267;26,49
536,516;26,5
536,764;26,49
537,012;26,51
537,26;26,51
537,509;26,52
537,757;26,52
538,005;26,53
538,253;26,54
538,501;26,54
538,75;26,53
538,998;26,55
539,246;26,56
539,494;26,56
539,742;26,57
539,99;26,57
540,238;26,59
540,486;26,59
540,734;26,59
540,982;26,59
541,23;26,58
541,478;26,58
541,726;26,58
541,974;26,58
542,222;26,57
542,47;26,57
542,718;26,56
542,966;26,57
543,213;26,56
543,461;26,56
543,709;26,55
543,957;26,54
544,205;26,54
544,452;26,54
544,7;26,54
544,948;26,56
545,196;26,55
545,443;26,55
545,691;26,55
545,939;26,57
546,186;26,57
546,434;26,58
546,681;26,58
546,929;26,59
547,176;26,59
547,424;26,61
547,671;26,6
547,919;26,61
548,166;26,62
548,414;26,63
548,661;26,63
548,909;26,65
549,156;26,67
549,404;26,67
549,651;26,68
549,898;26,68
550,146;26,68
550,393;26,71
550,64;26,71
550,888;26,73
551,135;26,72
551,382;26,73
551,629;26,74
551,876;26,75
552,124;26,74
552,371;26,74
552,618;26,74
552,865;26,75
553,112;26,74
553,359;26,75
553,606;26,74
553,854;26,75
554,101;26,74
554,348;26,73
554,595;26,72
554,842;26,71
555,089;26,7
555,336;26,7
555,582;26,68
555,829;26,69
556,076;26,67
556,323;26,68
556,57;26,67
556,817;26,67
557,064;26,66
557,311;26,66
557,557;26,66
557,804;26,65
558,051;26,64
558,298;26,66
558,544;26,65
558,791;26,65
559,038;26,64
559,284;26,64
559,531;26,65
559,778;26,67
560,024;26,68
560,271;26,69
560,517;26,7
560,764;26,71
561,011;26,7
561,257;26,72
561,504;26,72
561,75;26,72
561,997;26,73
562,243;26,74
562,489;26,74
562,736;26,76
562,982;26,76
563,229;26,77
563,475;26,76
563,721;26,77
563,968;26,78
564,214;26,79
564,46;26,78
564,707;26,8
564,953;26,8
565,199;26,8
565,445;26,81
565,691;26,82
565,938;26,83
566,184;26,84
566,43;26,85
566,676;26,87
566,922;26,87
567,168;26,88
567,414;26,88
567,66;26,9
567,906;26,9
568,152;26,92
568,398;26,94
568,644;26,95
568,89;26,96
569,136;26,98
569,382;26,98
569,628;26,99
569,874;26,98
570,12;26,99
570,366;26,99
570,612;27
570,857;27
571,103;27
571,349;27,01
571,595;27,02
571,84;27,02
572,086;27,03
572,332;27,03
572,578;27,04
572,823;27,03
573,069;27,03
573,315;27,03
573,56;27,03
573,806;27,04
574,051;27,04
574,297;27,05
574,542;27,06
574,788;27,07
575,034;27,07
575,279;27,08
575,524;27,08
575,77;27,08
576,015;27,08
576,261;27,08
576,506;27,08
576,752;27,07
576,997;27,07
577,242;27,07
577,488;27,07
577,733;27,06
577,978;27,07
578,223;27,07
578,469;27,07
578,714;27,07
578,959;27,07
579,204;27,07
579,45;27,07
579,695;27,07
579,94;27,07
580,185;27,06
580,43;27,06
580,675;27,06
580,92;27,06
581,165;27,06
581,41;27,05
581,655;27,06
581,9;27,05
582,145;27,06
582,39;27,06
582,635;27,06
582,88;27,06
583,125;27,06
583,37;27,06
583,615;27,05
583,86;27,05
584,105;27,04
584,349;27,03
584,594;27,02
584,839;27,02
585,084;27,01
585,328;27,02
585,573;27,02
585,818;27,02
586,063;27,02
586,307;27,02
586,552;27,02
586,797;27,01
587,041;27,01
587,286;27,01
587,53;27
587,775;26,98
588,019;26,98
588,264;26,98
588,508;26,97
588,753;26,96
588,997;26,96
589,242;26,97
589,486;26,97
589,731;26,97
589,975;26,96
590,22;26,96
590,464;26,96
590,708;26,96
590,953;26,94
591,197;26,94
591,441;26,94
591,685;26,93
591,93;26,93
592,174;26,93
592,418;26,92
592,662;26,92
592,907;26,93
593,151;26,93
593,395;26,92
593,639;26,91
593,883;26,91
594,127;26,91
594,371;26,9
594,615;26,89
594,859;26,88
595,103;26,87
595,347;26,86
595,591;26,84
595,835;26,83
596,079;26,83
596,323;26,83
596,567;26,82
596,811;26,82
597,055;26,81
597,299;26,8
597,542;26,81
597,786;26,8
598,03;26,79
598,274;26,78
598,518;26,78
598,761;26,78
599,005;26,78
599,249;26,77
599,492;26,78
599,736;26,79
599,98;26,8
600,223;26,8
600,467;26,81
600,711;26,81
600,954;26,82
601,198;26,82
601,441;26,81
601,685;26,81
601,928;26,81
602,172;26,82
602,415;26,8
602,659;26,79
602,902;26,8
603,145;26,8
603,389;26,8
603,632;26,81
603,876;26,82
604,119;26,83
604,362;26,84
604,606;26,83
604,849;26,82
605,092;26,8
605,335;26,8
605,579;26,79
605,822;26,79
606,065;26,77
606,308;26,77
606,551;26,77
606,794;26,77
607,037;26,76
607,281;26,75
607,524;26,76
607,767;26,76
608,01;26,74
608,253;26,75
608,496;26,74
608,739;26,74
608,982;26,72
609,225;26,72
609,468;26,7
609,711;26,71
609,953;26,71
610,196;26,72
610,439;26,72
610,682;26,72
610,925;26,71
611,168;26,72
611,41;26,71
611,653;26,72
611,896;26,72
612,139;26,71
612,381;26,71
612,624;26,72
612,867;26,73
613,109;26,74
613,352;26,73
613,595;26,73
613,837;26,71
614,08;26,73
614,322;26,72
614,565;26,72
614,807;26,71
615,05;26,7
615,292;26,68
615,535;26,68
615,777;26,68
616,02;26,69
616,262;26,7
616,505;26,7
616,747;26,69
616,989;26,69
617,232;26,69
617,474;26,7
617,716;26,7
617,959;26,7
618,201;26,69
618,443;26,7
618,685;26,7
618,927;26,72
619,17;26,71
619,412;26,7
619,654;26,72
619,896;26,73
620,138;26,74
620,38;26,75
620,622;26,76
620,864;26,76
621,107;26,76
621,349;26,74
621,591;26,75
621,833;26,77
622,075;26,76
622,316;26,77
622,558;26,77
622,8;26,77
623,042;26,77
623,284;26,77
623,526;26,76
623,768;26,77
624,01;26,76
624,251;26,76
624,493;26,77
624,735;26,75
624,977;26,74
625,218;26,74
625,46;26,74
625,702;26,73
625,943;26,72
626,185;26,73
626,427;26,74
626,668;26,73
626,91;26,71
627,152;26,72
627,393;26,7
627,635;26,71
627,876;26,7
628,118;26,7
628,359;26,7
628,601;26,7
628,842;26,7
629,084;26,7
629,325;26,69
629,566;26,69
629,808;26,7
630,049;26,71
630,29;26,69
630,532;26,68
630,773;26,66
631,014;26,67
631,256;26,64
631,497;26,65
631,738;26,64
631,979;26,64
632,22;26,62
632,462;26,62
632,703;26,6
632,944;26,6
633,185;26,58
633,426;26,58
633,667;26,58
633,908;26,56
634,149;26,55
634,39;26,55
634,631;26,53
634,872;26,52
635,113;26,5
635,354;26,5
635,595;26,49
635,836;26,5
636,077;26,49
636,318;26,49
636,559;26,46
636,8;26,46
637,04;26,46
637,281;26,47
637,522;26,46
637,763;26,47
638,003;26,47
638,244;26,47
638,485;26,45
638,726;26,44
638,966;26,44
639,207;26,44
639,448;26,43
639,688;26,43
639,929;26,42
640,169;26,43
640,41;26,42
640,65;26,42
640,891;26,41
641,131;26,4
641,372;26,4
641,612;26,41
641,853;26,39
642,093;26,39
642,334;26,37
642,574;26,37
642,814;26,35
643,055;26,35
643,295;26,32
643,535;26,34
643,776;26,32
644,016;26,33
644,256;26,31
644,496;26,31
644,737;26,3
644,977;26,31
645,217;26,31
645,457;26,31
645,697;26,3
645,938;26,31
646,178;26,3
646,418;26,31
646,658;26,3
646,898;26,3
647,138;26,29
647,378;26,3
647,618;26,29
647,858;26,29
648,098;26,29
648,338;26,29
648,578;26,28
648,818;26,28
649,057;26,28
649,297;26,3
649,537;26,28
649,777;26,29
650,017;26,28
650,257;26,26
650,496;26,26
650,736;26,26
650,976;26,24
661,028;25,99
661,267;26,01
661,506;25,99
661,744;25,98
661,983;25,98
662,222;25,99
662,461;25,98
662,7;25,99
662,939;25,97
663,177;25,97
663,416;25,96
663,655;25,97
663,894;25,97
664,132;25,97
664,371;25,97
664,61;25,96
664,848;25,96
665,087;25,96
665,326;25,96
665,564;25,96
665,803;25,95
666,041;25,94
666,28;25,93
666,518;25,93
666,757;25,95
666,995;25,95
667,234;25,95
667,472;25,97
667,711;25,97
667,949;25,96
668,187;25,96
668,426;25,97
668,664;25,95
668,902;25,94
669,141;25,94
669,379;25,92
669,617;25,94
669,856;25,94
670,094;25,94
670,332;25,93
670,57;25,93
670,808;25,93
671,046;25,95
671,285;25,94
671,523;25,92
671,761;25,92
671,999;25,92
672,237;25,9
672,475;25,89
672,713;25,89
672,951;25,89
673,189;25,87
673,427;25,86
673,665;25,85
673,903;25,85
674,141;25,86
674,379;25,86
674,617;25,83
674,854;25,82
675,092;25,8
675,33;25,81
675,568;25,79
675,806;25,81
676,043;25,8
676,281;25,81
676,519;25,82
676,756;25,81
676,994;25,81
677,232;25,82
677,469;25,81
677,707;25,81
677,945;25,8
678,182;25,81
678,42;25,82
678,657;25,83
678,895;25,82
679,132;25,82
679,37;25,82
679,607;25,83
679,845;25,83
680,082;25,84
680,32;25,82
680,557;25,84
680,794;25,84
681,032;25,85
681,269;25,83
681,507;25,85
681,744;25,84
681,981;25,83
682,218;25,82
682,456;25,84
682,693;25,84
682,93;25,84
683,167;25,84
683,404;25,84
683,642;25,83
683,879;25,83
684,116;25,84
684,353;25,85
684,59;25,85
684,827;25,84
685,064;25,84
685,301;25,84
685,538;25,83
685,775;25,82
686,012;25,79
686,249;25,8
686,486;25,78
686,723;25,79
686,96;25,79
687,197;25,81
687,433;25,78
687,67;25,77
687,907;25,77
688,144;25,79
688,381;25,77
688,617;25,77
688,854;25,77
689,091;25,76
689,327;25,75
689,564;25,74
689,801;25,72
690,037;25,73
690,274;25,73
690,511;25,73
690,747;25,73
690,984;25,75
691,22;25,72
691,457;25,72
691,693;25,71
691,93;25,71
692,166;25,7
692,403;25,7
692,639;25,69
692,876;25,68
693,112;25,66
693,348;25,66
693,585;25,66
693,821;25,65
694,057;25,64
694,294;25,65
694,53;25,65
694,766;25,65
695,002;25,65
695,239;25,65
695,475;25,64
695,711;25,63
695,947;25,6
696,183;25,61
696,419;25,6
696,656;25,59
696,892;25,58
697,128;25,59
697,364;25,59
697,6;25,59
697,836;25,58
698,072;25,58
698,308;25,58
698,544;25,58
698,78;25,56
699,016;25,56
699,251;25,54
699,487;25,53
699,723;25,53
699,959;25,51
700,195;25,51
700,431;25,5
700,666;25,5
700,902;25,52
701,138;25,52
701,374;25,52
701,609;25,51
701,845;25,51
702,081;25,48
702,316;25,48
702,552;25,48
702,788;25,49
703,023;25,47
703,259;25,47
703,494;25,46
703,73;25,48
703,965;25,47
704,201;25,48
704,436;25,47
704,672;25,47
704,907;25,48
705,143;25,48
705,378;25,47
705,613;25,48
705,849;25,46
706,084;25,45
706,319;25,42
706,555;25,41
706,79;25,4
707,025;25,41
707,26;25,4
707,496;25,4
707,731;25,38
707,966;25,38
708,201;25,39
708,436;25,38
708,671;25,37
708,907;25,37
709,142;25,37
709,377;25,38
709,612;25,37
709,847;25,35
710,082;25,35
710,317;25,34
710,552;25,32
710,787;25,32
711,022;25,31
711,257;25,32
711,492;25,32
711,726;25,33
711,961;25,31
712,196;25,31
712,431;25,31
712,666;25,31
712,901;25,29
713,135;25,29
713,37;25,28
713,605;25,27
713,839;25,26
714,074;25,25
714,309;25,23
714,543;25,21
714,778;25,23
715,013;25,23
715,247;25,23
715,482;25,24
715,716;25,23
715,951;25,22
716,185;25,2
716,42;25,2
716,654;25,19
716,889;25,18
717,123;25,18
717,358;25,17
717,592;25,17
717,827;25,16
718,061;25,14
718,295;25,14
718,53;25,13
718,764;25,12
718,998;25,1
719,232;25,1
719,467;25,09
719,701;25,07
719,935;25,04
720,169;25,03
720,403;25
720,638;25,01
720,872;24,99
721,106;25
721,34;24,99
721,574;24,98
721,808;24,96
722,042;24,95
722,276;24,94
722,51;24,91
722,744;24,91
722,978;24,91
723,212;24,9
723,446;24,92
723,68;24,92
723,914;24,92
724,147;24,91
724,381;24,92
724,615;24,91
724,849;24,92
725,083;24,94
725,316;24,96
725,55;24,96
725,784;24,97
726,018;24,96
726,251;24,96
726,485;24,97
726,719;24,98
726,952;24,98
727,186;24,99
727,419;25,01
727,653;25,04
727,887;25,05
728,12;25,06
728,354;25,04
728,587;25,06
728,821;25,08
729,054;25,11
729,287;25,1
729,521;25,11
729,754;25,13
729,988;25,11
730,221;25,11
730,454;25,1
730,688;25,11
730,921;25,12
731,154;25,12
731,387;25,12
731,621;25,13
731,854;25,12
732,087;25,13
732,32;25,12
732,553;25,1
732,787;25,11
733,02;25,11
733,253;25,14
733,486;25,12
733,719;25,1
733,952;25,08
734,185;25,09
734,418;25,08
734,651;25,06
734,884;25,06
735,117;25,07
735,35;25,07
735,583;25,06
735,816;25,06
736,049;25,06
736,281;25,04
736,514;25,03
736,747;25,02
736,98;25,02
737,213;25,01
737,445;24,99
737,678;24,96
737,911;24,95
738,144;24,91
738,376;24,91
738,609;24,9
738,842;24,89
739,074;24,88
739,307;24,86
739,539;24,85
739,772;24,84
740,004;24,82
740,237;24,8
740,469;24,78
740,702;24,76
740,934;24,73
741,167;24,72
741,399;24,71
741,632;24,71
741,864;24,69
742,096;24,68
742,329;24,68
742,561;24,68
742,793;24,66
743,026;24,65
743,258;24,63
743,49;24,62
743,723;24,62
743,955;24,61
744,187;24,62
744,419;24,61
744,651;24,58
744,883;24,57
745,115;24,57
745,348;24,59
745,58;24,58
745,812;24,58
746,044;24,57
746,276;24,58
746,508;24,55
746,74;24,55
746,972;24,54
747,204;24,53
747,436;24,51
747,667;24,51
747,899;24,5
748,131;24,51
748,363;24,51
748,595;24,5
748,827;24,49
749,058;24,46
749,29;24,46
749,522;24,46
749,754;24,46
749,985;24,45
750,217;24,43
750,449;24,41
750,68;24,42
750,912;24,41
751,144;24,39
751,375;24,37
751,607;24,35
751,838;24,36
752,07;24,35
752,301;24,35
752,533;24,34
752,764;24,35
752,996;24,32
753,227;24,3
753,459;24,29
753,69;24,29
753,921;24,31
754,153;24,3
754,384;24,31
754,615;24,31
754,847;24,31
755,078;24,3
755,309;24,31
755,54;24,29
755,772;24,29
756,003;24,3
756,234;24,32
756,465;24,32
756,696;24,3
756,927;24,31
757,159;24,29
757,39;24,3
757,621;24,3
757,852;24,3
758,083;24,31
758,314;24,32
758,545;24,32
758,776;24,3
759,007;24,28
759,238;24,27
759,469;24,25
759,699;24,24
759,93;24,22
760,161;24,21
760,392;24,22
760,623;24,2
760,854;24,18
761,084;24,17
761,315;24,18
761,546;24,17
761,776;24,17
762,007;24,17
762,238;24,17
762,468;24,18
762,699;24,17
762,93;24,17
763,16;24,15
763,391;24,13
763,621;24,13
763,852;24,13
764,083;24,13
764,313;24,11
764,543;24,1
764,774;24,09
765,004;24,08
765,235;24,07
765,465;24,07
765,696;24,05
765,926;24,04
766,156;24,02
766,387;24,02
766,617;24
766,847;23,99
767,077;23,97
767,308;23,94
767,538;23,93
767,768;23,9
767,998;23,91
768,228;23,9
768,459;23,9
768,689;23,89
768,919;23,87
769,149;23,87
769,379;23,88
769,609;23,89
769,839;23,88
770,069;23,89
770,299;23,86
770,529;23,87
770,759;23,88
770,989;23,86
771,219;23,83
771,449;23,83
771,678;23,82
771,908;23,8
772,138;23,8
772,368;23,78
772,598;23,78
772,827;23,76
773,057;23,73
773,287;23,71
773,517;23,68
773,746;23,66
773,976;23,64
774,206;23,62
774,435;23,58
774,665;23,55
774,894;23,51
775,124;23,51
775,354;23,48
775,583;23,45
775,813;23,43
776,042;23,42
776,272;23,39
776,501;23,37
776,73;23,36
776,96;23,34
777,189;23,34
777,419;23,32
777,648;23,3
777,877;23,29
778,107;23,27
778,336;23,3
778,565;23,3
778,794;23,28
779,024;23,29
779,253;23,28
779,482;23,29
779,711;23,3
779,94;23,28
780,17;23,29
780,399;23,28
780,628;23,27
780,857;23,29
781,086;23,29
781,315;23,29
781,544;23,29
781,773;23,28
782,002;23,28
782,231;23,27
782,46;23,25
782,689;23,26
782,918;23,26
783,147;23,23
783,375;23,23
783,604;23,21
783,833;23,2
784,062;23,2
784,291;23,18
784,519;23,16
784,748;23,14
784,977;23,14
785,206;23,12
785,434;23,12
785,663;23,09
785,892;23,08
786,12;23,07
786,349;23,04
786,577;23,04
786,806;23,02
787,034;23,01
787,263;23
787,492;22,98
787,72;22,97
787,948;22,95
788,177;22,92
788,405;22,91
788,634;22,9
788,862;22,88
789,09;22,89
789,319;22,88
789,547;22,87
789,775;22,85
790,004;22,82
790,232;22,79
790,46;22,77
790,688;22,75
790,917;22,74
791,145;22,73
791,373;22,71
791,601;22,69
791,829;22,67
792,057;22,68
792,286;22,68
792,514;22,66
792,742;22,65
792,97;22,67
793,198;22,68
793,426;22,67
793,654;22,69
793,882;22,66
794,109;22,64
794,337;22,64
794,565;22,62
794,793;22,62
795,021;22,62
795,249;22,63
795,477;22,61
795,704;22,6
795,932;22,6
796,16;22,6
796,388;22,61
796,615;22,59
796,843;22,56
797,071;22,53
797,298;22,51
797,526;22,5
797,754;22,48
797,981;22,46
798,209;22,43
798,436;22,38
798,664;22,37
798,891;22,34
799,119;22,33
799,346;22,31
799,574;22,28
799,801;22,27
800,029;22,24
800,256;22,24
800,483;22,2
800,711;22,17
800,938;22,13
801,165;22,1
801,393;22,1
801,62;22,1
801,847;22,09
802,074;22,07
802,302;22,06
802,529;22,02
802,756;22,03
802,983;22,02
803,21;22
803,437;21,99
803,665;21,99
803,892;21,98
804,119;21,99
804,346;22,01
804,573;22,02
804,8;22,04
805,027;22,04
805,254;22,05
805,481;22,05
805,708;22,06
805,934;22,04
806,161;22,05
806,388;22,05
806,615;22,03
806,842;22,03
807,069;22,03
807,295;22,05
807,522;22,05
807,749;22,05
807,976;22,05
808,202;22,03
808,429;22,01
808,656;21,99
808,882;21,97
809,109;21,94
809,335;21,9
809,562;21,87
809,789;21,83
810,015;21,8
810,242;21,8
810,468;21,76
810,695;21,75
810,921;21,71
811,147;21,7
811,374;21,71
811,6;21,68
811,827;21,67
812,053;21,64
812,279;21,6
812,506;21,6
812,732;21,6
812,958;21,62
813,185;21,64
813,411;21,63
813,637;21,6
813,863;21,6
814,089;21,59
814,315;21,6
814,542;21,6
814,768;21,61
814,994;21,59
815,22;21,58
815,446;21,59
815,672;21,58
815,898;21,54
816,124;21,52
816,35;21,51
816,576;21,51
816,802;21,53
817,028;21,53
817,254;21,53
817,48;21,52
817,705;21,49
817,931;21,45
818,157;21,45
818,383;21,44
818,609;21,43
818,834;21,43
819,06;21,4
819,286;21,37
819,512;21,35
819,737;21,35
819,963;21,35
820,189;21,31
820,414;21,32
820,64;21,32
820,865;21,31
821,091;21,3
821,316;21,26
821,542;21,2
821,767;21,18
821,993;21,16
822,218;21,12
822,444;21,12
822,669;21,11
822,895;21,12
823,12;21,08
823,345;21,06
823,571;21,05
823,796;21,06
824,021;21,07
824,247;21,05
824,472;21,04
824,697;21,03
824,922;21,03
825,147;21,03
825,373;21,04
825,598;21,02
825,823;21,02
826,048;21,04
826,273;21,04
826,498;21,02
826,723;20,99
826,948;21
827,173;20,97
827,398;20,97
827,623;20,96
827,848;20,96
828,073;20,96
828,298;20,95
828,523;20,93
828,748;20,89
828,973;20,9
829,197;20,88
829,422;20,86
829,647;20,86
829,872;20,83
830,097;20,78
830,321;20,79
830,546;20,79
830,771;20,76
830,995;20,74
831,22;20,74
831,445;20,75
831,669;20,74
831,894;20,73
832,118;20,72
832,343;20,74
832,567;20,75
832,792;20,72
833,016;20,7
833,241;20,72
833,465;20,71
833,69;20,69
833,914;20,64
834,139;20,64
834,363;20,61
834,587;20,58
834,812;20,58
835,036;20,54
835,26;20,5
835,485;20,5
835,709;20,52
835,933;20,5
836,157;20,48
836,381;20,48
836,606;20,46
836,83;20,45
837,054;20,39
837,278;20,36
837,502;20,37
837,726;20,35
837,95;20,3
838,174;20,34
838,398;20,33
838,622;20,32
838,846;20,32
839,07;20,33
839,294;20,32
839,518;20,33
839,742;20,33
839,966;20,32
840,189;20,35
840,413;20,32
840,637;20,32
840,861;20,32
841,085;20,29
841,308;20,33
841,532;20,31
841,756;20,31
841,979;20,3
842,203;20,31
842,427;20,33
842,65;20,33
842,874;20,3
843,098;20,3
843,321;20,32
843,545;20,34
843,768;20,34
843,992;20,36
844,215;20,36
844,439;20,36
844,662;20,33
844,886;20,32
845,109;20,3
845,332;20,31
845,556;20,29
845,779;20,32
846,002;20,26
846,226;20,27
846,449;20,27
846,672;20,3
846,895;20,3
847,119;20,26
847,342;20,26
847,565;20,25
847,788;20,23
848,011;20,22
848,234;20,2
848,457;20,16
848,681;20,14
848,904;20,13
849,127;20,12
849,35;20,15
849,573;20,12
849,796;20,14
850,019;20,1
850,241;20,1
850,464;20,07
850,687;20,09
850,91;20,08
851,133;20,09
851,356;20,11
851,579;20,09
851,801;20,11
852,024;20,14
852,247;20,13
852,47;20,18
852,692;20,18
852,915;20,19
853,138;20,18
853,36;20,19
853,583;20,18
853,806;20,17
854,028;20,15
854,251;20,15
854,473;20,13
854,696;20,13
854,918;20,11
855,141;20,1
855,363;20,1
855,586;20,11
855,808;20,08
856,031;20,05
856,253;20,06
856,475;20,06
856,698;19,98
856,92;20
857,142;19,95
857,365;19,94
857,587;19,94
857,809;19,95
858,031;19,93
858,253;19,92
858,476;19,94
858,698;19,96
858,92;19,95
859,142;19,95
859,364;19,96
859,586;19,96
859,808;19,96
860,03;19,94
860,252;19,93
860,474;19,95
860,696;19,91
860,918;19,84
861,14;19,83
861,362;19,86
861,584;19,84
861,806;19,83
862,028;19,83
862,25;19,8
862,471;19,78
862,693;19,77
862,915;19,79
863,137;19,79
863,358;19,78
863,58;19,76
863,802;19,74
864,024;19,74
864,245;19,72
864,467;19,73
864,688;19,75
864,91;19,74
865,132;19,67
865,353;19,69
865,575;19,7
865,796;19,69
866,018;19,67
866,239;19,67
866,461;19,66
866,682;19,65
866,903;19,66
867,125;19,67
867,346;19,66
867,567;19,61
867,789;19,59
868,01;19,6
868,231;19,61
868,453;19,57
868,674;19,57
868,895;19,56
869,116;19,56
869,337;19,52
869,559;19,53
869,78;19,54
870,001;19,52
870,222;19,54
870,443;19,53
870,664;19,51
870,885;19,5
871,106;19,5
871,327;19,53
871,548;19,49
871,769;19,47
871,99;19,45
872,211;19,47
872,432;19,47
872,653;19,44
872,874;19,44
873,094;19,47
873,315;19,48
873,536;19,47
873,757;19,45
873,978;19,45
874,198;19,42
874,419;19,42
874,64;19,43
874,86;19,42
875,081;19,41
875,302;19,43
875,522;19,41
875,743;19,43
875,963;19,43
876,184;19,41
876,404;19,42
876,625;19,46
876,845;19,46
877,066;19,46
877,286;19,46
877,507;19,42
877,727;19,39
877,947;19,36
878,168;19,39
878,388;19,37
878,609;19,38
878,829;19,39
879,049;19,39
879,269;19,39
879,49;19,39
879,71;19,46
879,93;19,43
880,15;19,42
880,37;19,37
880,59;19,37
880,811;19,38
881,031;19,35
881,251;19,32
881,471;19,29
881,691;19,29
881,911;19,26
882,131;19,33
882,351;19,35
882,571;19,34
882,791;19,29
883,011;19,27
883,23;19,26
883,45;19,25
883,67;19,23
883,89;19,24
884,11;19,23
884,33;19,17
884,549;19,23
884,769;19,27
884,989;19,31
885,209;19,24
885,428;19,25
885,648;19,26
885,868;19,26
886,087;19,27
886,307;19,24
886,526;19,27
886,746;19,25
886,965;19,26
887,185;19,25
887,404;19,28
887,624;19,35
887,843;19,33
888,063;19,34
888,282;19,36
888,502;19,33
888,721;19,33
888,94;19,34
889,16;19,29
889,379;19,29
889,598;19,34
889,818;19,36
890,037;19,35
890,256;19,4
890,475;19,42
890,694;19,43
890,914;19,44
891,133;19,48
891,352;19,47
891,571;19,47
891,79;19,54
892,009;19,51
892,228;19,47
892,447;19,5
892,666;19,47
892,885;19,5
893,104;19,49
893,323;19,48
893,542;19,47
893,761;19,51
893,98;19,53
894,199;19,42
894,417;19,45
894,636;19,5
894,855;19,47
895,074;19,49
895,293;19,48
895,511;19,5
895,73;19,44
895,949;19,41
896,167;19,39
896,386;19,37
896,605;19,41
896,823;19,45
897,042;19,42
897,26;19,43
897,479;19,43
897,697;19,42
897,916;19,47
898,134;19,43
898,353;19,41
898,571;19,39
898,79;19,44
899,008;19,43
899,227;19,38
899,445;19,38
899,663;19,4
899,882;19,41
900,1;19,36
900,318;19,42
900,536;19,47
900,755;19,48
900,973;19,51
901,191;19,5
901,409;19,51
901,627;19,57
901,846;19,59
902,064;19,6
902,282;19,67
902,5;19,63
902,718;19,66
902,936;19,69
903,154;19,7
903,372;19,69
903,59;19,7
903,808;19,71
904,026;19,71
904,244;19,69
904,462;19,7
904,679;19,78
904,897;19,75
905,115;19,74
905,333;19,75
905,551;19,71
905,768;19,69
905,986;19,67
906,204;19,63
906,422;19,66
906,639;19,64
906,857;19,6
907,074;19,56
907,292;19,54
907,51;19,51
907,727;19,48
907,945;19,49
908,162;19,48
908,38;19,47
908,597;19,49
908,815;19,46
909,032;19,48
909,25;19,43
909,467;19,4
909,684;19,36
909,902;19,35
910,119;19,37
910,337;19,39
910,554;19,39
910,771;19,37
910,988;19,39
911,206;19,4
911,423;19,43
911,64;19,47
911,857;19,5
912,074;19,49
912,291;19,48
912,509;19,4
912,726;19,35
912,943;19,44
913,16;19,38
913,377;19,36
913,594;19,39
913,811;19,39
914,028;19,43
914,245;19,52
914,462;19,53
914,679;19,52
914,896;19,52
915,112;19,52
915,329;19,6
915,546;19,56
915,763;19,58
915,98;19,57
916,196;19,55
916,413;19,63
916,63;19,65
916,847;19,66
917,063;19,8
917,28;19,89
917,497;19,81
917,713;19,87
917,93;19,93
918,146;19,9
918,363;19,99
918,579;20,05
918,796;20,04
919,012;20,08
919,229;20,14
919,445;20,15
919,662;20,19
919,878;20,09
920,095;20,1
920,311;20,1
920,527;20,07
920,744;20,13
920,96;20,13
921,176;20,12
921,392;20,16
921,609;20,11
921,825;20,12
922,041;20,14
922,257;20,12
922,473;20,13
922,69;20,15
922,906;20
923,122;19,91
923,338;19,92
923,554;19,88
923,77;19,8
923,986;19,79
924,202;19,73
924,418;19,78
924,634;19,8
924,85;19,8
925,066;19,75
925,282;19,66
925,497;19,64
925,713;19,66
925,929;19,61
926,145;19,56
926,361;19,47
926,576;19,47
926,792;19,44
927,008;19,4
927,224;19,31
927,439;19,37
927,655;19,32
927,871;19,36
928,086;19,34
928,302;19,4
928,517;19,33
928,733;19,3
928,948;19,24
929,164;19,23
929,379;19,24
929,595;19,27
929,81;19,32
930,026;19,27
930,241;19,27
930,456;19,31
930,672;19,33
930,887;19,35
931,102;19,34
931,318;19,36
931,533;19,32
931,748;19,38
931,964;19,4
932,179;19,46
932,394;19,33
932,609;19,31
932,824;19,25
933,039;19,29
933,255;19,38
933,47;19,45
933,685;19,42
933,9;19,44
934,115;19,51
934,33;19,5
934,545;19,54
934,76;19,51
934,975;19,49
935,19;19,58
935,404;19,6
935,619;19,62
935,834;19,71
936,049;19,91
936,264;19,91
936,479;19,96
936,693;20,07
936,908;20,29
937,123;20,63
937,338;20,77
937,552;20,89
937,767;21,06
937,982;21,21
938,196;21,48
938,411;21,73
938,625;22,03
938,84;22,04
939,055;22,17
939,269;22,6
939,484;22,88
939,698;23,08
939,912;23,4
940,127;23,68
940,341;23,69
940,556;23,89
940,77;24,04
940,984;24,26
941,199;24,39
941,413;24,5
941,627;24,4
941,842;24,45
942,056;24,66
942,27;24,39
942,484;24,24
942,699;24,28
942,913;24,18
943,127;23,93
943,341;24,28
943,555;24,32
943,769;24,05
943,983;24,23
944,197;24,07
944,411;24,02
944,625;23,96
944,839;24,43
945,053;24,54
945,267;25,01
945,481;25,05
945,695;25,18
945,909;25,03
946,123;25,04
946,336;25,29
946,55;25,17
946,764;25,29
946,978;25,42
947,192;25,35
947,405;25,2
947,619;25,14
947,833;25,24
948,046;25,43
948,26;25,2
948,474;25,04
948,687;25,05
948,901;24,75
949,114;24,9
949,328;24,69
949,541;24,5
949,755;24,41
949,968;24,35
950,182;24,42
950,395;24,6
950,609;24,48
950,822;24,49
951,035;24,6
951,249;24,7
951,462;24,72
951,675;24,73
951,889;24,89
952,102;24,83
952,315;24,67
952,528;24,55
952,741;24,91
952,955;24,88
953,168;24,95
953,381;25,19
953,594;25,31
953,807;25,32
954,02;25,27
954,233;25,08
954,446;25,08
954,659;24,83
954,872;25
955,085;24,82
955,298;24,57
955,511;24,78
955,724;24,59
955,937;24,69
956,15;24,5
956,362;24,45
956,575;24,66
956,788;24,55
957,001;24,44
957,214;24,26
957,426;24,31
957,639;24,09
957,852;24,01
958,064;23,8
958,277;23,55
958,49;23,29
958,702;23,24
958,915;23,14
959,127;23,24
959,34;22,96
959,552;23,14
959,765;23,12
959,977;22,93
960,19;22,95
960,402;22,65
960,615;22,7
960,827;22,57
961,039;22,41
961,252;22,66
961,464;22,51
961,676;22,46
961,889;22,49
962,101;22,56
962,313;22,7
962,525;22,73
962,738;22,75
962,95;23,17
963,162;23,24
963,374;23,21
963,586;23,21
963,798;22,97
964,01;22,86
964,222;23,08
964,434;23,08
964,646;23,17
964,858;23,22
965,07;23,17
965,282;23,23
965,494;23,23
965,706;23,14
965,918;23,31
966,13;23,25
966,342;22,92
966,553;23,05
966,765;22,88
966,977;22,64
967,189;22,61
967,401;22,43
967,612;22,65
967,824;22,52
968,036;22,53
968,247;22,62
968,459;22,65
968,67;22,35
968,882;22,23
969,094;22,17
969,305;22,13
969,517;22,21
969,728;21,97
969,94;21,97
970,151;21,99
970,362;22,11
970,574;22,22
970,785;22,23
970,997;22,19
971,208;22,32
971,419;22,66
971,631;22,88
971,842;22,91
972,053;22,7
972,264;22,92
972,476;22,64
972,687;22,85
972,898;22,65
973,109;22,87
973,32;22,86
973,531;22,99
973,742;23,16
973,954;23,34
974,165;23,27
974,376;23,19
974,587;23,22
974,798;23,02
975,009;23,1
975,22;23,42
975,43;23,52
975,641;23,43
975,852;23,34
976,063;23,32
976,274;23,12
976,485;22,93
976,695;23,11
976,906;23,26
977,117;23,06
977,328;23,2
977,538;23,36
977,749;23,52
977,96;23,58
978,17;23,63
978,381;23,53
978,592;23,74
978,802;23,96
979,013;23,93
979,223;24,13
979,434;24,26
979,644;24,22
979,855;24,18
980,065;24,34
980,276;24,22
980,486;24,05
980,696;24,48
980,907;24,84
981,117;24,78
981,327;24,83
981,538;24,98
981,748;25,28
981,958;25
982,169;25,02
982,379;24,9
982,589;24,8
982,799;24,8
983,009;24,76
983,219;24,52
983,43;24,72
983,64;24,78
983,85;24,64
984,06;24,61
984,27;24,87
984,48;24,83
984,69;24,84
984,9;24,92
985,11;24,73
985,32;24,7
985,529;24,63
985,739;24,69
985,949;24,77
986,159;24,55
986,369;24,57
986,579;24,31
986,788;24,45
986,998;24,61
987,208;24,39
987,417;24,68
987,627;24,94
987,837;24,9
988,046;24,62
988,256;24,36
988,466;24,17
988,675;23,83
988,885;23,73
989,094;23,71
989,304;24,01
989,513;23,86
989,723;23,66
989,932;23,77
990,142;23,9
990,351;24,1
990,56;24,07
990,77;24,29
990,979;24,31
991,188;24,24
991,398;24,46
991,607;24,94
991,816;24,78
992,025;24,68
992,235;24,6
992,444;24,55
992,653;24,53
992,862;24,64
993,071;24,56
993,28;24,59
993,489;24,75
993,698;24,41
993,908;24,54
994,117;24,74
994,326;24,8
994,534;24,92
994,743;24,71
994,952;24,78
995,161;24,89
995,37;25,6
995,579;25,9
995,788;25,38
995,997;24,89
996,205;24,81
996,414;24,85
996,623;24,91
996,832;25,43
997,04;25,77
997,249;25,89
997,458;26,26
997,666;26,43
997,875;26,15
998,084;26,4
998,292;26,45
998,501;26,5
998,709;26,2
998,918;26,25
999,126;26,12
999,335;26,28
999,543;26,18
999,752;26,23
999,96;26,18
1000,169;27,13
1000,377;27,21
1000,585;27,68
1000,794;28,15
1001,002;28,34
1001,21;27,85
1001,418;27,67
1001,627;27,79
1001,835;27,69
1002,043;28,01
1002,251;28,63
1002,459;29,05
1002,668;29,18
1002,876;29,03
1003,084;29,47
1003,292;29,14
1003,5;29,19
1003,708;29,69
1003,916;29,88
1004,124;29,38
1004,332;29,16
1004,54;28,52
1004,748;28,81
1004,956;28,16
1005,163;27,51
1005,371;27,99
1005,579;28,48
1005,787;28,84
1005,995;28,85
1006,202;28,81
1006,41;28,49
1006,618;28,1
1006,826;27,82
1007,033;27,68
1007,241;28,1
1007,449;27,83
1007,656;27,71
1007,864;28,24
1008,071;28,11
1008,279;28,22
1008,486;28,34
1008,694;28,1
1008,901;27,88
1009,109;27,78
1009,316;28,19
1009,524;28,52
1009,731;27,97
1009,938;27,85
1010,146;27,8
1010,353;28,2
1010,56;28,47
1010,768;28,76
1010,975;28,69
1011,182;28,7
1011,389;28,42
1011,597;28,22
1011,804;28,24
1012,011;28,32
1012,218;28,42
1012,425;28,64
1012,632;28,37
1012,839;28,47
1013,046;28,83
1013,253;29,19
1013,46;29,21
1013,667;29,22
1013,874;29,15
1014,081;28,79
1014,288;28,75
1014,495;29,11
1014,702;28,87
1014,909;28,69
1015,116;28,24
1015,323;28,66
1015,529;28,82
1015,736;29,09
1015,943;28,64
1016,15;29,08
1016,356;29,5
1016,563;29,3
1016,77;28,18
1016,976;28,02
1017,183;28,2
1017,389;27,98
1017,596;28,14
1017,803;28,58
1018,009;29,12
1018,216;29,17
1018,422;29,59
1018,629;29,53
1018,835;29,37
1019,041;29,22
1019,248;29,78
1019,454;30,46
1019,661;30,94
1019,867;30,93
1020,073;30,6
1020,279;30,8
1020,486;30,86
1020,692;31,51
1020,898;30,96
1021,104;31,42
1021,311;31,1
1021,517;30,84
1021,723;31,82
1021,929;32,03
1022,135;32,21
1022,341;32,28
1022,547;33,12
1022,753;33,02
1022,959;33,74
1023,165;33,24
1023,371;32,69
1023,577;31,62
1023,783;30,88
1023,989;30,19
1024,195;29,84
1024,401;30,04
1024,607;30,44
1024,812;29,67
1025,018;28,95
1025,224;29,37
1025,43;30,23
1025,635;31,07
1025,841;31,13
1026,047;30,06
1026,252;30,11
1026,458;29,73
1026,664;29,15
1026,869;29,11
1027,075;29,73
1027,28;29,15
1027,486;29,79
1027,691;30,18
1027,897;30,31
1028,102;31,12
1028,308;31,47
1028,513;31,53
1028,719;31,57
1028,924;31,34
1029,129;31,77
1029,335;31,67
1029,54;31,76
1029,745;31,82
1029,95;31,69
1030,156;32,17
1030,361;32,93
1030,566;33,08
1030,771;32,39
1030,976;33,65
1031,182;32,81
1031,387;32,19
1031,592;32,96
1031,797;32,94
1032,002;33,36
1032,207;34,43
1032,412;33,89
1032,617;34,68
1032,822;34,48
1033,027;36,15
1033,232;36,47
1033,437;36,64
1033,642;36,32
1033,846;36,27
1034,051;34,82
1034,256;34,16
1034,461;33,4
1034,666;31,94
1034,87;31,69
1035,075;32,61
1035,28;30,82
1035,484;30,59
1035,689;31,16
1035,894;30,34
1036,098;29,72
1036,303;30,43
1036,507;30,36
1036,712;31,08
1036,917;31,33
1037,121;32,11
1037,325;29,74
1037,53;29,47
1037,734;29,57
1037,939;29,88
1038,143;29,67
1038,348;29,35
1038,552;30,45
1038,756;30,77
1038,961;32,57
1039,165;32,58
1039,369;33,61
1039,573;34,03
1039,778;35,84
1039,982;35,49
1040,186;35,81
1040,39;36,33
1040,594;34,05
1040,798;34,14
1041,002;34,48
1041,206;30,74
1041,41;31,91
1041,614;33,48
1041,818;33,77
1042,022;33,43
1042,226;34,95
1042,43;35,51
1042,634;35,42
1042,838;35,14
1043,042;36,13
1043,246;36,21
1043,45;35,96
1043,653;34,72
1043,857;35,92
1044,061;34,19
1044,265;34,06
1044,468;33,3
1044,672;34,84
1044,876;35,67
1045,079;35,56
1045,283;33,97
1045,487;35,65
1045,69;33,22
1045,894;33,46
1046,097;34,25
1046,301;33,99
1046,504;32,65
1046,708;31,58
1046,911;33,01
1047,115;32,82
1047,318;32,72
1047,522;33,92
1047,725;33,38
1047,928;34,81
1048,132;34,51
1048,335;35,13
1048,538;35,41
1048,741;35,6
1048,945;32,72
1049,148;34,74
1049,351;35,07
1049,554;35,55
1049,757;34,82
1049,96;36,63
1050,163;34,5
1050,367;31,25
1050,57;32,5
1050,773;32,95
1050,976;32,98
1051,179;32,09
1051,382;31,99
1051,585;31,13
1051,787;27,29
1051,99;27,5
1052,193;23,9
1052,396;24,18
1052,599;25,18
1052,802;25,49
1053,005;25,74
1053,207;30,35
1053,41;29,06
1053,613;27,27
1053,815;27,69
1054,018;30,07
1054,221;29,65
1054,423;31,37
1054,626;34,23
1054,829;33,54
1055,031;32,99
1055,234;34,34
1055,436;35,81
1055,639;35,98
1055,841;35,04
1056,044;37,87
1056,246;37,91
