Data from neroAvorioWhite_Reflection__1__16.txt Node;
"Date: Fri Sep 12 10:50:08 CEST 2025 User: sycur Spectrometer: SR400348 Trigger mode: 0 Integration Time (sec): 1,000000E-1 Scans to average: 20 Electric dark correction enabled: true Nonlinearity correction enabled: false Boxcar width: 10 XAxis mode: Wavelengths Number of Pixels in Spectrum: 3648 >>>>>Begin Spectral Data<<<<<";
186,01;-7947,74
186,281;-28642,65
186,552;518,94
186,822;230,56
187,093;-63,64
187,364;-379,11
187,635;72605,32
187,905;483,14
188,176;200,21
188,447;153,73
188,717;123
188,988;140,67
189,258;147,41
189,529;162,97
189,8;161,72
190,07;143,51
190,341;131,86
190,611;117,65
190,882;110,27
191,152;102,99
191,423;97,1
191,693;93,55
191,964;92,08
192,234;86
192,505;79,13
192,775;78,9
193,045;74,33
193,316;70,54
193,586;68,32
193,856;68,65
194,127;66,77
194,397;65,4
194,667;62,91
194,938;61,78
195,208;57,48
195,478;55,91
195,748;54,38
196,019;54,31
196,289;53,64
196,559;52,4
196,829;51,85
197,099;50,85
197,37;49,13
197,64;47,9
197,91;47,03
198,18;46,67
198,45;44,44
198,72;43,83
198,99;42,3
199,26;42,04
199,53;41,94
199,8;41,97
200,07;41,57
200,34;41,28
200,61;40,29
200,88;40,57
201,15;40,07
201,42;40,14
201,69;39,33
201,96;39,47
202,23;38,86
202,499;37,7
202,769;37,62
203,039;37,1
203,309;35,92
203,579;35,55
203,849;35,25
204,118;34,99
204,388;34,02
204,658;33,5
204,927;32,85
205,197;32,05
205,467;31,02
205,736;30,91
206,006;30,28
206,276;29,76
206,545;28,6
206,815;28,44
207,085;27,87
207,354;27,44
207,624;26,95
207,893;26,07
208,163;25,8
208,432;25,31
208,702;25,08
208,971;24,91
209,241;24,49
209,51;24,04
209,78;23,85
210,049;23,7
210,318;23,48
210,588;23,4
210,857;23,07
211,127;23,05
211,396;22,63
211,665;22,38
211,935;22,35
212,204;22,65
212,473;22,22
212,742;22,07
213,012;22,04
213,281;21,6
213,55;21,58
213,819;21,31
214,088;21,11
214,358;20,79
214,627;20,58
214,896;20,49
215,165;20,12
215,434;19,66
215,703;19,48
215,972;19,46
216,241;19,05
216,51;18,85
216,779;18,49
217,048;18,48
217,317;18,31
217,586;18,07
217,855;17,79
218,124;17,82
218,393;17,67
218,662;17,33
218,931;17,26
219,2;17,12
219,469;17,08
219,738;17,03
220,006;17,03
220,275;17,03
220,544;16,97
220,813;17,03
221,082;17,02
221,35;16,96
221,619;16,86
221,888;16,92
222,157;16,92
222,425;16,95
222,694;16,73
222,963;16,71
223,231;16,63
223,5;16,59
223,769;16,49
224,037;16,48
224,306;16,47
224,574;16,45
224,843;16,45
225,111;16,51
225,38;16,42
225,648;16,42
225,917;16,31
226,185;16,57
226,454;16,55
226,722;16,54
226,991;16,59
227,259;16,58
227,528;16,54
227,796;16,59
228,064;16,55
228,333;16,65
228,601;16,72
228,869;16,75
229,138;16,76
229,406;16,79
229,674;16,78
229,942;16,85
230,211;16,86
230,479;16,9
230,747;16,84
231,015;16,85
231,283;16,9
231,552;16,96
231,82;16,76
232,088;16,77
232,356;16,83
232,624;16,8
232,892;16,8
233,16;16,81
233,428;16,75
233,696;16,79
233,964;16,78
234,232;16,81
234,5;16,82
234,768;16,85
235,036;16,82
235,304;16,87
235,572;16,81
235,84;16,85
236,108;16,86
236,376;16,95
236,644;17,02
236,912;17
237,179;16,98
237,447;17,02
237,715;17,06
237,983;17,1
238,251;17,08
238,518;17,1
238,786;17,1
239,054;17,13
239,322;17,12
239,589;17,18
239,857;17,17
240,125;17,23
240,392;17,21
240,66;17,25
240,927;17,21
241,195;17,27
241,463;17,26
241,73;17,29
241,998;17,25
242,265;17,2
242,533;17,2
242,8;17,25
243,068;17,25
243,335;17,23
243,603;17,18
243,87;17,25
244,138;17,24
244,405;17,27
244,672;17,27
244,94;17,3
245,207;17,26
245,474;17,25
245,742;17,2
246,009;17,22
246,276;17,22
246,544;17,23
246,811;17,26
247,078;17,27
247,345;17,26
247,613;17,25
247,88;17,25
248,147;17,25
248,414;17,2
248,681;17,21
248,948;17,24
249,215;17,26
249,483;17,2
249,75;17,17
250,017;17,16
250,284;17,16
250,551;17,15
250,818;17,14
251,085;17,13
251,352;17,15
251,619;17,15
251,886;17,14
252,153;17,15
252,42;17,11
252,687;17,1
252,953;17,09
253,22;17,09
253,487;17,12
253,754;17,11
254,021;17,12
254,288;17,08
254,555;17,07
254,821;17,09
255,088;17,12
255,355;17,14
255,622;17,13
255,888;17,11
256,155;17,13
256,422;17,11
256,688;17,11
256,955;17,09
257,222;17,08
257,488;17,05
257,755;17,05
258,022;17,04
258,288;17,02
258,555;16,99
258,821;16,99
259,088;16,97
259,354;16,95
259,621;16,96
259,887;16,98
260,154;16,92
260,42;16,89
260,687;16,86
260,953;16,84
261,219;16,82
261,486;16,81
261,752;16,77
262,019;16,79
262,285;16,77
262,551;16,74
262,818;16,76
263,084;16,75
263,35;16,72
263,616;16,72
263,883;16,71
264,149;16,7
264,415;16,65
264,681;16,67
264,947;16,66
265,214;16,62
265,48;16,62
265,746;16,64
266,012;16,62
266,278;16,6
266,544;16,59
266,81;16,61
267,076;16,58
267,342;16,58
267,608;16,54
267,874;16,55
268,14;16,56
268,406;16,5
268,672;16,51
268,938;16,51
269,204;16,47
269,47;16,46
269,736;16,45
270,002;16,45
270,268;16,41
270,533;16,4
270,799;16,38
271,065;16,36
271,331;16,34
271,597;16,33
271,862;16,31
272,128;16,3
272,394;16,25
272,66;16,26
272,925;16,25
273,191;16,23
273,457;16,21
273,722;16,2
273,988;16,2
274,254;16,18
274,519;16,16
274,785;16,16
275,05;16,15
275,316;16,15
275,582;16,16
275,847;16,14
276,113;16,13
276,378;16,12
276,644;16,11
276,909;16,11
277,174;16,1
277,44;16,14
277,705;16,13
277,971;16,15
278,236;16,16
278,501;16,14
278,767;16,13
279,032;16,12
279,297;16,08
279,563;16,06
279,828;16,1
280,093;16,1
280,358;16,09
280,624;16,11
280,889;16,09
281,154;16,08
281,419;16,06
281,684;16,05
281,95;16,08
282,215;16,05
282,48;16,05
282,745;16,06
283,01;16,01
283,275;16,01
283,54;15,97
283,805;15,95
284,07;15,96
284,335;15,97
284,6;15,95
284,865;15,97
285,13;15,97
285,395;15,92
285,66;15,9
285,925;15,92
286,19;15,9
286,455;15,9
286,72;15,91
286,985;15,94
287,249;15,95
287,514;15,94
287,779;15,93
288,044;15,92
288,309;15,92
288,573;15,92
288,838;15,9
289,103;15,92
289,367;15,9
289,632;15,88
289,897;15,89
290,161;15,9
290,426;15,88
290,691;15,9
290,955;15,87
291,22;15,88
291,484;15,86
291,749;15,86
292,014;15,86
292,278;15,83
292,543;15,81
292,807;15,79
293,072;15,81
293,336;15,79
293,6;15,78
293,865;15,76
294,129;15,75
294,394;15,76
294,658;15,76
294,922;15,76
295,187;15,76
295,451;15,75
295,715;15,75
295,98;15,77
296,244;15,75
296,508;15,77
296,773;15,76
297,037;15,74
297,301;15,74
297,565;15,75
297,829;15,73
298,094;15,73
298,358;15,74
298,622;15,73
298,886;15,7
299,15;15,71
299,414;15,7
299,678;15,74
299,942;15,73
300,206;15,69
300,47;15,69
300,734;15,68
300,998;15,66
301,262;15,65
301,526;15,62
301,79;15,61
302,054;15,59
302,318;15,57
302,582;15,56
302,846;15,53
303,11;15,53
303,374;15,52
303,637;15,5
303,901;15,5
304,165;15,49
304,429;15,52
304,693;15,48
304,956;15,48
305,22;15,44
305,484;15,43
305,747;15,41
306,011;15,38
306,275;15,34
306,538;15,34
306,802;15,33
307,066;15,33
307,329;15,32
307,593;15,31
307,856;15,29
308,12;15,27
308,384;15,26
308,647;15,22
308,911;15,21
309,174;15,18
309,438;15,12
309,701;15,1
309,964;15,08
310,228;15,08
310,491;15,04
310,755;15,03
311,018;15,07
311,281;15,09
311,545;15,07
311,808;15,09
312,071;15,06
312,335;15,02
312,598;15,01
312,861;14,99
313,124;14,96
313,388;14,95
313,651;14,98
313,914;14,94
314,177;14,94
314,44;14,92
314,704;14,94
314,967;14,94
315,23;14,91
315,493;14,88
315,756;14,87
316,019;14,86
316,282;14,86
316,545;14,81
316,808;14,8
317,071;14,82
317,334;14,81
317,597;14,8
317,86;14,79
318,123;14,76
318,386;14,79
318,649;14,79
318,912;14,77
319,175;14,71
319,437;14,71
319,7;14,7
319,963;14,69
320,226;14,64
320,489;14,61
320,751;14,6
321,014;14,58
321,277;14,57
321,54;14,56
321,802;14,51
322,065;14,49
322,328;14,44
322,59;14,39
322,853;14,36
323,116;14,34
323,378;14,35
323,641;14,34
323,903;14,29
324,166;14,27
324,428;14,24
324,691;14,23
324,953;14,22
325,216;14,19
325,478;14,19
325,741;14,18
326,003;14,16
326,266;14,12
326,528;14,09
326,791;14,09
327,053;14,06
327,315;14,04
327,578;14,03
327,84;14,01
328,102;13,99
328,365;13,97
328,627;13,97
328,889;13,91
329,151;13,89
329,414;13,9
329,676;13,88
329,938;13,85
330,2;13,83
330,462;13,79
330,725;13,77
330,987;13,72
331,249;13,69
331,511;13,67
331,773;13,67
332,035;13,69
332,297;13,69
332,559;13,67
332,821;13,65
333,083;13,61
333,345;13,59
333,607;13,58
333,869;13,56
334,131;13,51
334,393;13,55
334,655;13,5
334,917;13,47
335,179;13,45
335,44;13,46
335,702;13,46
335,964;13,49
336,226;13,47
336,488;13,49
336,749;13,5
337,011;13,51
337,273;13,51
337,535;13,49
337,796;13,43
338,058;13,45
338,32;13,44
338,581;13,41
338,843;13,42
339,105;13,41
339,366;13,4
339,628;13,43
339,889;13,43
340,151;13,44
340,412;13,42
340,674;13,41
340,935;13,39
341,197;13,41
341,458;13,39
341,72;13,4
341,981;13,41
342,243;13,41
342,504;13,39
342,766;13,42
343,027;13,4
343,288;13,4
343,55;13,35
343,811;13,36
344,072;13,37
344,334;13,36
344,595;13,35
344,856;13,32
345,117;13,28
345,379;13,27
345,64;13,25
345,901;13,24
346,162;13,21
346,423;13,18
346,684;13,11
346,946;13,08
347,207;13,03
347,468;12,98
347,729;12,91
347,99;12,85
348,251;12,78
348,512;12,74
348,773;12,73
349,034;12,73
349,295;12,71
349,556;12,68
349,817;12,64
350,078;12,62
350,339;12,64
350,6;12,63
350,86;12,57
351,121;12,58
351,382;12,54
351,643;12,54
351,904;12,52
352,165;12,57
352,425;12,57
352,686;12,58
352,947;12,55
353,208;12,59
353,468;12,65
353,729;12,66
353,99;12,65
354,25;12,63
354,511;12,6
354,772;12,56
355,032;12,61
355,293;12,6
355,553;12,62
355,814;12,56
356,074;12,54
356,335;12,52
356,596;12,5
356,856;12,53
357,116;12,52
357,377;12,55
357,637;12,51
357,898;12,52
358,158;12,52
358,419;12,52
358,679;12,49
358,939;12,44
359,2;12,42
359,46;12,47
359,72;12,43
359,981;12,46
360,241;12,43
360,501;12,41
360,761;12,45
361,022;12,42
361,282;12,48
361,542;12,49
361,802;12,5
362,062;12,5
362,323;12,45
362,583;12,47
362,843;12,44
363,103;12,44
363,363;12,37
363,623;12,37
363,883;12,4
364,143;12,4
364,403;12,38
364,663;12,4
364,923;12,35
365,183;12,39
365,443;12,41
365,703;12,41
365,963;12,38
366,223;12,34
366,483;12,32
366,743;12,27
367,002;12,27
367,262;12,3
367,522;12,25
367,782;12,27
368,042;12,24
368,301;12,25
368,561;12,21
368,821;12,23
369,081;12,17
369,34;12,11
369,6;12,08
369,86;12,13
370,119;12,07
370,379;12,06
370,638;12,03
370,898;11,96
371,158;11,95
371,417;11,94
371,677;11,93
371,936;11,93
372,196;11,94
372,455;11,9
372,715;11,89
372,974;11,91
373,234;11,89
373,493;11,92
373,753;11,87
374,012;11,9
374,271;11,9
374,531;11,95
374,79;11,96
375,049;11,98
375,309;11,94
375,568;11,94
375,827;11,92
376,086;11,92
376,346;11,95
376,605;12,01
376,864;12,03
377,123;12,03
377,383;12,04
377,642;12,04
377,901;12,06
378,16;12,04
378,419;11,98
378,678;11,97
378,937;11,93
379,196;11,92
379,455;11,92
379,714;11,93
379,973;11,89
380,232;11,88
380,491;11,89
380,75;11,88
381,009;11,88
381,268;11,92
381,527;11,9
381,786;11,88
382,045;11,84
382,304;11,84
382,563;11,81
382,821;11,82
383,08;11,79
383,339;11,8
383,598;11,79
383,857;11,82
384,115;11,84
384,374;11,85
384,633;11,86
384,891;11,87
385,15;11,83
385,409;11,84
385,667;11,87
385,926;11,82
386,185;11,79
386,443;11,79
386,702;11,74
386,96;11,79
387,219;11,79
387,477;11,79
387,736;11,76
387,994;11,79
388,253;11,78
388,511;11,79
388,77;11,78
389,028;11,78
389,287;11,8
389,545;11,79
389,803;11,75
390,062;11,73
390,32;11,73
390,578;11,72
390,837;11,73
391,095;11,7
391,353;11,75
391,612;11,72
391,87;11,74
392,128;11,78
392,386;11,73
392,644;11,74
392,903;11,75
393,161;11,71
393,419;11,66
393,677;11,66
393,935;11,63
394,193;11,61
394,451;11,63
394,709;11,57
394,967;11,63
395,225;11,62
395,483;11,63
395,741;11,62
395,999;11,68
396,257;11,69
396,515;11,67
396,773;11,7
397,031;11,73
397,289;11,77
397,547;11,73
397,805;11,72
398,062;11,72
398,32;11,71
398,578;11,76
398,836;11,76
399,094;11,75
399,351;11,77
399,609;11,77
399,867;11,7
400,124;11,73
400,382;11,71
400,64;11,77
400,897;11,81
401,155;11,75
401,413;11,75
401,67;11,73
401,928;11,78
402,185;11,69
402,443;11,68
402,701;11,65
402,958;11,66
403,216;11,69
403,473;11,65
403,73;11,6
403,988;11,58
404,245;11,64
404,503;11,68
404,76;11,71
405,018;11,7
405,275;11,72
405,532;11,7
405,79;11,63
406,047;11,56
406,304;11,53
406,561;11,57
406,819;11,58
407,076;11,59
407,333;11,53
407,59;11,56
407,848;11,56
408,105;11,56
408,362;11,55
408,619;11,55
408,876;11,56
409,133;11,58
409,39;11,61
409,647;11,54
409,904;11,53
410,161;11,5
410,418;11,54
410,675;11,53
410,932;11,55
411,189;11,56
411,446;11,64
411,703;11,63
411,96;11,62
412,217;11,6
412,474;11,61
412,731;11,62
412,988;11,61
413,245;11,63
413,501;11,56
413,758;11,57
414,015;11,53
414,272;11,53
414,529;11,54
414,785;11,54
415,042;11,55
415,299;11,49
415,555;11,47
415,812;11,46
416,069;11,5
416,325;11,5
416,582;11,5
416,838;11,48
417,095;11,43
417,352;11,34
417,608;11,35
417,865;11,3
418,121;11,32
418,378;11,35
418,634;11,35
418,891;11,41
419,147;11,44
419,403;11,45
419,66;11,47
419,916;11,48
420,173;11,47
420,429;11,48
420,685;11,53
420,942;11,58
421,198;11,56
421,454;11,56
421,711;11,59
421,967;11,57
422,223;11,53
422,479;11,62
422,735;11,67
422,992;11,63
423,248;11,64
423,504;11,64
423,76;11,64
424,016;11,65
424,272;11,65
424,528;11,63
424,784;11,65
425,041;11,62
425,297;11,59
425,553;11,57
425,809;11,62
426,065;11,59
426,32;11,56
426,576;11,58
426,832;11,55
427,088;11,52
427,344;11,53
427,6;11,54
427,856;11,46
428,112;11,5
428,368;11,53
428,623;11,54
428,879;11,52
429,135;11,49
429,391;11,44
429,646;11,42
429,902;11,37
430,158;11,36
430,414;11,37
430,669;11,41
430,925;11,4
431,181;11,36
431,436;11,38
431,692;11,39
431,947;11,38
432,203;11,38
432,458;11,39
432,714;11,34
432,97;11,35
433,225;11,35
433,481;11,34
433,736;11,33
433,991;11,32
434,247;11,29
434,502;11,27
434,758;11,3
435,013;11,33
435,268;11,36
435,524;11,35
435,779;11,37
436,034;11,37
436,29;11,4
436,545;11,36
436,8;11,38
437,056;11,32
437,311;11,31
437,566;11,29
437,821;11,33
438,076;11,34
438,331;11,39
438,587;11,41
438,842;11,39
439,097;11,4
439,352;11,41
439,607;11,43
439,862;11,49
440,117;11,52
440,372;11,51
440,627;11,54
440,882;11,56
441,137;11,54
441,392;11,53
441,647;11,51
441,902;11,57
442,157;11,54
442,412;11,61
442,667;11,62
442,921;11,67
443,176;11,65
443,431;11,71
443,686;11,66
443,941;11,64
444,195;11,66
444,45;11,69
444,705;11,71
444,96;11,69
445,214;11,68
445,469;11,68
445,724;11,66
445,978;11,62
446,233;11,58
446,487;11,57
446,742;11,56
446,997;11,56
447,251;11,51
447,506;11,54
447,76;11,5
448,015;11,49
448,269;11,44
448,524;11,42
448,778;11,44
449,033;11,46
449,287;11,48
449,541;11,49
449,796;11,46
450,05;11,4
450,305;11,37
450,559;11,35
450,813;11,31
451,067;11,3
451,322;11,29
451,576;11,32
451,83;11,34
452,084;11,33
452,339;11,3
452,593;11,27
452,847;11,21
453,101;11,21
453,355;11,25
453,609;11,27
453,864;11,24
454,118;11,18
454,372;11,19
454,626;11,22
454,88;11,23
455,134;11,22
455,388;11,26
455,642;11,28
455,896;11,29
456,15;11,26
456,404;11,32
456,658;11,33
456,912;11,32
457,165;11,32
457,419;11,31
457,673;11,34
457,927;11,4
458,181;11,45
458,435;11,5
458,688;11,49
458,942;11,51
459,196;11,49
459,45;11,52
459,703;11,48
459,957;11,41
460,211;11,38
460,464;11,39
460,718;11,41
460,972;11,48
461,225;11,45
461,479;11,47
461,732;11,49
461,986;11,53
462,239;11,51
462,493;11,51
462,746;11,61
463;11,6
463,253;11,58
463,507;11,55
463,76;11,53
464,014;11,54
464,267;11,52
464,52;11,55
464,774;11,58
465,027;11,63
465,28;11,67
465,534;11,66
465,787;11,67
466,04;11,67
466,294;11,62
466,547;11,64
466,8;11,68
467,053;11,62
467,306;11,61
467,56;11,61
467,813;11,6
468,066;11,56
468,319;11,58
468,572;11,57
468,825;11,62
469,078;11,62
469,331;11,64
469,584;11,61
469,837;11,61
470,09;11,61
470,343;11,61
470,596;11,61
470,849;11,65
471,102;11,71
471,355;11,71
471,608;11,74
471,861;11,8
472,114;11,78
472,367;11,78
472,619;11,78
472,872;11,83
473,125;11,83
473,378;11,85
473,631;11,85
473,883;11,87
474,136;11,89
474,389;11,91
474,641;11,89
474,894;11,93
475,147;11,95
475,399;11,94
475,652;11,97
475,905;11,98
476,157;11,98
476,41;11,94
476,662;11,97
476,915;11,97
477,167;11,96
477,42;12,01
477,672;12,03
477,925;12,06
478,177;12,07
478,43;12,13
478,682;12,13
478,934;12,16
479,187;12,19
479,439;12,2
479,691;12,23
479,944;12,3
480,196;12,33
480,448;12,37
480,701;12,41
480,953;12,45
481,205;12,48
481,457;12,51
481,709;12,56
481,962;12,61
482,214;12,69
482,466;12,78
482,718;12,87
482,97;13,02
483,222;13,15
483,474;13,28
483,726;13,35
483,978;13,42
484,23;13,48
484,482;13,52
484,734;13,54
484,986;13,57
485,238;13,55
485,49;13,57
485,742;13,59
485,994;13,6
486,246;13,59
486,498;13,6
486,75;13,6
487,001;13,61
487,253;13,6
487,505;13,58
487,757;13,57
488,009;13,53
488,26;13,45
488,512;13,36
488,764;13,27
489,015;13,19
489,267;13,13
489,519;13,08
489,77;13,04
490,022;13,03
490,274;12,98
490,525;12,97
490,777;12,94
491,028;12,94
491,28;12,94
491,531;12,91
491,783;12,91
492,034;12,92
492,286;12,9
492,537;12,89
492,789;12,85
493,04;12,82
493,291;12,79
493,543;12,81
493,794;12,83
494,045;12,84
494,297;12,85
494,548;12,88
494,799;12,86
495,051;12,88
495,302;12,83
495,553;12,87
495,804;12,88
496,056;12,87
496,307;12,85
496,558;12,85
496,809;12,89
497,06;12,9
497,311;12,9
497,562;12,94
497,813;12,99
498,064;13,02
498,316;13,04
498,567;13,05
498,818;13,06
499,069;13,07
499,319;13,06
499,57;13,06
499,821;13,04
500,072;13,07
500,323;13,08
500,574;13,12
500,825;13,12
501,076;13,13
501,327;13,18
501,577;13,21
501,828;13,19
502,079;13,21
502,33;13,2
502,58;13,22
502,831;13,19
503,082;13,15
503,333;13,14
503,583;13,18
503,834;13,17
504,084;13,2
504,335;13,19
504,586;13,2
504,836;13,19
505,087;13,19
505,337;13,17
505,588;13,17
505,838;13,17
506,089;13,19
506,339;13,21
506,59;13,2
506,84;13,2
507,091;13,22
507,341;13,2
507,591;13,21
507,842;13,17
508,092;13,22
508,343;13,23
508,593;13,25
508,843;13,23
509,093;13,26
509,344;13,19
509,594;13,21
509,844;13,18
510,094;13,2
510,345;13,19
510,595;13,22
510,845;13,22
511,095;13,2
511,345;13,18
511,595;13,17
511,845;13,16
512,095;13,18
512,345;13,19
512,595;13,21
512,845;13,22
513,095;13,26
513,345;13,22
513,595;13,22
513,845;13,2
514,095;13,19
514,345;13,16
514,595;13,21
514,845;13,2
515,095;13,23
515,345;13,21
515,594;13,24
515,844;13,23
516,094;13,24
516,344;13,24
516,593;13,23
516,843;13,2
517,093;13,21
517,343;13,19
517,592;13,18
517,842;13,18
518,092;13,19
518,341;13,16
518,591;13,18
518,84;13,2
519,09;13,23
519,34;13,26
519,589;13,31
519,839;13,27
520,088;13,3
520,338;13,28
520,587;13,31
520,836;13,27
521,086;13,26
521,335;13,24
521,585;13,24
521,834;13,26
522,083;13,3
522,333;13,28
522,582;13,3
522,831;13,3
523,081;13,31
523,33;13,29
523,579;13,31
523,828;13,31
524,078;13,31
524,327;13,28
524,576;13,29
524,825;13,28
525,074;13,3
525,323;13,26
525,573;13,26
525,822;13,25
526,071;13,27
526,32;13,27
526,569;13,29
526,818;13,31
527,067;13,31
527,316;13,32
527,565;13,33
527,814;13,3
528,063;13,3
528,312;13,3
528,56;13,32
528,809;13,31
529,058;13,31
529,307;13,28
529,556;13,3
529,805;13,28
530,053;13,29
530,302;13,3
530,551;13,33
530,8;13,32
531,048;13,34
531,297;13,36
531,546;13,38
531,794;13,39
532,043;13,41
532,292;13,39
532,54;13,4
532,789;13,39
533,037;13,43
533,286;13,42
533,535;13,45
533,783;13,44
534,032;13,45
534,28;13,46
534,528;13,5
534,777;13,51
535,025;13,53
535,274;13,53
535,522;13,52
535,771;13,53
536,019;13,55
536,267;13,55
536,516;13,55
536,764;13,57
537,012;13,57
537,26;13,54
537,509;13,56
537,757;13,55
538,005;13,58
538,253;13,59
538,501;13,61
538,75;13,59
538,998;13,63
539,246;13,66
539,494;13,68
539,742;13,68
539,99;13,67
540,238;13,67
540,486;13,69
540,734;13,68
540,982;13,68
541,23;13,69
541,478;13,68
541,726;13,69
541,974;13,69
542,222;13,7
542,47;13,74
542,718;13,75
542,966;13,77
543,213;13,74
543,461;13,76
543,709;13,75
543,957;13,77
544,205;13,77
544,452;13,75
544,7;13,73
544,948;13,72
545,196;13,72
545,443;13,73
545,691;13,71
545,939;13,76
546,186;13,75
546,434;13,76
546,681;13,75
546,929;13,75
547,176;13,74
547,424;13,74
547,671;13,72
547,919;13,72
548,166;13,72
548,414;13,75
548,661;13,74
548,909;13,75
549,156;13,77
549,404;13,76
549,651;13,78
549,898;13,8
550,146;13,81
550,393;13,83
550,64;13,83
550,888;13,86
551,135;13,87
551,382;13,87
551,629;13,89
551,876;13,93
552,124;13,93
552,371;13,97
552,618;13,97
552,865;13,99
553,112;14,01
553,359;14
553,606;14
553,854;14,01
554,101;14,01
554,348;14,01
554,595;13,97
554,842;13,97
555,089;13,94
555,336;13,94
555,582;13,94
555,829;13,95
556,076;13,96
556,323;13,94
556,57;13,96
556,817;13,97
557,064;13,95
557,311;13,95
557,557;13,91
557,804;13,91
558,051;13,89
558,298;13,9
558,544;13,88
558,791;13,87
559,038;13,85
559,284;13,86
559,531;13,85
559,778;13,87
560,024;13,89
560,271;13,91
560,517;13,93
560,764;13,95
561,011;13,95
561,257;13,94
561,504;13,95
561,75;13,96
561,997;13,95
562,243;13,98
562,489;13,99
562,736;14,01
562,982;14,03
563,229;14,04
563,475;14,01
563,721;14,03
563,968;14,04
564,214;14,07
564,46;14,08
564,707;14,09
564,953;14,09
565,199;14,09
565,445;14,11
565,691;14,13
565,938;14,12
566,184;14,13
566,43;14,16
566,676;14,17
566,922;14,19
567,168;14,21
567,414;14,24
567,66;14,27
567,906;14,29
568,152;14,33
568,398;14,37
568,644;14,43
568,89;14,45
569,136;14,49
569,382;14,52
569,628;14,55
569,874;14,59
570,12;14,64
570,366;14,68
570,612;14,71
570,857;14,73
571,103;14,77
571,349;14,79
571,595;14,83
571,84;14,86
572,086;14,89
572,332;14,92
572,578;14,95
572,823;14,97
573,069;14,99
573,315;15,01
573,56;15,04
573,806;15,05
574,051;15,09
574,297;15,11
574,542;15,13
574,788;15,16
575,034;15,18
575,279;15,19
575,524;15,21
575,77;15,22
576,015;15,24
576,261;15,25
576,506;15,27
576,752;15,25
576,997;15,26
577,242;15,25
577,488;15,25
577,733;15,24
577,978;15,25
578,223;15,27
578,469;15,29
578,714;15,29
578,959;15,31
579,204;15,3
579,45;15,31
579,695;15,31
579,94;15,31
580,185;15,31
580,43;15,31
580,675;15,3
580,92;15,31
581,165;15,3
581,41;15,31
581,655;15,3
581,9;15,31
582,145;15,31
582,39;15,32
582,635;15,32
582,88;15,32
583,125;15,31
583,37;15,31
583,615;15,28
583,86;15,27
584,105;15,24
584,349;15,25
584,594;15,22
584,839;15,21
585,084;15,18
585,328;15,18
585,573;15,17
585,818;15,17
586,063;15,15
586,307;15,13
586,552;15,11
586,797;15,1
587,041;15,07
587,286;15,05
587,53;15,02
587,775;14,98
588,019;14,96
588,264;14,95
588,508;14,92
588,753;14,91
588,997;14,9
589,242;14,9
589,486;14,86
589,731;14,85
589,975;14,84
590,22;14,85
590,464;14,83
590,708;14,85
590,953;14,84
591,197;14,84
591,441;14,85
591,685;14,84
591,93;14,84
592,174;14,85
592,418;14,85
592,662;14,87
592,907;14,87
593,151;14,9
593,395;14,89
593,639;14,9
593,883;14,9
594,127;14,9
594,371;14,88
594,615;14,87
594,859;14,87
595,103;14,88
595,347;14,86
595,591;14,85
595,835;14,82
596,079;14,8
596,323;14,79
596,567;14,8
596,811;14,78
597,055;14,79
597,299;14,77
597,542;14,77
597,786;14,76
598,03;14,77
598,274;14,74
598,518;14,76
598,761;14,77
599,005;14,76
599,249;14,75
599,492;14,75
599,736;14,75
599,98;14,78
600,223;14,75
600,467;14,76
600,711;14,76
600,954;14,76
601,198;14,78
601,441;14,78
601,685;14,76
601,928;14,79
602,172;14,78
602,415;14,79
602,659;14,79
602,902;14,81
603,145;14,8
603,389;14,82
603,632;14,79
603,876;14,79
604,119;14,79
604,362;14,8
604,606;14,79
604,849;14,81
605,092;14,79
605,335;14,78
605,579;14,77
605,822;14,77
606,065;14,76
606,308;14,77
606,551;14,75
606,794;14,75
607,037;14,72
607,281;14,73
607,524;14,75
607,767;14,75
608,01;14,72
608,253;14,71
608,496;14,7
608,739;14,7
608,982;14,68
609,225;14,68
609,468;14,68
609,711;14,68
609,953;14,68
610,196;14,68
610,439;14,69
610,682;14,69
610,925;14,68
611,168;14,68
611,41;14,67
611,653;14,7
611,896;14,68
612,139;14,7
612,381;14,69
612,624;14,65
612,867;14,62
613,109;14,62
613,352;14,63
613,595;14,62
613,837;14,6
614,08;14,59
614,322;14,59
614,565;14,59
614,807;14,59
615,05;14,57
615,292;14,55
615,535;14,55
615,777;14,54
616,02;14,56
616,262;14,56
616,505;14,55
616,747;14,54
616,989;14,54
617,232;14,52
617,474;14,51
617,716;14,53
617,959;14,55
618,201;14,55
618,443;14,56
618,685;14,55
618,927;14,57
619,17;14,58
619,412;14,58
619,654;14,58
619,896;14,58
620,138;14,59
620,38;14,62
620,622;14,62
620,864;14,63
621,107;14,61
621,349;14,62
621,591;14,61
621,833;14,61
622,075;14,64
622,316;14,65
622,558;14,65
622,8;14,63
623,042;14,61
623,284;14,61
623,526;14,61
623,768;14,63
624,01;14,61
624,251;14,61
624,493;14,61
624,735;14,57
624,977;14,58
625,218;14,57
625,46;14,56
625,702;14,56
625,943;14,52
626,185;14,55
626,427;14,53
626,668;14,52
626,91;14,5
627,152;14,49
627,393;14,48
627,635;14,47
627,876;14,47
628,118;14,5
628,359;14,5
628,601;14,49
628,842;14,5
629,084;14,49
629,325;14,47
629,566;14,46
629,808;14,47
630,049;14,46
630,29;14,44
630,532;14,4
630,773;14,38
631,014;14,42
631,256;14,37
631,497;14,37
631,738;14,38
631,979;14,4
632,22;14,36
632,462;14,35
632,703;14,31
632,944;14,32
633,185;14,28
633,426;14,28
633,667;14,27
633,908;14,25
634,149;14,23
634,39;14,22
634,631;14,22
634,872;14,22
635,113;14,2
635,354;14,2
635,595;14,19
635,836;14,2
636,077;14,16
636,318;14,18
636,559;14,16
636,8;14,14
637,04;14,11
637,281;14,12
637,522;14,11
637,763;14,13
638,003;14,11
638,244;14,13
638,485;14,1
638,726;14,08
638,966;14,05
639,207;14,07
639,448;14,07
639,688;14,08
639,929;14,04
640,169;14,06
640,41;14,05
640,65;14,05
640,891;14,03
641,131;14,01
641,372;13,99
641,612;13,99
641,853;13,96
642,093;13,98
642,334;13,98
642,574;13,97
642,814;13,95
643,055;13,95
643,295;13,94
643,535;13,95
643,776;13,95
644,016;13,96
644,256;13,93
644,496;13,93
644,737;13,91
644,977;13,94
645,217;13,92
645,457;13,93
645,697;13,93
645,938;13,96
646,178;13,97
646,418;13,99
646,658;13,99
646,898;14,02
647,138;14,01
647,378;14,03
647,618;14,01
647,858;14,02
648,098;14,02
648,338;14,01
648,578;13,97
648,818;13,97
649,057;13,98
649,297;14,01
649,537;14,03
649,777;14,02
650,017;14,01
650,257;14,02
650,496;14,01
650,736;14,01
650,976;13,98
661,028;13,92
661,267;13,88
661,506;13,87
661,744;13,85
661,983;13,82
662,222;13,81
662,461;13,8
662,7;13,77
662,939;13,76
663,177;13,75
663,416;13,73
663,655;13,7
663,894;13,69
664,132;13,7
664,371;13,68
664,61;13,67
664,848;13,66
665,087;13,65
665,326;13,67
665,564;13,7
665,803;13,7
666,041;13,74
666,28;13,73
666,518;13,73
666,757;13,72
666,995;13,7
667,234;13,7
667,472;13,69
667,711;13,71
667,949;13,7
668,187;13,7
668,426;13,69
668,664;13,7
668,902;13,7
669,141;13,71
669,379;13,7
669,617;13,73
669,856;13,72
670,094;13,73
670,332;13,73
670,57;13,72
670,808;13,72
671,046;13,7
671,285;13,7
671,523;13,7
671,761;13,72
671,999;13,73
672,237;13,73
672,475;13,74
672,713;13,73
672,951;13,74
673,189;13,73
673,427;13,75
673,665;13,71
673,903;13,72
674,141;13,69
674,379;13,71
674,617;13,69
674,854;13,67
675,092;13,67
675,33;13,65
675,568;13,65
675,806;13,68
676,043;13,67
676,281;13,69
676,519;13,7
676,756;13,68
676,994;13,69
677,232;13,68
677,469;13,69
677,707;13,72
677,945;13,73
678,182;13,75
678,42;13,75
678,657;13,8
678,895;13,79
679,132;13,81
679,37;13,8
679,607;13,81
679,845;13,79
680,082;13,79
680,32;13,8
680,557;13,81
680,794;13,77
681,032;13,76
681,269;13,73
681,507;13,73
681,744;13,74
681,981;13,74
682,218;13,73
682,456;13,72
682,693;13,7
682,93;13,7
683,167;13,67
683,404;13,66
683,642;13,63
683,879;13,65
684,116;13,66
684,353;13,67
684,59;13,67
684,827;13,72
685,064;13,71
685,301;13,7
685,538;13,69
685,775;13,7
686,012;13,7
686,249;13,72
686,486;13,72
686,723;13,69
686,96;13,68
687,197;13,69
687,433;13,68
687,67;13,66
687,907;13,62
688,144;13,64
688,381;13,63
688,617;13,63
688,854;13,61
689,091;13,58
689,327;13,59
689,564;13,58
689,801;13,55
690,037;13,55
690,274;13,57
690,511;13,58
690,747;13,57
690,984;13,59
691,22;13,6
691,457;13,58
691,693;13,6
691,93;13,61
692,166;13,61
692,403;13,61
692,639;13,61
692,876;13,64
693,112;13,62
693,348;13,64
693,585;13,66
693,821;13,66
694,057;13,69
694,294;13,67
694,53;13,65
694,766;13,65
695,002;13,66
695,239;13,66
695,475;13,66
695,711;13,67
695,947;13,63
696,183;13,62
696,419;13,61
696,656;13,6
696,892;13,6
697,128;13,61
697,364;13,61
697,6;13,62
697,836;13,63
698,072;13,64
698,308;13,59
698,544;13,58
698,78;13,57
699,016;13,53
699,251;13,52
699,487;13,55
699,723;13,55
699,959;13,54
700,195;13,52
700,431;13,51
700,666;13,5
700,902;13,51
701,138;13,5
701,374;13,53
701,609;13,52
701,845;13,51
702,081;13,48
702,316;13,48
702,552;13,46
702,788;13,46
703,023;13,45
703,259;13,47
703,494;13,46
703,73;13,47
703,965;13,5
704,201;13,48
704,436;13,46
704,672;13,44
704,907;13,44
705,143;13,45
705,378;13,42
705,613;13,42
705,849;13,42
706,084;13,42
706,319;13,37
706,555;13,38
706,79;13,37
707,025;13,4
707,26;13,4
707,496;13,41
707,731;13,39
707,966;13,42
708,201;13,4
708,436;13,41
708,671;13,38
708,907;13,37
709,142;13,36
709,377;13,38
709,612;13,39
709,847;13,37
710,082;13,34
710,317;13,34
710,552;13,35
710,787;13,33
711,022;13,29
711,257;13,27
711,492;13,28
711,726;13,3
711,961;13,26
712,196;13,27
712,431;13,25
712,666;13,24
712,901;13,19
713,135;13,2
713,37;13,23
713,605;13,24
713,839;13,23
714,074;13,23
714,309;13,2
714,543;13,17
714,778;13,18
715,013;13,16
715,247;13,21
715,482;13,19
715,716;13,22
715,951;13,26
716,185;13,29
716,42;13,3
716,654;13,28
716,889;13,32
717,123;13,28
717,358;13,27
717,592;13,3
717,827;13,29
718,061;13,3
718,295;13,26
718,53;13,25
718,764;13,24
718,998;13,24
719,232;13,27
719,467;13,26
719,701;13,25
719,935;13,23
720,169;13,18
720,403;13,18
720,638;13,16
720,872;13,13
721,106;13,11
721,34;13,1
721,574;13,08
721,808;13,04
722,042;13,06
722,276;13,06
722,51;13,04
722,744;13,02
722,978;13,04
723,212;13,01
723,446;13,05
723,68;13,05
723,914;13,05
724,147;13,03
724,381;13,03
724,615;13,04
724,849;13,09
725,083;13,11
725,316;13,12
725,55;13,13
725,784;13,17
726,018;13,19
726,251;13,17
726,485;13,17
726,719;13,21
726,952;13,2
727,186;13,21
727,419;13,24
727,653;13,31
727,887;13,3
728,12;13,37
728,354;13,37
728,587;13,39
728,821;13,41
729,054;13,41
729,287;13,45
729,521;13,5
729,754;13,47
729,988;13,49
730,221;13,47
730,454;13,49
730,688;13,49
730,921;13,48
731,154;13,5
731,387;13,5
731,621;13,52
731,854;13,54
732,087;13,55
732,32;13,53
732,553;13,5
732,787;13,48
733,02;13,44
733,253;13,45
733,486;13,43
733,719;13,42
733,952;13,45
734,185;13,43
734,418;13,39
734,651;13,39
734,884;13,4
735,117;13,42
735,35;13,4
735,583;13,38
735,816;13,39
736,049;13,38
736,281;13,39
736,514;13,36
736,747;13,35
736,98;13,31
737,213;13,3
737,445;13,3
737,678;13,3
737,911;13,28
738,144;13,26
738,376;13,25
738,609;13,24
738,842;13,2
739,074;13,19
739,307;13,16
739,539;13,15
739,772;13,11
740,004;13,09
740,237;13,06
740,469;13,03
740,702;12,99
740,934;13,01
741,167;13
741,399;13,01
741,632;13,03
741,864;13,04
742,096;13,06
742,329;13,04
742,561;13,05
742,793;13,04
743,026;13
743,258;13
743,49;12,99
743,723;12,98
743,955;12,96
744,187;12,98
744,419;13
744,651;12,98
744,883;13
745,115;13,04
745,348;13,04
745,58;13,07
745,812;13,04
746,044;13,03
746,276;12,99
746,508;12,95
746,74;12,95
746,972;12,91
747,204;12,9
747,436;12,87
747,667;12,91
747,899;12,9
748,131;12,9
748,363;12,92
748,595;12,9
748,827;12,92
749,058;12,93
749,29;12,93
749,522;12,91
749,754;12,88
749,985;12,83
750,217;12,85
750,449;12,83
750,68;12,84
750,912;12,87
751,144;12,9
751,375;12,87
751,607;12,86
751,838;12,9
752,07;12,94
752,301;12,92
752,533;12,88
752,764;12,91
752,996;12,92
753,227;12,89
753,459;12,9
753,69;12,92
753,921;12,94
754,153;12,91
754,384;12,95
754,615;12,96
754,847;12,98
755,078;12,97
755,309;13
755,54;12,95
755,772;12,89
756,003;12,87
756,234;12,86
756,465;12,9
756,696;12,86
756,927;12,84
757,159;12,84
757,39;12,86
757,621;12,85
757,852;12,84
758,083;12,84
758,314;12,9
758,545;12,86
758,776;12,82
759,007;12,82
759,238;12,78
759,469;12,75
759,699;12,73
759,93;12,73
760,161;12,68
760,392;12,67
760,623;12,68
760,854;12,73
761,084;12,75
761,315;12,74
761,546;12,73
761,776;12,72
762,007;12,77
762,238;12,74
762,468;12,72
762,699;12,73
762,93;12,73
763,16;12,7
763,391;12,71
763,621;12,71
763,852;12,72
764,083;12,74
764,313;12,73
764,543;12,74
764,774;12,72
765,004;12,72
765,235;12,77
765,465;12,76
765,696;12,74
765,926;12,75
766,156;12,73
766,387;12,72
766,617;12,71
766,847;12,68
767,077;12,7
767,308;12,69
767,538;12,69
767,768;12,72
767,998;12,68
768,228;12,66
768,459;12,69
768,689;12,68
768,919;12,67
769,149;12,69
769,379;12,67
769,609;12,68
769,839;12,7
770,069;12,66
770,299;12,65
770,529;12,63
770,759;12,62
770,989;12,6
771,219;12,58
771,449;12,58
771,678;12,56
771,908;12,56
772,138;12,58
772,368;12,54
772,598;12,48
772,827;12,47
773,057;12,46
773,287;12,44
773,517;12,42
773,746;12,43
773,976;12,4
774,206;12,38
774,435;12,35
774,665;12,32
774,894;12,3
775,124;12,31
775,354;12,26
775,583;12,2
775,813;12,19
776,042;12,2
776,272;12,21
776,501;12,22
776,73;12,2
776,96;12,21
777,189;12,22
777,419;12,2
777,648;12,18
777,877;12,15
778,107;12,13
778,336;12,17
778,565;12,14
778,794;12,19
779,024;12,2
779,253;12,18
779,482;12,22
779,711;12,25
779,94;12,27
780,17;12,3
780,399;12,35
780,628;12,39
780,857;12,44
781,086;12,42
781,315;12,43
781,544;12,45
781,773;12,42
782,002;12,47
782,231;12,49
782,46;12,54
782,689;12,55
782,918;12,57
783,147;12,53
783,375;12,56
783,604;12,54
783,833;12,55
784,062;12,58
784,291;12,57
784,519;12,56
784,748;12,53
784,977;12,52
785,206;12,5
785,434;12,47
785,663;12,37
785,892;12,43
786,12;12,4
786,349;12,35
786,577;12,36
786,806;12,31
787,034;12,31
787,263;12,3
787,492;12,3
787,72;12,29
787,948;12,31
788,177;12,33
788,405;12,29
788,634;12,31
788,862;12,31
789,09;12,26
789,319;12,26
789,547;12,28
789,775;12,26
790,004;12,27
790,232;12,26
790,46;12,31
790,688;12,24
790,917;12,26
791,145;12,27
791,373;12,31
791,601;12,35
791,829;12,34
792,057;12,4
792,286;12,4
792,514;12,39
792,742;12,36
792,97;12,3
793,198;12,31
793,426;12,35
793,654;12,33
793,882;12,34
794,109;12,38
794,337;12,4
794,565;12,41
794,793;12,41
795,021;12,43
795,249;12,48
795,477;12,5
795,704;12,47
795,932;12,43
796,16;12,39
796,388;12,38
796,615;12,37
796,843;12,32
797,071;12,31
797,298;12,37
797,526;12,35
797,754;12,4
797,981;12,36
798,209;12,3
798,436;12,3
798,664;12,33
798,891;12,27
799,119;12,17
799,346;12,17
799,574;12,14
799,801;12,11
800,029;12,01
800,256;11,99
800,483;12,01
800,711;12,06
800,938;12,07
801,165;12,04
801,393;12,04
801,62;12,04
801,847;12,01
802,074;11,94
802,302;12,01
802,529;11,99
802,756;12,02
802,983;12,04
803,21;12,04
803,437;11,98
803,665;12,03
803,892;12,06
804,119;12,06
804,346;12,09
804,573;12,16
804,8;12,22
805,027;12,22
805,254;12,24
805,481;12,14
805,708;12,13
805,934;12,13
806,161;12,16
806,388;12,07
806,615;12,08
806,842;12,11
807,069;12,05
807,295;12,04
807,522;12,06
807,749;12,05
807,976;12
808,202;12,02
808,429;12
808,656;11,99
808,882;12,06
809,109;12,03
809,335;11,98
809,562;11,93
809,789;11,97
810,015;11,94
810,242;12,07
810,468;12,03
810,695;12
810,921;11,97
811,147;12,08
811,374;12,13
811,6;12,11
811,827;12,12
812,053;12,14
812,279;12,11
812,506;12,13
812,732;12,15
812,958;12,17
813,185;12,19
813,411;12,14
813,637;12,05
813,863;12,02
814,089;12,06
814,315;12,08
814,542;12,03
814,768;12,02
814,994;11,96
815,22;11,99
815,446;12,01
815,672;12,04
815,898;12,08
816,124;12,05
816,35;12,04
816,576;12,03
816,802;11,98
817,028;12,05
817,254;12,03
817,48;12,03
817,705;11,97
817,931;11,92
818,157;12,02
818,383;12,01
818,609;12,02
818,834;12
819,06;11,98
819,286;11,97
819,512;12
819,737;11,98
819,963;12,01
820,189;11,97
820,414;12,04
820,64;11,96
820,865;11,91
821,091;11,9
821,316;11,86
821,542;11,9
821,767;11,81
821,993;11,83
822,218;11,84
822,444;11,92
822,669;11,98
822,895;12
823,12;11,98
823,345;12,02
823,571;11,98
823,796;11,98
824,021;11,98
824,247;11,92
824,472;11,92
824,697;11,99
824,922;12,07
825,147;12,01
825,373;12,07
825,598;12,15
825,823;12,12
826,048;12,18
826,273;12,18
826,498;12,25
826,723;12,19
826,948;12,2
827,173;12,14
827,398;12,15
827,623;12,04
827,848;12,11
828,073;12,11
828,298;12,14
828,523;12,2
828,748;12,21
828,973;12,26
829,197;12,32
829,422;12,18
829,647;12,22
829,872;12,09
830,097;12,01
830,321;12,03
830,546;12,07
830,771;12,03
830,995;12,03
831,22;11,99
831,445;12,07
831,669;12,05
831,894;12,09
832,118;12,04
832,343;12,14
832,567;12,15
832,792;12,23
833,016;12,23
833,241;12,19
833,465;12,17
833,69;12,21
833,914;12,12
834,139;12,2
834,363;12,09
834,587;12,27
834,812;12,32
835,036;12,23
835,26;12,24
835,485;12,26
835,709;12,3
835,933;12,34
836,157;12,34
836,381;12,4
836,606;12,43
836,83;12,4
837,054;12,34
837,278;12,24
837,502;12,18
837,726;12,14
837,95;12,13
838,174;12,2
838,398;12,16
838,622;12,16
838,846;12,15
839,07;12,14
839,294;12,1
839,518;12
839,742;12,05
839,966;12,12
840,189;12,12
840,413;12,1
840,637;12,09
840,861;12,07
841,085;12,01
841,308;12,05
841,532;12,16
841,756;12,16
841,979;12,22
842,203;12,3
842,427;12,31
842,65;12,25
842,874;12,25
843,098;12,26
843,321;12,36
843,545;12,43
843,768;12,45
843,992;12,41
844,215;12,43
844,439;12,44
844,662;12,36
844,886;12,39
845,109;12,33
845,332;12,33
845,556;12,39
845,779;12,47
846,002;12,39
846,226;12,31
846,449;12,37
846,672;12,4
846,895;12,28
847,119;12,29
847,342;12,31
847,565;12,29
847,788;12,32
848,011;12,3
848,234;12,21
848,457;12,17
848,681;12,15
848,904;12,27
849,127;12,22
849,35;12,17
849,573;12,2
849,796;12,21
850,019;12,14
850,241;12,22
850,464;12,12
850,687;12,15
850,91;12,15
851,133;12,11
851,356;12,12
851,579;12,11
851,801;12,11
852,024;12,15
852,247;12,08
852,47;12,13
852,692;12,06
852,915;12,13
853,138;12,19
853,36;12,26
853,583;12,12
853,806;12,16
854,028;12,26
854,251;12,18
854,473;12,18
854,696;12,23
854,918;12,09
855,141;12,07
855,363;12,08
855,586;12,16
855,808;12,2
856,031;12,13
856,253;12,15
856,475;12,15
856,698;12,15
856,92;12,23
857,142;12,1
857,365;12,16
857,587;12,13
857,809;12,1
858,031;12,09
858,253;12,17
858,476;12,18
858,698;12,18
858,92;12,26
859,142;12,27
859,364;12,23
859,586;12,32
859,808;12,47
860,03;12,49
860,252;12,4
860,474;12,42
860,696;12,48
860,918;12,46
861,14;12,53
861,362;12,5
861,584;12,53
861,806;12,6
862,028;12,7
862,25;12,68
862,471;12,71
862,693;12,64
862,915;12,61
863,137;12,54
863,358;12,55
863,58;12,51
863,802;12,47
864,024;12,46
864,245;12,41
864,467;12,3
864,688;12,28
864,91;12,28
865,132;12,29
865,353;12,29
865,575;12,28
865,796;12,24
866,018;12,25
866,239;12,17
866,461;12,22
866,682;12,06
866,903;12,05
867,125;12,09
867,346;12,16
867,567;12,12
867,789;12,14
868,01;12,16
868,231;12,13
868,453;12,2
868,674;12,33
868,895;12,34
869,116;12,32
869,337;12,35
869,559;12,47
869,78;12,45
870,001;12,38
870,222;12,43
870,443;12,52
870,664;12,59
870,885;12,63
871,106;12,59
871,327;12,66
871,548;12,64
871,769;12,57
871,99;12,55
872,211;12,57
872,432;12,64
872,653;12,5
872,874;12,55
873,094;12,57
873,315;12,46
873,536;12,35
873,757;12,46
873,978;12,39
874,198;12,29
874,419;12,29
874,64;12,38
874,86;12,42
875,081;12,45
875,302;12,37
875,522;12,36
875,743;12,39
875,963;12,32
876,184;12,28
876,404;12,26
876,625;12,24
876,845;12,4
877,066;12,42
877,286;12,44
877,507;12,47
877,727;12,48
877,947;12,41
878,168;12,62
878,388;12,55
878,609;12,59
878,829;12,57
879,049;12,59
879,269;12,63
879,49;12,66
879,71;12,6
879,93;12,61
880,15;12,69
880,37;12,68
880,59;12,66
880,811;12,7
881,031;12,8
881,251;12,76
881,471;12,65
881,691;12,7
881,911;12,78
882,131;12,87
882,351;12,83
882,571;12,86
882,791;12,77
883,011;12,73
883,23;12,71
883,45;12,75
883,67;12,81
883,89;12,8
884,11;12,64
884,33;12,59
884,549;12,65
884,769;12,59
884,989;12,61
885,209;12,65
885,428;12,66
885,648;12,57
885,868;12,68
886,087;12,73
886,307;12,65
886,526;12,68
886,746;12,56
886,965;12,5
887,185;12,58
887,404;12,62
887,624;12,61
887,843;12,61
888,063;12,64
888,282;12,54
888,502;12,46
888,721;12,51
888,94;12,53
889,16;12,58
889,379;12,57
889,598;12,63
889,818;12,7
890,037;12,68
890,256;12,76
890,475;12,75
890,694;12,88
890,914;12,91
891,133;12,97
891,352;13,02
891,571;13,22
891,79;13,34
892,009;13,29
892,228;13,33
892,447;13,42
892,666;13,34
892,885;13,39
893,104;13,36
893,323;13,42
893,542;13,44
893,761;13,43
893,98;13,58
894,199;13,46
894,417;13,52
894,636;13,6
894,855;13,69
895,074;13,7
895,293;13,59
895,511;13,58
895,73;13,52
895,949;13,41
896,167;13,33
896,386;13,43
896,605;13,41
896,823;13,58
897,042;13,58
897,26;13,63
897,479;13,58
897,697;13,57
897,916;13,76
898,134;13,74
898,353;13,76
898,571;13,52
898,79;13,69
899,008;13,65
899,227;13,64
899,445;13,64
899,663;13,62
899,882;13,64
900,1;13,68
900,318;13,71
900,536;13,88
900,755;13,95
900,973;13,8
901,191;13,92
901,409;13,98
901,627;13,89
901,846;13,97
902,064;14
902,282;14,15
902,5;13,95
902,718;14,03
902,936;13,9
903,154;14,11
903,372;13,95
903,59;13,93
903,808;14,08
904,026;14,13
904,244;14,09
904,462;14
904,679;14,01
904,897;13,98
905,115;14
905,333;13,9
905,551;13,92
905,768;13,81
905,986;13,8
906,204;13,9
906,422;13,94
906,639;13,95
906,857;13,94
907,074;14
907,292;13,99
907,51;14
907,727;14,05
907,945;14,07
908,162;14,08
908,38;14,06
908,597;14,05
908,815;14,11
909,032;14,29
909,25;14,32
909,467;14,37
909,684;14,22
909,902;14,36
910,119;14,47
910,337;14,57
910,554;14,51
910,771;14,51
910,988;14,55
911,206;14,56
911,423;14,64
911,64;14,73
911,857;14,73
912,074;14,75
912,291;14,81
912,509;14,79
912,726;14,72
912,943;14,6
913,16;14,65
913,377;14,84
913,594;14,76
913,811;14,63
914,028;14,58
914,245;14,79
914,462;14,92
914,679;14,83
914,896;14,84
915,112;14,98
915,329;15,03
915,546;14,94
915,763;15,02
915,98;14,97
916,196;15,03
916,413;15,13
916,63;15,17
916,847;15,07
917,063;15,23
917,28;15,36
917,497;15,2
917,713;15,16
917,93;15,28
918,146;15,4
918,363;15,69
918,579;15,84
918,796;15,85
919,012;15,65
919,229;15,65
919,445;15,56
919,662;15,43
919,878;15,38
920,095;15,37
920,311;15,47
920,527;15,34
920,744;15,2
920,96;15,2
921,176;15,13
921,392;15,11
921,609;15,26
921,825;15,21
922,041;15,5
922,257;15,48
922,473;15,38
922,69;15,38
922,906;15,31
923,122;15,27
923,338;15,18
923,554;15,02
923,77;15,06
923,986;15,2
924,202;15,33
924,418;15,36
924,634;15,63
924,85;15,52
925,066;15,64
925,282;15,43
925,497;15,5
925,713;15,54
925,929;15,61
926,145;15,39
926,361;15,38
926,576;15,31
926,792;15,14
927,008;15,16
927,224;15,01
927,439;14,77
927,655;14,61
927,871;14,58
928,086;14,72
928,302;14,61
928,517;14,57
928,733;14,45
928,948;14,32
929,164;14,21
929,379;14,23
929,595;14,2
929,81;14,41
930,026;14,19
930,241;14,17
930,456;14,01
930,672;14
930,887;14,02
931,102;14,04
931,318;14,34
931,533;14,31
931,748;14,44
931,964;14,68
932,179;14,71
932,394;14,71
932,609;14,86
932,824;14,89
933,039;14,87
933,255;14,94
933,47;15,39
933,685;15,42
933,9;15,62
934,115;15,91
934,33;16,01
934,545;16,51
934,76;16,83
934,975;17,09
935,19;17,41
935,404;17,78
935,619;17,98
935,834;18,3
936,049;18,37
936,264;18,49
936,479;18,84
936,693;19,15
936,908;19,67
937,123;19,94
937,338;20,56
937,552;21,1
937,767;21,64
937,982;21,75
938,196;22,42
938,411;22,8
938,625;23,18
938,84;23,45
939,055;23,68
939,269;24,2
939,484;24,82
939,698;25,27
939,912;25,73
940,127;26,14
940,341;26,14
940,556;26,55
940,77;27,58
940,984;27,98
941,199;29,3
941,413;29,34
941,627;29,85
941,842;30,43
942,056;31,78
942,27;32,12
942,484;32,56
942,699;32,42
942,913;32,49
943,127;32,67
943,341;34,99
943,555;35,72
943,769;35,78
943,983;35,81
944,197;36,05
944,411;36,63
944,625;37,01
944,839;37,13
945,053;38,78
945,267;39,78
945,481;39,93
945,695;40,5
945,909;40,52
946,123;40,7
946,336;40,76
946,55;39,43
946,764;38,93
946,978;38,38
947,192;38,42
947,405;38,14
947,619;37,98
947,833;36,47
948,046;35,73
948,26;35,09
948,474;36,38
948,687;37,01
948,901;36,29
949,114;36,08
949,328;35,74
949,541;34,1
949,755;33,02
949,968;32,75
950,182;31,93
950,395;32,51
950,609;31,82
950,822;31,21
951,035;31,73
951,249;31,6
951,462;31,86
951,675;33,02
951,889;33,27
952,102;32,97
952,315;32,66
952,528;32,58
952,741;33,14
952,955;32,97
953,168;32,57
953,381;32,77
953,594;33,19
953,807;33,28
954,02;34,26
954,233;34,18
954,446;33,83
954,659;33,39
954,872;33,17
955,085;33,2
955,298;32,71
955,511;32,34
955,724;32,78
955,937;32,27
956,15;31,55
956,362;31,36
956,575;31,57
956,788;30,99
957,001;30,71
957,214;30,9
957,426;30,06
957,639;29,36
957,852;28,88
958,064;28,52
958,277;27,69
958,49;26,62
958,702;27,27
958,915;27,35
959,127;27,41
959,34;27,79
959,552;27,67
959,765;27,82
959,977;28,27
960,19;27,6
960,402;27,33
960,615;26,66
960,827;26,62
961,039;26,36
961,252;27,09
961,464;26,67
961,676;25,95
961,889;26,49
962,101;26,79
962,313;26,92
962,525;26,59
962,738;26,6
962,95;27,09
963,162;26,73
963,374;27,04
963,586;27,07
963,798;26,59
964,01;26,68
964,222;26,88
964,434;26,06
964,646;26,1
964,858;26,63
965,07;26,54
965,282;26,5
965,494;26,24
965,706;26,08
965,918;26,4
966,13;27,01
966,342;26,52
966,553;26,69
966,765;26,81
966,977;27,36
967,189;28,56
967,401;29,01
967,612;28,56
967,824;28,3
968,036;28,06
968,247;28,2
968,459;27,88
968,67;27,86
968,882;27,76
969,094;28,34
969,305;27,98
969,517;28,64
969,728;28,52
969,94;28,72
970,151;28,63
970,362;29,03
970,574;29,14
970,785;29,27
970,997;28,73
971,208;27,93
971,419;27,52
971,631;26,92
971,842;26,99
972,053;27,42
972,264;27,79
972,476;28,05
972,687;27,86
972,898;28,18
973,109;28,81
973,32;29,39
973,531;29,68
973,742;29,83
973,954;29,22
974,165;29,31
974,376;29,32
974,587;29,64
974,798;29,51
975,009;29,31
975,22;29,2
975,43;30,67
975,641;31,27
975,852;31,69
976,063;32,21
976,274;31,66
976,485;30,64
976,695;30,5
976,906;30,56
977,117;30,58
977,328;30,54
977,538;30,22
977,749;30,02
977,96;29,91
978,17;30,14
978,381;30,58
978,592;31,09
978,802;31,17
979,013;30,97
979,223;30,81
979,434;30,69
979,644;31,24
979,855;30,74
980,065;31,21
980,276;30,88
980,486;30,44
980,696;30,95
980,907;31,19
981,117;31,27
981,327;32,08
981,538;32,25
981,748;32,83
981,958;32,99
982,169;33,45
982,379;32,94
982,589;33,08
982,799;33,3
983,009;33,75
983,219;33,58
983,43;34,46
983,64;34,88
983,85;35,18
984,06;35,21
984,27;34,86
984,48;34,81
984,69;35
984,9;35,16
985,11;34,79
985,32;35,4
985,529;35,53
985,739;34,42
985,949;34,96
986,159;34,7
986,369;34,19
986,579;34,12
986,788;35,02
986,998;34,88
987,208;34,17
987,417;33,26
987,627;33,98
987,837;33,42
988,046;33,16
988,256;33,48
988,466;32,75
988,675;32,54
988,885;32,41
989,094;32,32
989,304;32,32
989,513;32,49
989,723;33,02
989,932;32,7
990,142;33,46
990,351;33,7
990,56;34,78
990,77;35
990,979;35,44
991,188;35,2
991,398;35,46
991,607;36,58
991,816;37,79
992,025;38,09
992,235;38,71
992,444;40,01
992,653;39,58
992,862;39,8
993,071;40,11
993,28;39,55
993,489;40,24
993,698;40,06
993,908;40,28
994,117;40,62
994,326;41,87
994,534;41,92
994,743;41,53
994,952;40,21
995,161;40,47
995,37;45,56
995,579;46,49
995,788;46,87
995,997;46,33
996,205;45,18
996,414;45,7
996,623;44,71
996,832;43,34
997,04;43,69
997,249;44,51
997,458;45,11
997,666;46,54
997,875;47,66
998,084;47,85
998,292;48,29
998,501;48,32
998,709;47,44
998,918;47,43
999,126;46,77
999,335;48,14
999,543;48,59
999,752;42,74
999,96;42,12
1000,169;43,08
1000,377;43,48
1000,585;45,48
1000,794;44,89
1001,002;46,31
1001,21;47,48
1001,418;47,13
1001,627;46,74
1001,835;48,58
1002,043;49,3
1002,251;49,07
1002,459;51,46
1002,668;50,9
1002,876;51,43
1003,084;52,13
1003,292;51,26
1003,5;52,78
1003,708;54,72
1003,916;55,35
1004,124;56,08
1004,332;56,88
1004,54;56,5
1004,748;57,36
1004,956;55,52
1005,163;55,22
1005,371;55,4
1005,579;54,96
1005,787;54,92
1005,995;55,43
1006,202;54,28
1006,41;53,68
1006,618;52,86
1006,826;51,97
1007,033;52,94
1007,241;53,4
1007,449;53,29
1007,656;54,81
1007,864;53,67
1008,071;51,78
1008,279;51,06
1008,486;51,84
1008,694;50,31
1008,901;49,93
1009,109;50
1009,316;51,38
1009,524;53,64
1009,731;52,85
1009,938;53,76
1010,146;54,88
1010,353;56,12
1010,56;54,22
1010,768;54,99
1010,975;55,92
1011,182;54,88
1011,389;54,11
1011,597;52,66
1011,804;52,98
1012,011;54,79
1012,218;57,95
1012,425;58,25
1012,632;60,01
1012,839;59,18
1013,046;59,66
1013,253;59,21
1013,46;58,99
1013,667;58,89
1013,874;56,33
1014,081;55,5
1014,288;55,43
1014,495;56,04
1014,702;55,01
1014,909;57,15
1015,116;56,71
1015,323;57,92
1015,529;58,32
1015,736;58,54
1015,943;61,05
1016,15;61,9
1016,356;60,57
1016,563;57,72
1016,77;57,61
1016,976;56,63
1017,183;58,3
1017,389;58,61
1017,596;61,06
1017,803;61,54
1018,009;61,93
1018,216;64,38
1018,422;68,19
1018,629;68,19
1018,835;68,31
1019,041;68,8
1019,248;68,94
1019,454;69,84
1019,661;70,81
1019,867;71,02
1020,073;72,23
1020,279;70,68
1020,486;70,95
1020,692;70,45
1020,898;71,5
1021,104;70,85
1021,311;70,13
1021,517;68,57
1021,723;70,75
1021,929;69,88
1022,135;70,4
1022,341;71,43
1022,547;70,97
1022,753;69,65
1022,959;70,95
1023,165;70,2
1023,371;69,47
1023,577;67,71
1023,783;67,21
1023,989;63,15
1024,195;66,92
1024,401;69,63
1024,607;70,6
1024,812;69,91
1025,018;71,19
1025,224;72,91
1025,43;73,2
1025,635;75,38
1025,841;78,15
1026,047;78,05
1026,252;81,64
1026,458;82,42
1026,664;82,7
1026,869;83,67
1027,075;84,29
1027,28;85,44
1027,486;87,82
1027,691;91,46
1027,897;93,18
1028,102;92,58
1028,308;94,4
1028,513;92,9
1028,719;90,51
1028,924;90,79
1029,129;91
1029,335;91,33
1029,54;88,18
1029,745;88,74
1029,95;92,23
1030,156;89,28
1030,361;90,11
1030,566;87,83
1030,771;86,82
1030,976;86,81
1031,182;85,53
1031,387;84,03
1031,592;85,43
1031,797;86,77
1032,002;85,3
1032,207;87,09
1032,412;88,23
1032,617;90,2
1032,822;86,74
1033,027;89,38
1033,232;90,84
1033,437;93,18
1033,642;94,08
1033,846;97,32
1034,051;97,14
1034,256;92,23
1034,461;93,73
1034,666;90,94
1034,87;92,31
1035,075;92,59
1035,28;91,42
1035,484;94,51
1035,689;96,58
1035,894;93,28
1036,098;91,97
1036,303;93,68
1036,507;93,63
1036,712;96,79
1036,917;98,04
1037,121;100,48
1037,325;96,4
1037,53;98,31
1037,734;98,21
1037,939;98,01
1038,143;102,55
1038,348;107,28
1038,552;110,85
1038,756;110,17
1038,961;113,29
1039,165;111,43
1039,369;113,72
1039,573;113,72
1039,778;114,31
1039,982;114,48
1040,186;120,04
1040,39;123,02
1040,594;120,41
1040,798;122,44
1041,002;116,87
1041,206;117,42
1041,41;123,06
1041,614;127,79
1041,818;125,79
1042,022;123,33
1042,226;124,3
1042,43;121,29
1042,634;126,08
1042,838;128,07
1043,042;132,57
1043,246;132,94
1043,45;138,24
1043,653;137,13
1043,857;141,87
1044,061;144,31
1044,265;145,11
1044,468;143,73
1044,672;144,4
1044,876;151,25
1045,079;149,06
1045,283;152,93
1045,487;150,16
1045,69;150,44
1045,894;154,78
1046,097;157,69
1046,301;158,15
1046,504;158,14
1046,708;160,36
1046,911;152,39
1047,115;150,64
1047,318;151,41
1047,522;156,65
1047,725;152,29
1047,928;153,02
1048,132;155,34
1048,335;156,49
1048,538;158,81
1048,741;160,01
1048,945;162,02
1049,148;159,96
1049,351;162,33
1049,554;170,55
1049,757;169,9
1049,96;169,31
1050,163;163,63
1050,367;161,06
1050,57;169,47
1050,773;169,14
1050,976;167,55
1051,179;176,51
1051,382;181,32
1051,585;183,97
1051,787;186,31
1051,99;186,33
1052,193;188,56
1052,396;191,44
1052,599;187,18
1052,802;180,85
1053,005;179,99
1053,207;184,49
1053,41;180,07
1053,613;185,88
1053,815;178,82
1054,018;180,06
1054,221;184,73
1054,423;187,61
1054,626;189,8
1054,829;187,96
1055,031;195,11
1055,234;199,6
1055,436;190,46
1055,639;184,08
1055,841;179,13
1056,044;173,05
1056,246;177,9
