Data from neroAvorioWhite_Reflection__4__19.txt Node;
"Date: Fri Sep 12 10:52:40 CEST 2025 User: sycur Spectrometer: SR400348 Trigger mode: 0 Integration Time (sec): 1,000000E-1 Scans to average: 20 Electric dark correction enabled: true Nonlinearity correction enabled: false Boxcar width: 10 XAxis mode: Wavelengths Number of Pixels in Spectrum: 3648 >>>>>Begin Spectral Data<<<<<";
186,01;-6942,59
186,281;-26579,41
186,552;492,99
186,822;240,27
187,093;36,36
187,364;-450,17
187,635;73694,68
187,905;471,61
188,176;192,58
188,447;148,52
188,717;121,17
188,988;143,64
189,258;149,97
189,529;169,24
189,8;162,55
190,07;143,1
190,341;135,48
190,611;118,82
190,882;111,99
191,152;105,39
191,423;99,12
191,693;95,58
191,964;96,15
192,234;91,26
192,505;84,44
192,775;84,54
193,045;79,25
193,316;76,25
193,586;74,5
193,856;75,75
194,127;74,44
194,397;73,26
194,667;69,68
194,938;68,44
195,208;64,83
195,478;64,7
195,748;62,83
196,019;61,78
196,289;61,63
196,559;60,29
196,829;60,21
197,099;59,31
197,37;57,46
197,64;55,6
197,91;54,36
198,18;54,07
198,45;51,5
198,72;50,92
198,99;49,09
199,26;48,71
199,53;47,91
199,8;47,73
200,07;47,09
200,34;46,51
200,61;45,73
200,88;45,49
201,15;44,45
201,42;44,46
201,69;43,82
201,96;43,77
202,23;43,32
202,499;41,81
202,769;41,64
203,039;41,09
203,309;39,88
203,579;39,45
203,849;39,05
204,118;38,84
204,388;37,88
204,658;37,38
204,927;36,76
205,197;35,96
205,467;34,84
205,736;34,75
206,006;34,14
206,276;33,51
206,545;32,43
206,815;32,28
207,085;31,58
207,354;30,98
207,624;30,44
207,893;29,51
208,163;29,31
208,432;28,8
208,702;28,43
208,971;28,11
209,241;27,68
209,51;27,23
209,78;26,96
210,049;26,74
210,318;26,34
210,588;26,17
210,857;25,8
211,127;25,78
211,396;25,25
211,665;25,09
211,935;25,04
212,204;25,14
212,473;24,61
212,742;24,33
213,012;24,23
213,281;23,87
213,55;23,77
213,819;23,46
214,088;23,19
214,358;22,87
214,627;22,7
214,896;22,46
215,165;21,99
215,434;21,6
215,703;21,35
215,972;21,31
216,241;20,83
216,51;20,58
216,779;20,18
217,048;20,14
217,317;19,98
217,586;19,74
217,855;19,44
218,124;19,53
218,393;19,46
218,662;19,14
218,931;18,98
219,2;18,79
219,469;18,68
219,738;18,59
220,006;18,58
220,275;18,52
220,544;18,47
220,813;18,54
221,082;18,44
221,35;18,42
221,619;18,3
221,888;18,37
222,157;18,38
222,425;18,41
222,694;18,19
222,963;18,09
223,231;17,93
223,5;17,89
223,769;17,72
224,037;17,67
224,306;17,68
224,574;17,63
224,843;17,61
225,111;17,66
225,38;17,59
225,648;17,55
225,917;17,42
226,185;17,64
226,454;17,58
226,722;17,59
226,991;17,62
227,259;17,58
227,528;17,53
227,796;17,57
228,064;17,52
228,333;17,6
228,601;17,67
228,869;17,7
229,138;17,71
229,406;17,74
229,674;17,73
229,942;17,77
230,211;17,8
230,479;17,86
230,747;17,79
231,015;17,79
231,283;17,82
231,552;17,87
231,82;17,69
232,088;17,71
232,356;17,72
232,624;17,69
232,892;17,71
233,16;17,7
233,428;17,63
233,696;17,67
233,964;17,63
234,232;17,64
234,5;17,66
234,768;17,65
235,036;17,62
235,304;17,64
235,572;17,57
235,84;17,55
236,108;17,51
236,376;17,59
236,644;17,64
236,912;17,58
237,179;17,54
237,447;17,53
237,715;17,54
237,983;17,56
238,251;17,48
238,518;17,48
238,786;17,45
239,054;17,44
239,322;17,37
239,589;17,4
239,857;17,37
240,125;17,36
240,392;17,32
240,66;17,32
240,927;17,26
241,195;17,27
241,463;17,23
241,73;17,23
241,998;17,13
242,265;17,04
242,533;17,03
242,8;17,04
243,068;17
243,335;16,96
243,603;16,9
243,87;16,94
244,138;16,9
244,405;16,88
244,672;16,84
244,94;16,84
245,207;16,78
245,474;16,74
245,742;16,69
246,009;16,67
246,276;16,65
246,544;16,61
246,811;16,62
247,078;16,62
247,345;16,57
247,613;16,54
247,88;16,51
248,147;16,49
248,414;16,42
248,681;16,39
248,948;16,38
249,215;16,35
249,483;16,26
249,75;16,21
250,017;16,18
250,284;16,16
250,551;16,11
250,818;16,07
251,085;16,01
251,352;15,99
251,619;15,96
251,886;15,91
252,153;15,89
252,42;15,82
252,687;15,79
252,953;15,75
253,22;15,72
253,487;15,72
253,754;15,67
254,021;15,65
254,288;15,59
254,555;15,56
254,821;15,55
255,088;15,57
255,355;15,56
255,622;15,52
255,888;15,49
256,155;15,49
256,422;15,46
256,688;15,45
256,955;15,39
257,222;15,37
257,488;15,33
257,755;15,31
258,022;15,28
258,288;15,24
258,555;15,2
258,821;15,2
259,088;15,16
259,354;15,13
259,621;15,13
259,887;15,13
260,154;15,06
260,42;14,99
260,687;14,94
260,953;14,9
261,219;14,88
261,486;14,84
261,752;14,78
262,019;14,79
262,285;14,74
262,551;14,71
262,818;14,7
263,084;14,66
263,35;14,63
263,616;14,61
263,883;14,6
264,149;14,58
264,415;14,52
264,681;14,54
264,947;14,52
265,214;14,49
265,48;14,49
265,746;14,49
266,012;14,49
266,278;14,46
266,544;14,44
266,81;14,45
267,076;14,43
267,342;14,42
267,608;14,38
267,874;14,38
268,14;14,38
268,406;14,34
268,672;14,34
268,938;14,32
269,204;14,28
269,47;14,25
269,736;14,23
270,002;14,22
270,268;14,17
270,533;14,14
270,799;14,11
271,065;14,09
271,331;14,06
271,597;14,04
271,862;14,02
272,128;14,02
272,394;13,98
272,66;13,99
272,925;13,96
273,191;13,94
273,457;13,92
273,722;13,91
273,988;13,9
274,254;13,87
274,519;13,86
274,785;13,86
275,05;13,86
275,316;13,86
275,582;13,87
275,847;13,83
276,113;13,8
276,378;13,79
276,644;13,78
276,909;13,76
277,174;13,75
277,44;13,77
277,705;13,74
277,971;13,74
278,236;13,76
278,501;13,74
278,767;13,73
279,032;13,71
279,297;13,67
279,563;13,65
279,828;13,68
280,093;13,65
280,358;13,63
280,624;13,62
280,889;13,58
281,154;13,57
281,419;13,54
281,684;13,52
281,95;13,55
282,215;13,52
282,48;13,5
282,745;13,5
283,01;13,45
283,275;13,45
283,54;13,41
283,805;13,37
284,07;13,36
284,335;13,35
284,6;13,32
284,865;13,32
285,13;13,32
285,395;13,28
285,66;13,27
285,925;13,28
286,19;13,28
286,455;13,27
286,72;13,29
286,985;13,31
287,249;13,32
287,514;13,31
287,779;13,3
288,044;13,3
288,309;13,28
288,573;13,27
288,838;13,26
289,103;13,26
289,367;13,24
289,632;13,22
289,897;13,24
290,161;13,24
290,426;13,22
290,691;13,23
290,955;13,2
291,22;13,19
291,484;13,17
291,749;13,16
292,014;13,15
292,278;13,1
292,543;13,07
292,807;13,05
293,072;13,06
293,336;13,04
293,6;13,03
293,865;13,02
294,129;13
294,394;13
294,658;13,01
294,922;12,98
295,187;12,99
295,451;12,97
295,715;12,98
295,98;13
296,244;12,96
296,508;12,96
296,773;12,95
297,037;12,94
297,301;12,91
297,565;12,92
297,829;12,9
298,094;12,91
298,358;12,92
298,622;12,88
298,886;12,86
299,15;12,86
299,414;12,86
299,678;12,88
299,942;12,86
300,206;12,82
300,47;12,81
300,734;12,8
300,998;12,77
301,262;12,76
301,526;12,73
301,79;12,71
302,054;12,69
302,318;12,69
302,582;12,67
302,846;12,66
303,11;12,65
303,374;12,65
303,637;12,63
303,901;12,62
304,165;12,6
304,429;12,61
304,693;12,57
304,956;12,56
305,22;12,54
305,484;12,51
305,747;12,51
306,011;12,49
306,275;12,45
306,538;12,44
306,802;12,43
307,066;12,44
307,329;12,42
307,593;12,43
307,856;12,4
308,12;12,38
308,384;12,37
308,647;12,32
308,911;12,31
309,174;12,27
309,438;12,23
309,701;12,22
309,964;12,2
310,228;12,2
310,491;12,16
310,755;12,15
311,018;12,18
311,281;12,18
311,545;12,16
311,808;12,17
312,071;12,14
312,335;12,08
312,598;12,07
312,861;12,06
313,124;12
313,388;11,98
313,651;12,01
313,914;11,97
314,177;11,95
314,44;11,93
314,704;11,95
314,967;11,94
315,23;11,93
315,493;11,91
315,756;11,89
316,019;11,89
316,282;11,9
316,545;11,85
316,808;11,84
317,071;11,88
317,334;11,86
317,597;11,86
317,86;11,85
318,123;11,82
318,386;11,87
318,649;11,88
318,912;11,87
319,175;11,81
319,437;11,81
319,7;11,83
319,963;11,81
320,226;11,77
320,489;11,75
320,751;11,73
321,014;11,71
321,277;11,7
321,54;11,69
321,802;11,64
322,065;11,62
322,328;11,56
322,59;11,5
322,853;11,49
323,116;11,46
323,378;11,48
323,641;11,48
323,903;11,43
324,166;11,41
324,428;11,37
324,691;11,37
324,953;11,33
325,216;11,29
325,478;11,29
325,741;11,28
326,003;11,26
326,266;11,22
326,528;11,21
326,791;11,22
327,053;11,19
327,315;11,17
327,578;11,15
327,84;11,14
328,102;11,13
328,365;11,11
328,627;11,12
328,889;11,06
329,151;11,04
329,414;11,05
329,676;11,03
329,938;11
330,2;10,98
330,462;10,97
330,725;10,96
330,987;10,93
331,249;10,9
331,511;10,87
331,773;10,87
332,035;10,88
332,297;10,87
332,559;10,85
332,821;10,8
333,083;10,76
333,345;10,75
333,607;10,71
333,869;10,7
334,131;10,64
334,393;10,66
334,655;10,62
334,917;10,59
335,179;10,57
335,44;10,56
335,702;10,55
335,964;10,55
336,226;10,53
336,488;10,54
336,749;10,55
337,011;10,56
337,273;10,55
337,535;10,52
337,796;10,45
338,058;10,47
338,32;10,5
338,581;10,47
338,843;10,47
339,105;10,49
339,366;10,46
339,628;10,49
339,889;10,48
340,151;10,48
340,412;10,44
340,674;10,45
340,935;10,46
341,197;10,48
341,458;10,47
341,72;10,47
341,981;10,48
342,243;10,48
342,504;10,47
342,766;10,5
343,027;10,5
343,288;10,5
343,55;10,44
343,811;10,43
344,072;10,43
344,334;10,42
344,595;10,41
344,856;10,4
345,117;10,35
345,379;10,36
345,64;10,35
345,901;10,34
346,162;10,31
346,423;10,27
346,684;10,19
346,946;10,15
347,207;10,13
347,468;10,08
347,729;10,02
347,99;9,98
348,251;9,92
348,512;9,87
348,773;9,88
349,034;9,88
349,295;9,88
349,556;9,84
349,817;9,81
350,078;9,78
350,339;9,81
350,6;9,8
350,86;9,75
351,121;9,76
351,382;9,73
351,643;9,72
351,904;9,71
352,165;9,76
352,425;9,75
352,686;9,74
352,947;9,71
353,208;9,76
353,468;9,81
353,729;9,82
353,99;9,79
354,25;9,77
354,511;9,74
354,772;9,7
355,032;9,74
355,293;9,71
355,553;9,74
355,814;9,67
356,074;9,65
356,335;9,61
356,596;9,58
356,856;9,61
357,116;9,6
357,377;9,63
357,637;9,59
357,898;9,61
358,158;9,59
358,419;9,55
358,679;9,49
358,939;9,43
359,2;9,42
359,46;9,48
359,72;9,45
359,981;9,48
360,241;9,45
360,501;9,42
360,761;9,47
361,022;9,43
361,282;9,47
361,542;9,48
361,802;9,48
362,062;9,5
362,323;9,41
362,583;9,44
362,843;9,41
363,103;9,4
363,363;9,33
363,623;9,35
363,883;9,39
364,143;9,4
364,403;9,38
364,663;9,38
364,923;9,33
365,183;9,34
365,443;9,37
365,703;9,36
365,963;9,35
366,223;9,31
366,483;9,29
366,743;9,25
367,002;9,26
367,262;9,31
367,522;9,26
367,782;9,29
368,042;9,25
368,301;9,25
368,561;9,24
368,821;9,27
369,081;9,21
369,34;9,16
369,6;9,12
369,86;9,18
370,119;9,12
370,379;9,12
370,638;9,09
370,898;9
371,158;9
371,417;8,99
371,677;8,99
371,936;8,96
372,196;8,98
372,455;8,93
372,715;8,92
372,974;8,95
373,234;8,92
373,493;8,97
373,753;8,92
374,012;8,94
374,271;8,94
374,531;8,99
374,79;9,02
375,049;9,03
375,309;8,99
375,568;8,98
375,827;8,97
376,086;8,97
376,346;9,01
376,605;9,08
376,864;9,09
377,123;9,07
377,383;9,1
377,642;9,1
377,901;9,11
378,16;9,09
378,419;9,03
378,678;9,03
378,937;8,98
379,196;8,96
379,455;8,95
379,714;8,93
379,973;8,87
380,232;8,87
380,491;8,89
380,75;8,88
381,009;8,89
381,268;8,91
381,527;8,89
381,786;8,88
382,045;8,82
382,304;8,83
382,563;8,82
382,821;8,81
383,08;8,8
383,339;8,82
383,598;8,8
383,857;8,82
384,115;8,84
384,374;8,85
384,633;8,87
384,891;8,9
385,15;8,88
385,409;8,91
385,667;8,92
385,926;8,88
386,185;8,83
386,443;8,83
386,702;8,78
386,96;8,81
387,219;8,81
387,477;8,82
387,736;8,8
387,994;8,82
388,253;8,82
388,511;8,81
388,77;8,78
389,028;8,78
389,287;8,82
389,545;8,77
389,803;8,73
390,062;8,72
390,32;8,71
390,578;8,7
390,837;8,72
391,095;8,69
391,353;8,74
391,612;8,73
391,87;8,74
392,128;8,78
392,386;8,75
392,644;8,77
392,903;8,77
393,161;8,72
393,419;8,68
393,677;8,68
393,935;8,64
394,193;8,62
394,451;8,66
394,709;8,6
394,967;8,66
395,225;8,66
395,483;8,64
395,741;8,64
395,999;8,68
396,257;8,67
396,515;8,66
396,773;8,69
397,031;8,7
397,289;8,73
397,547;8,7
397,805;8,68
398,062;8,68
398,32;8,69
398,578;8,73
398,836;8,74
399,094;8,73
399,351;8,77
399,609;8,77
399,867;8,71
400,124;8,74
400,382;8,73
400,64;8,79
400,897;8,85
401,155;8,78
401,413;8,8
401,67;8,77
401,928;8,82
402,185;8,74
402,443;8,75
402,701;8,73
402,958;8,72
403,216;8,76
403,473;8,72
403,73;8,71
403,988;8,7
404,245;8,74
404,503;8,8
404,76;8,84
405,018;8,85
405,275;8,88
405,532;8,84
405,79;8,8
406,047;8,74
406,304;8,72
406,561;8,76
406,819;8,75
407,076;8,78
407,333;8,73
407,59;8,77
407,848;8,75
408,105;8,79
408,362;8,79
408,619;8,79
408,876;8,8
409,133;8,79
409,39;8,79
409,647;8,75
409,904;8,71
410,161;8,66
410,418;8,7
410,675;8,69
410,932;8,71
411,189;8,68
411,446;8,76
411,703;8,75
411,96;8,75
412,217;8,74
412,474;8,75
412,731;8,74
412,988;8,72
413,245;8,76
413,501;8,7
413,758;8,71
414,015;8,7
414,272;8,7
414,529;8,71
414,785;8,74
415,042;8,75
415,299;8,72
415,555;8,68
415,812;8,65
416,069;8,69
416,325;8,7
416,582;8,72
416,838;8,68
417,095;8,63
417,352;8,55
417,608;8,56
417,865;8,5
418,121;8,55
418,378;8,55
418,634;8,56
418,891;8,58
419,147;8,6
419,403;8,59
419,66;8,6
419,916;8,61
420,173;8,61
420,429;8,61
420,685;8,65
420,942;8,71
421,198;8,7
421,454;8,69
421,711;8,74
421,967;8,73
422,223;8,69
422,479;8,78
422,735;8,84
422,992;8,8
423,248;8,81
423,504;8,81
423,76;8,83
424,016;8,83
424,272;8,83
424,528;8,82
424,784;8,84
425,041;8,81
425,297;8,78
425,553;8,77
425,809;8,81
426,065;8,77
426,32;8,74
426,576;8,75
426,832;8,73
427,088;8,68
427,344;8,68
427,6;8,7
427,856;8,63
428,112;8,66
428,368;8,7
428,623;8,7
428,879;8,66
429,135;8,65
429,391;8,58
429,646;8,56
429,902;8,52
430,158;8,5
430,414;8,53
430,669;8,56
430,925;8,55
431,181;8,53
431,436;8,55
431,692;8,55
431,947;8,54
432,203;8,54
432,458;8,57
432,714;8,52
432,97;8,51
433,225;8,52
433,481;8,51
433,736;8,48
433,991;8,46
434,247;8,43
434,502;8,39
434,758;8,41
435,013;8,45
435,268;8,48
435,524;8,48
435,779;8,49
436,034;8,49
436,29;8,5
436,545;8,47
436,8;8,49
437,056;8,45
437,311;8,45
437,566;8,44
437,821;8,46
438,076;8,45
438,331;8,49
438,587;8,48
438,842;8,47
439,097;8,49
439,352;8,5
439,607;8,53
439,862;8,59
440,117;8,63
440,372;8,6
440,627;8,64
440,882;8,65
441,137;8,61
441,392;8,61
441,647;8,6
441,902;8,61
442,157;8,58
442,412;8,63
442,667;8,63
442,921;8,65
443,176;8,64
443,431;8,69
443,686;8,65
443,941;8,65
444,195;8,65
444,45;8,67
444,705;8,7
444,96;8,67
445,214;8,64
445,469;8,64
445,724;8,62
445,978;8,57
446,233;8,54
446,487;8,54
446,742;8,5
446,997;8,51
447,251;8,49
447,506;8,53
447,76;8,49
448,015;8,5
448,269;8,48
448,524;8,45
448,778;8,46
449,033;8,46
449,287;8,49
449,541;8,52
449,796;8,49
450,05;8,41
450,305;8,39
450,559;8,4
450,813;8,36
451,067;8,37
451,322;8,36
451,576;8,4
451,83;8,43
452,084;8,44
452,339;8,42
452,593;8,39
452,847;8,33
453,101;8,34
453,355;8,36
453,609;8,36
453,864;8,34
454,118;8,3
454,372;8,33
454,626;8,35
454,88;8,34
455,134;8,33
455,388;8,41
455,642;8,44
455,896;8,43
456,15;8,4
456,404;8,45
456,658;8,47
456,912;8,44
457,165;8,43
457,419;8,42
457,673;8,44
457,927;8,48
458,181;8,52
458,435;8,55
458,688;8,54
458,942;8,56
459,196;8,54
459,45;8,57
459,703;8,53
459,957;8,48
460,211;8,44
460,464;8,46
460,718;8,43
460,972;8,48
461,225;8,45
461,479;8,47
461,732;8,45
461,986;8,49
462,239;8,46
462,493;8,47
462,746;8,53
463;8,52
463,253;8,51
463,507;8,5
463,76;8,46
464,014;8,46
464,267;8,42
464,52;8,47
464,774;8,49
465,027;8,52
465,28;8,54
465,534;8,56
465,787;8,56
466,04;8,58
466,294;8,54
466,547;8,57
466,8;8,61
467,053;8,57
467,306;8,53
467,56;8,55
467,813;8,54
468,066;8,48
468,319;8,51
468,572;8,49
468,825;8,53
469,078;8,54
469,331;8,58
469,584;8,56
469,837;8,56
470,09;8,54
470,343;8,52
470,596;8,53
470,849;8,55
471,102;8,57
471,355;8,55
471,608;8,58
471,861;8,61
472,114;8,56
472,367;8,54
472,619;8,53
472,872;8,55
473,125;8,56
473,378;8,56
473,631;8,55
473,883;8,55
474,136;8,57
474,389;8,57
474,641;8,53
474,894;8,56
475,147;8,54
475,399;8,55
475,652;8,57
475,905;8,58
476,157;8,57
476,41;8,55
476,662;8,57
476,915;8,55
477,167;8,54
477,42;8,59
477,672;8,63
477,925;8,65
478,177;8,65
478,43;8,68
478,682;8,69
478,934;8,72
479,187;8,75
479,439;8,76
479,691;8,78
479,944;8,86
480,196;8,87
480,448;8,89
480,701;8,91
480,953;8,93
481,205;8,95
481,457;8,98
481,709;9
481,962;9,02
482,214;9,09
482,466;9,14
482,718;9,21
482,97;9,32
483,222;9,4
483,474;9,5
483,726;9,55
483,978;9,6
484,23;9,63
484,482;9,66
484,734;9,67
484,986;9,68
485,238;9,64
485,49;9,66
485,742;9,67
485,994;9,68
486,246;9,68
486,498;9,68
486,75;9,68
487,001;9,68
487,253;9,68
487,505;9,68
487,757;9,67
488,009;9,65
488,26;9,59
488,512;9,54
488,764;9,47
489,015;9,41
489,267;9,37
489,519;9,33
489,77;9,29
490,022;9,29
490,274;9,25
490,525;9,26
490,777;9,24
491,028;9,25
491,28;9,23
491,531;9,21
491,783;9,2
492,034;9,22
492,286;9,2
492,537;9,18
492,789;9,15
493,04;9,12
493,291;9,08
493,543;9,08
493,794;9,1
494,045;9,11
494,297;9,11
494,548;9,11
494,799;9,1
495,051;9,13
495,302;9,08
495,553;9,11
495,804;9,11
496,056;9,11
496,307;9,09
496,558;9,11
496,809;9,14
497,06;9,15
497,311;9,14
497,562;9,19
497,813;9,24
498,064;9,25
498,316;9,26
498,567;9,27
498,818;9,29
499,069;9,29
499,319;9,29
499,57;9,3
499,821;9,3
500,072;9,32
500,323;9,33
500,574;9,36
500,825;9,36
501,076;9,36
501,327;9,38
501,577;9,39
501,828;9,37
502,079;9,37
502,33;9,36
502,58;9,38
502,831;9,34
503,082;9,31
503,333;9,3
503,583;9,33
503,834;9,33
504,084;9,35
504,335;9,34
504,586;9,35
504,836;9,34
505,087;9,32
505,337;9,31
505,588;9,29
505,838;9,3
506,089;9,32
506,339;9,35
506,59;9,35
506,84;9,35
507,091;9,36
507,341;9,35
507,591;9,36
507,842;9,32
508,092;9,35
508,343;9,35
508,593;9,36
508,843;9,34
509,093;9,37
509,344;9,3
509,594;9,31
509,844;9,28
510,094;9,28
510,345;9,29
510,595;9,3
510,845;9,3
511,095;9,28
511,345;9,27
511,595;9,24
511,845;9,22
512,095;9,24
512,345;9,24
512,595;9,27
512,845;9,27
513,095;9,3
513,345;9,3
513,595;9,31
513,845;9,3
514,095;9,3
514,345;9,26
514,595;9,32
514,845;9,3
515,095;9,33
515,345;9,31
515,594;9,34
515,844;9,34
516,094;9,35
516,344;9,37
516,593;9,34
516,843;9,33
517,093;9,34
517,343;9,31
517,592;9,32
517,842;9,31
518,092;9,33
518,341;9,3
518,591;9,31
518,84;9,31
519,09;9,34
519,34;9,36
519,589;9,41
519,839;9,36
520,088;9,4
520,338;9,38
520,587;9,42
520,836;9,39
521,086;9,39
521,335;9,37
521,585;9,36
521,834;9,39
522,083;9,42
522,333;9,42
522,582;9,44
522,831;9,44
523,081;9,46
523,33;9,44
523,579;9,47
523,828;9,46
524,078;9,46
524,327;9,42
524,576;9,42
524,825;9,41
525,074;9,43
525,323;9,39
525,573;9,39
525,822;9,37
526,071;9,37
526,32;9,36
526,569;9,38
526,818;9,38
527,067;9,38
527,316;9,38
527,565;9,39
527,814;9,36
528,063;9,36
528,312;9,35
528,56;9,37
528,809;9,35
529,058;9,36
529,307;9,34
529,556;9,37
529,805;9,37
530,053;9,36
530,302;9,37
530,551;9,39
530,8;9,37
531,048;9,38
531,297;9,4
531,546;9,4
531,794;9,41
532,043;9,42
532,292;9,42
532,54;9,42
532,789;9,4
533,037;9,42
533,286;9,42
533,535;9,42
533,783;9,4
534,032;9,4
534,28;9,41
534,528;9,43
534,777;9,44
535,025;9,45
535,274;9,46
535,522;9,45
535,771;9,46
536,019;9,48
536,267;9,48
536,516;9,48
536,764;9,5
537,012;9,5
537,26;9,48
537,509;9,48
537,757;9,47
538,005;9,49
538,253;9,49
538,501;9,49
538,75;9,47
538,998;9,51
539,246;9,54
539,494;9,56
539,742;9,55
539,99;9,54
540,238;9,53
540,486;9,54
540,734;9,54
540,982;9,53
541,23;9,55
541,478;9,56
541,726;9,56
541,974;9,57
542,222;9,57
542,47;9,6
542,718;9,62
542,966;9,64
543,213;9,64
543,461;9,65
543,709;9,65
543,957;9,68
544,205;9,69
544,452;9,67
544,7;9,65
544,948;9,66
545,196;9,65
545,443;9,67
545,691;9,65
545,939;9,68
546,186;9,66
546,434;9,66
546,681;9,65
546,929;9,65
547,176;9,64
547,424;9,65
547,671;9,63
547,919;9,62
548,166;9,64
548,414;9,65
548,661;9,65
548,909;9,65
549,156;9,66
549,404;9,65
549,651;9,67
549,898;9,67
550,146;9,69
550,393;9,71
550,64;9,72
550,888;9,74
551,135;9,75
551,382;9,77
551,629;9,79
551,876;9,82
552,124;9,83
552,371;9,86
552,618;9,85
552,865;9,87
553,112;9,89
553,359;9,88
553,606;9,89
553,854;9,89
554,101;9,89
554,348;9,9
554,595;9,87
554,842;9,85
555,089;9,83
555,336;9,82
555,582;9,82
555,829;9,81
556,076;9,82
556,323;9,8
556,57;9,81
556,817;9,8
557,064;9,78
557,311;9,77
557,557;9,74
557,804;9,73
558,051;9,72
558,298;9,71
558,544;9,7
558,791;9,69
559,038;9,67
559,284;9,68
559,531;9,67
559,778;9,69
560,024;9,7
560,271;9,72
560,517;9,73
560,764;9,74
561,011;9,74
561,257;9,73
561,504;9,73
561,75;9,73
561,997;9,73
562,243;9,75
562,489;9,76
562,736;9,78
562,982;9,8
563,229;9,8
563,475;9,79
563,721;9,79
563,968;9,79
564,214;9,8
564,46;9,8
564,707;9,81
564,953;9,81
565,199;9,81
565,445;9,82
565,691;9,83
565,938;9,82
566,184;9,83
566,43;9,84
566,676;9,86
566,922;9,87
567,168;9,88
567,414;9,89
567,66;9,91
567,906;9,92
568,152;9,94
568,398;9,97
568,644;10,02
568,89;10,03
569,136;10,07
569,382;10,1
569,628;10,12
569,874;10,13
570,12;10,17
570,366;10,19
570,612;10,2
570,857;10,22
571,103;10,25
571,349;10,26
571,595;10,29
571,84;10,31
572,086;10,34
572,332;10,36
572,578;10,38
572,823;10,39
573,069;10,41
573,315;10,43
573,56;10,45
573,806;10,45
574,051;10,48
574,297;10,49
574,542;10,5
574,788;10,52
575,034;10,55
575,279;10,56
575,524;10,58
575,77;10,6
576,015;10,62
576,261;10,64
576,506;10,65
576,752;10,64
576,997;10,65
577,242;10,64
577,488;10,64
577,733;10,63
577,978;10,64
578,223;10,65
578,469;10,67
578,714;10,68
578,959;10,7
579,204;10,7
579,45;10,73
579,695;10,73
579,94;10,75
580,185;10,74
580,43;10,75
580,675;10,75
580,92;10,76
581,165;10,76
581,41;10,76
581,655;10,76
581,9;10,78
582,145;10,78
582,39;10,8
582,635;10,81
582,88;10,82
583,125;10,81
583,37;10,81
583,615;10,79
583,86;10,79
584,105;10,76
584,349;10,77
584,594;10,74
584,839;10,73
585,084;10,69
585,328;10,69
585,573;10,68
585,818;10,67
586,063;10,66
586,307;10,64
586,552;10,62
586,797;10,62
587,041;10,59
587,286;10,57
587,53;10,53
587,775;10,5
588,019;10,48
588,264;10,47
588,508;10,45
588,753;10,44
588,997;10,42
589,242;10,43
589,486;10,4
589,731;10,38
589,975;10,36
590,22;10,36
590,464;10,35
590,708;10,37
590,953;10,35
591,197;10,34
591,441;10,34
591,685;10,33
591,93;10,32
592,174;10,33
592,418;10,34
592,662;10,35
592,907;10,35
593,151;10,37
593,395;10,37
593,639;10,38
593,883;10,38
594,127;10,38
594,371;10,36
594,615;10,34
594,859;10,33
595,103;10,34
595,347;10,33
595,591;10,32
595,835;10,3
596,079;10,28
596,323;10,26
596,567;10,27
596,811;10,25
597,055;10,26
597,299;10,23
597,542;10,24
597,786;10,23
598,03;10,24
598,274;10,21
598,518;10,22
598,761;10,23
599,005;10,22
599,249;10,21
599,492;10,21
599,736;10,21
599,98;10,23
600,223;10,22
600,467;10,22
600,711;10,2
600,954;10,2
601,198;10,21
601,441;10,22
601,685;10,21
601,928;10,24
602,172;10,22
602,415;10,23
602,659;10,23
602,902;10,23
603,145;10,21
603,389;10,22
603,632;10,19
603,876;10,19
604,119;10,19
604,362;10,19
604,606;10,18
604,849;10,18
605,092;10,16
605,335;10,14
605,579;10,13
605,822;10,14
606,065;10,13
606,308;10,13
606,551;10,11
606,794;10,1
607,037;10,07
607,281;10,06
607,524;10,07
607,767;10,07
608,01;10,06
608,253;10,05
608,496;10,04
608,739;10,04
608,982;10,02
609,225;9,99
609,468;9,98
609,711;9,98
609,953;9,98
610,196;9,99
610,439;10
610,682;9,99
610,925;9,98
611,168;9,98
611,41;9,96
611,653;9,99
611,896;9,98
612,139;10
612,381;10
612,624;9,96
612,867;9,94
613,109;9,94
613,352;9,94
613,595;9,94
613,837;9,93
614,08;9,92
614,322;9,93
614,565;9,94
614,807;9,93
615,05;9,92
615,292;9,91
615,535;9,91
615,777;9,9
616,02;9,93
616,262;9,93
616,505;9,93
616,747;9,92
616,989;9,93
617,232;9,91
617,474;9,91
617,716;9,93
617,959;9,94
618,201;9,94
618,443;9,96
618,685;9,95
618,927;9,96
619,17;9,98
619,412;9,98
619,654;9,98
619,896;9,99
620,138;10
620,38;10,02
620,622;10,03
620,864;10,05
621,107;10,04
621,349;10,04
621,591;10,04
621,833;10,04
622,075;10,07
622,316;10,07
622,558;10,08
622,8;10,06
623,042;10,05
623,284;10,05
623,526;10,04
623,768;10,06
624,01;10,04
624,251;10,04
624,493;10,03
624,735;10,01
624,977;10,02
625,218;10,01
625,46;10,01
625,702;10
625,943;9,98
626,185;9,99
626,427;9,97
626,668;9,96
626,91;9,94
627,152;9,93
627,393;9,92
627,635;9,92
627,876;9,92
628,118;9,93
628,359;9,93
628,601;9,93
628,842;9,93
629,084;9,92
629,325;9,9
629,566;9,9
629,808;9,92
630,049;9,9
630,29;9,88
630,532;9,83
630,773;9,8
631,014;9,84
631,256;9,8
631,497;9,82
631,738;9,82
631,979;9,83
632,22;9,8
632,462;9,79
632,703;9,75
632,944;9,76
633,185;9,74
633,426;9,73
633,667;9,73
633,908;9,71
634,149;9,69
634,39;9,68
634,631;9,66
634,872;9,65
635,113;9,62
635,354;9,63
635,595;9,62
635,836;9,63
636,077;9,59
636,318;9,6
636,559;9,59
636,8;9,58
637,04;9,55
637,281;9,56
637,522;9,55
637,763;9,57
638,003;9,56
638,244;9,55
638,485;9,52
638,726;9,49
638,966;9,48
639,207;9,49
639,448;9,49
639,688;9,52
639,929;9,49
640,169;9,52
640,41;9,5
640,65;9,52
640,891;9,5
641,131;9,48
641,372;9,46
641,612;9,47
641,853;9,43
642,093;9,45
642,334;9,44
642,574;9,43
642,814;9,42
643,055;9,42
643,295;9,41
643,535;9,44
643,776;9,45
644,016;9,46
644,256;9,44
644,496;9,44
644,737;9,42
644,977;9,46
645,217;9,45
645,457;9,46
645,697;9,46
645,938;9,48
646,178;9,49
646,418;9,51
646,658;9,51
646,898;9,53
647,138;9,51
647,378;9,54
647,618;9,52
647,858;9,53
648,098;9,54
648,338;9,53
648,578;9,48
648,818;9,48
649,057;9,48
649,297;9,5
649,537;9,51
649,777;9,51
650,017;9,5
650,257;9,5
650,496;9,49
650,736;9,48
650,976;9,45
661,028;9,43
661,267;9,4
661,506;9,41
661,744;9,39
661,983;9,37
662,222;9,36
662,461;9,34
662,7;9,31
662,939;9,32
663,177;9,32
663,416;9,31
663,655;9,29
663,894;9,29
664,132;9,3
664,371;9,29
664,61;9,28
664,848;9,27
665,087;9,27
665,326;9,28
665,564;9,31
665,803;9,33
666,041;9,37
666,28;9,37
666,518;9,36
666,757;9,37
666,995;9,36
667,234;9,37
667,472;9,37
667,711;9,38
667,949;9,37
668,187;9,37
668,426;9,37
668,664;9,38
668,902;9,38
669,141;9,38
669,379;9,37
669,617;9,4
669,856;9,4
670,094;9,4
670,332;9,4
670,57;9,39
670,808;9,38
671,046;9,36
671,285;9,36
671,523;9,34
671,761;9,36
671,999;9,34
672,237;9,33
672,475;9,33
672,713;9,33
672,951;9,33
673,189;9,31
673,427;9,32
673,665;9,28
673,903;9,3
674,141;9,26
674,379;9,28
674,617;9,25
674,854;9,24
675,092;9,24
675,33;9,22
675,568;9,22
675,806;9,24
676,043;9,24
676,281;9,26
676,519;9,26
676,756;9,23
676,994;9,24
677,232;9,23
677,469;9,22
677,707;9,24
677,945;9,26
678,182;9,28
678,42;9,27
678,657;9,3
678,895;9,28
679,132;9,28
679,37;9,25
679,607;9,25
679,845;9,23
680,082;9,23
680,32;9,22
680,557;9,21
680,794;9,18
681,032;9,16
681,269;9,12
681,507;9,12
681,744;9,12
681,981;9,13
682,218;9,13
682,456;9,14
682,693;9,11
682,93;9,1
683,167;9,08
683,404;9,08
683,642;9,05
683,879;9,07
684,116;9,09
684,353;9,11
684,59;9,11
684,827;9,15
685,064;9,14
685,301;9,14
685,538;9,13
685,775;9,14
686,012;9,13
686,249;9,14
686,486;9,14
686,723;9,13
686,96;9,12
687,197;9,12
687,433;9,1
687,67;9,08
687,907;9,05
688,144;9,05
688,381;9,02
688,617;9,03
688,854;9,02
689,091;8,99
689,327;9
689,564;8,99
689,801;8,98
690,037;8,99
690,274;8,99
690,511;9,01
690,747;9,01
690,984;9,04
691,22;9,05
691,457;9,05
691,693;9,06
691,93;9,07
692,166;9,08
692,403;9,07
692,639;9,08
692,876;9,11
693,112;9,12
693,348;9,13
693,585;9,16
693,821;9,15
694,057;9,17
694,294;9,15
694,53;9,13
694,766;9,13
695,002;9,13
695,239;9,13
695,475;9,12
695,711;9,11
695,947;9,07
696,183;9,07
696,419;9,06
696,656;9,05
696,892;9,05
697,128;9,05
697,364;9,06
697,6;9,06
697,836;9,06
698,072;9,06
698,308;9,03
698,544;9,01
698,78;9,01
699,016;8,97
699,251;8,97
699,487;8,99
699,723;8,99
699,959;8,99
700,195;8,97
700,431;8,97
700,666;8,96
700,902;8,98
701,138;8,97
701,374;8,99
701,609;8,98
701,845;8,97
702,081;8,95
702,316;8,96
702,552;8,94
702,788;8,94
703,023;8,93
703,259;8,95
703,494;8,94
703,73;8,94
703,965;8,98
704,201;8,96
704,436;8,94
704,672;8,92
704,907;8,91
705,143;8,94
705,378;8,92
705,613;8,92
705,849;8,92
706,084;8,92
706,319;8,89
706,555;8,88
706,79;8,88
707,025;8,89
707,26;8,91
707,496;8,93
707,731;8,91
707,966;8,93
708,201;8,92
708,436;8,92
708,671;8,89
708,907;8,87
709,142;8,87
709,377;8,89
709,612;8,92
709,847;8,91
710,082;8,88
710,317;8,88
710,552;8,91
710,787;8,89
711,022;8,86
711,257;8,84
711,492;8,85
711,726;8,88
711,961;8,85
712,196;8,86
712,431;8,84
712,666;8,84
712,901;8,8
713,135;8,81
713,37;8,84
713,605;8,85
713,839;8,85
714,074;8,83
714,309;8,81
714,543;8,77
714,778;8,77
715,013;8,77
715,247;8,82
715,482;8,78
715,716;8,8
715,951;8,84
716,185;8,86
716,42;8,87
716,654;8,85
716,889;8,86
717,123;8,82
717,358;8,81
717,592;8,84
717,827;8,85
718,061;8,85
718,295;8,82
718,53;8,83
718,764;8,84
718,998;8,83
719,232;8,87
719,467;8,87
719,701;8,86
719,935;8,84
720,169;8,79
720,403;8,81
720,638;8,79
720,872;8,76
721,106;8,76
721,34;8,77
721,574;8,73
721,808;8,72
722,042;8,72
722,276;8,74
722,51;8,71
722,744;8,7
722,978;8,71
723,212;8,68
723,446;8,71
723,68;8,73
723,914;8,73
724,147;8,69
724,381;8,68
724,615;8,7
724,849;8,74
725,083;8,75
725,316;8,75
725,55;8,77
725,784;8,79
726,018;8,78
726,251;8,75
726,485;8,76
726,719;8,78
726,952;8,78
727,186;8,77
727,419;8,8
727,653;8,84
727,887;8,84
728,12;8,89
728,354;8,87
728,587;8,88
728,821;8,89
729,054;8,89
729,287;8,93
729,521;8,96
729,754;8,95
729,988;8,96
730,221;8,94
730,454;8,95
730,688;8,95
730,921;8,95
731,154;8,97
731,387;8,97
731,621;8,99
731,854;9,01
732,087;9
732,32;8,98
732,553;8,96
732,787;8,95
733,02;8,92
733,253;8,92
733,486;8,9
733,719;8,89
733,952;8,93
734,185;8,91
734,418;8,86
734,651;8,84
734,884;8,85
735,117;8,86
735,35;8,85
735,583;8,82
735,816;8,84
736,049;8,81
736,281;8,82
736,514;8,8
736,747;8,78
736,98;8,76
737,213;8,74
737,445;8,73
737,678;8,74
737,911;8,72
738,144;8,7
738,376;8,71
738,609;8,7
738,842;8,67
739,074;8,66
739,307;8,65
739,539;8,65
739,772;8,62
740,004;8,6
740,237;8,58
740,469;8,57
740,702;8,53
740,934;8,56
741,167;8,55
741,399;8,55
741,632;8,59
741,864;8,6
742,096;8,63
742,329;8,62
742,561;8,63
742,793;8,63
743,026;8,6
743,258;8,6
743,49;8,6
743,723;8,58
743,955;8,59
744,187;8,61
744,419;8,63
744,651;8,62
744,883;8,65
745,115;8,7
745,348;8,68
745,58;8,72
745,812;8,69
746,044;8,69
746,276;8,66
746,508;8,62
746,74;8,62
746,972;8,59
747,204;8,58
747,436;8,54
747,667;8,58
747,899;8,58
748,131;8,58
748,363;8,61
748,595;8,59
748,827;8,59
749,058;8,6
749,29;8,61
749,522;8,6
749,754;8,58
749,985;8,52
750,217;8,55
750,449;8,53
750,68;8,53
750,912;8,56
751,144;8,6
751,375;8,58
751,607;8,57
751,838;8,63
752,07;8,67
752,301;8,67
752,533;8,63
752,764;8,63
752,996;8,63
753,227;8,6
753,459;8,62
753,69;8,64
753,921;8,65
754,153;8,61
754,384;8,64
754,615;8,63
754,847;8,65
755,078;8,63
755,309;8,66
755,54;8,62
755,772;8,55
756,003;8,52
756,234;8,51
756,465;8,55
756,696;8,51
756,927;8,49
757,159;8,48
757,39;8,51
757,621;8,5
757,852;8,49
758,083;8,49
758,314;8,54
758,545;8,51
758,776;8,48
759,007;8,48
759,238;8,44
759,469;8,43
759,699;8,43
759,93;8,44
760,161;8,38
760,392;8,39
760,623;8,41
760,854;8,47
761,084;8,48
761,315;8,47
761,546;8,47
761,776;8,44
762,007;8,5
762,238;8,46
762,468;8,45
762,699;8,46
762,93;8,46
763,16;8,46
763,391;8,46
763,621;8,45
763,852;8,48
764,083;8,5
764,313;8,48
764,543;8,48
764,774;8,47
765,004;8,48
765,235;8,51
765,465;8,52
765,696;8,49
765,926;8,52
766,156;8,53
766,387;8,52
766,617;8,52
766,847;8,48
767,077;8,5
767,308;8,51
767,538;8,53
767,768;8,57
767,998;8,51
768,228;8,49
768,459;8,51
768,689;8,5
768,919;8,49
769,149;8,52
769,379;8,5
769,609;8,51
769,839;8,53
770,069;8,5
770,299;8,47
770,529;8,45
770,759;8,44
770,989;8,42
771,219;8,39
771,449;8,4
771,678;8,41
771,908;8,43
772,138;8,45
772,368;8,38
772,598;8,32
772,827;8,33
773,057;8,33
773,287;8,33
773,517;8,31
773,746;8,33
773,976;8,31
774,206;8,31
774,435;8,3
774,665;8,26
774,894;8,25
775,124;8,29
775,354;8,24
775,583;8,21
775,813;8,19
776,042;8,24
776,272;8,26
776,501;8,27
776,73;8,24
776,96;8,25
777,189;8,28
777,419;8,28
777,648;8,25
777,877;8,24
778,107;8,22
778,336;8,26
778,565;8,24
778,794;8,27
779,024;8,27
779,253;8,26
779,482;8,3
779,711;8,34
779,94;8,34
780,17;8,39
780,399;8,42
780,628;8,49
780,857;8,52
781,086;8,48
781,315;8,48
781,544;8,51
781,773;8,5
782,002;8,54
782,231;8,57
782,46;8,63
782,689;8,64
782,918;8,66
783,147;8,64
783,375;8,65
783,604;8,63
783,833;8,64
784,062;8,68
784,291;8,68
784,519;8,66
784,748;8,64
784,977;8,61
785,206;8,6
785,434;8,56
785,663;8,47
785,892;8,53
786,12;8,51
786,349;8,46
786,577;8,46
786,806;8,42
787,034;8,42
787,263;8,41
787,492;8,41
787,72;8,39
787,948;8,4
788,177;8,44
788,405;8,41
788,634;8,42
788,862;8,41
789,09;8,37
789,319;8,36
789,547;8,39
789,775;8,39
790,004;8,39
790,232;8,36
790,46;8,4
790,688;8,35
790,917;8,36
791,145;8,38
791,373;8,41
791,601;8,45
791,829;8,42
792,057;8,45
792,286;8,48
792,514;8,48
792,742;8,44
792,97;8,37
793,198;8,36
793,426;8,37
793,654;8,36
793,882;8,39
794,109;8,44
794,337;8,46
794,565;8,47
794,793;8,48
795,021;8,5
795,249;8,53
795,477;8,54
795,704;8,53
795,932;8,5
796,16;8,46
796,388;8,48
796,615;8,5
796,843;8,44
797,071;8,4
797,298;8,44
797,526;8,44
797,754;8,5
797,981;8,48
798,209;8,45
798,436;8,46
798,664;8,48
798,891;8,42
799,119;8,34
799,346;8,35
799,574;8,32
799,801;8,33
800,029;8,25
800,256;8,25
800,483;8,25
800,711;8,3
800,938;8,31
801,165;8,27
801,393;8,25
801,62;8,27
801,847;8,25
802,074;8,21
802,302;8,29
802,529;8,26
802,756;8,29
802,983;8,33
803,21;8,31
803,437;8,25
803,665;8,27
803,892;8,29
804,119;8,28
804,346;8,3
804,573;8,35
804,8;8,43
805,027;8,43
805,254;8,44
805,481;8,35
805,708;8,34
805,934;8,35
806,161;8,37
806,388;8,31
806,615;8,32
806,842;8,34
807,069;8,28
807,295;8,3
807,522;8,36
807,749;8,35
807,976;8,32
808,202;8,36
808,429;8,36
808,656;8,35
808,882;8,41
809,109;8,37
809,335;8,3
809,562;8,27
809,789;8,32
810,015;8,29
810,242;8,41
810,468;8,36
810,695;8,32
810,921;8,31
811,147;8,41
811,374;8,46
811,6;8,47
811,827;8,48
812,053;8,47
812,279;8,42
812,506;8,45
812,732;8,48
812,958;8,5
813,185;8,51
813,411;8,49
813,637;8,41
813,863;8,44
814,089;8,52
814,315;8,51
814,542;8,49
814,768;8,5
814,994;8,47
815,22;8,51
815,446;8,54
815,672;8,57
815,898;8,59
816,124;8,58
816,35;8,57
816,576;8,57
816,802;8,56
817,028;8,62
817,254;8,61
817,48;8,6
817,705;8,53
817,931;8,51
818,157;8,59
818,383;8,59
818,609;8,58
818,834;8,54
819,06;8,55
819,286;8,53
819,512;8,53
819,737;8,52
819,963;8,55
820,189;8,53
820,414;8,6
820,64;8,51
820,865;8,45
821,091;8,44
821,316;8,41
821,542;8,44
821,767;8,38
821,993;8,39
822,218;8,42
822,444;8,52
822,669;8,56
822,895;8,55
823,12;8,52
823,345;8,56
823,571;8,53
823,796;8,51
824,021;8,5
824,247;8,46
824,472;8,44
824,697;8,48
824,922;8,56
825,147;8,49
825,373;8,58
825,598;8,64
825,823;8,61
826,048;8,65
826,273;8,61
826,498;8,65
826,723;8,59
826,948;8,6
827,173;8,55
827,398;8,56
827,623;8,51
827,848;8,57
828,073;8,56
828,298;8,59
828,523;8,68
828,748;8,72
828,973;8,74
829,197;8,82
829,422;8,69
829,647;8,72
829,872;8,6
830,097;8,54
830,321;8,57
830,546;8,62
830,771;8,61
830,995;8,63
831,22;8,59
831,445;8,64
831,669;8,62
831,894;8,63
832,118;8,59
832,343;8,65
832,567;8,69
832,792;8,77
833,016;8,77
833,241;8,7
833,465;8,66
833,69;8,73
833,914;8,63
834,139;8,73
834,363;8,65
834,587;8,85
834,812;8,88
835,036;8,82
835,26;8,83
835,485;8,83
835,709;8,88
835,933;8,92
836,157;8,94
836,381;9,01
836,606;9,06
836,83;9,04
837,054;8,99
837,278;8,9
837,502;8,86
837,726;8,83
837,95;8,82
838,174;8,92
838,398;8,89
838,622;8,9
838,846;8,88
839,07;8,89
839,294;8,83
839,518;8,77
839,742;8,8
839,966;8,83
840,189;8,86
840,413;8,82
840,637;8,83
840,861;8,82
841,085;8,7
841,308;8,73
841,532;8,81
841,756;8,8
841,979;8,83
842,203;8,89
842,427;8,93
842,65;8,89
842,874;8,88
843,098;8,89
843,321;8,97
843,545;9,03
843,768;9,02
843,992;8,97
844,215;8,95
844,439;8,97
844,662;8,93
844,886;8,95
845,109;8,93
845,332;8,95
845,556;9,02
845,779;9,15
846,002;9,09
846,226;9,04
846,449;9,13
846,672;9,17
846,895;9,06
847,119;9,04
847,342;9,07
847,565;9,04
847,788;9,07
848,011;9,07
848,234;9
848,457;8,97
848,681;8,95
848,904;9,07
849,127;9,06
849,35;8,99
849,573;9,02
849,796;9
850,019;8,93
850,241;8,95
850,464;8,9
850,687;8,91
850,91;8,89
851,133;8,83
851,356;8,83
851,579;8,85
851,801;8,86
852,024;8,89
852,247;8,82
852,47;8,86
852,692;8,8
852,915;8,92
853,138;8,97
853,36;9,03
853,583;8,93
853,806;8,96
854,028;9,1
854,251;8,98
854,473;9,03
854,696;9,06
854,918;8,93
855,141;8,9
855,363;8,91
855,586;8,98
855,808;9,03
856,031;8,98
856,253;8,97
856,475;8,94
856,698;8,92
856,92;9,02
857,142;8,92
857,365;8,95
857,587;8,87
857,809;8,85
858,031;8,82
858,253;8,9
858,476;8,9
858,698;8,84
858,92;8,95
859,142;8,94
859,364;8,92
859,586;9
859,808;9,11
860,03;9,16
860,252;9,09
860,474;9,08
860,696;9,14
860,918;9,14
861,14;9,22
861,362;9,2
861,584;9,26
861,806;9,31
862,028;9,45
862,25;9,46
862,471;9,5
862,693;9,48
862,915;9,42
863,137;9,4
863,358;9,42
863,58;9,39
863,802;9,32
864,024;9,32
864,245;9,3
864,467;9,21
864,688;9,19
864,91;9,2
865,132;9,2
865,353;9,21
865,575;9,19
865,796;9,15
866,018;9,19
866,239;9,08
866,461;9,16
866,682;8,98
866,903;9
867,125;9,01
867,346;9,07
867,567;9,03
867,789;9,01
868,01;9,07
868,231;9,03
868,453;9,13
868,674;9,29
868,895;9,31
869,116;9,28
869,337;9,32
869,559;9,45
869,78;9,46
870,001;9,43
870,222;9,47
870,443;9,56
870,664;9,59
870,885;9,62
871,106;9,54
871,327;9,63
871,548;9,58
871,769;9,49
871,99;9,43
872,211;9,46
872,432;9,51
872,653;9,37
872,874;9,46
873,094;9,49
873,315;9,35
873,536;9,24
873,757;9,37
873,978;9,3
874,198;9,18
874,419;9,14
874,64;9,21
874,86;9,26
875,081;9,29
875,302;9,26
875,522;9,26
875,743;9,3
875,963;9,22
876,184;9,17
876,404;9,18
876,625;9,21
876,845;9,34
877,066;9,34
877,286;9,4
877,507;9,4
877,727;9,41
877,947;9,33
878,168;9,47
878,388;9,39
878,609;9,4
878,829;9,39
879,049;9,44
879,269;9,47
879,49;9,52
879,71;9,47
879,93;9,46
880,15;9,52
880,37;9,5
880,59;9,5
880,811;9,57
881,031;9,67
881,251;9,6
881,471;9,53
881,691;9,61
881,911;9,64
882,131;9,73
882,351;9,71
882,571;9,76
882,791;9,74
883,011;9,69
883,23;9,69
883,45;9,66
883,67;9,75
883,89;9,75
884,11;9,59
884,33;9,56
884,549;9,63
884,769;9,62
884,989;9,67
885,209;9,72
885,428;9,71
885,648;9,63
885,868;9,72
886,087;9,77
886,307;9,72
886,526;9,79
886,746;9,63
886,965;9,52
887,185;9,62
887,404;9,68
887,624;9,72
887,843;9,72
888,063;9,81
888,282;9,68
888,502;9,6
888,721;9,66
888,94;9,66
889,16;9,67
889,379;9,64
889,598;9,74
889,818;9,83
890,037;9,84
890,256;9,94
890,475;9,93
890,694;10,06
890,914;10,07
891,133;10,12
891,352;10,23
891,571;10,44
891,79;10,54
892,009;10,46
892,228;10,48
892,447;10,57
892,666;10,57
892,885;10,72
893,104;10,74
893,323;10,8
893,542;10,78
893,761;10,79
893,98;10,95
894,199;10,79
894,417;10,85
894,636;10,91
894,855;10,97
895,074;11,03
895,293;10,91
895,511;10,91
895,73;10,88
895,949;10,74
896,167;10,64
896,386;10,71
896,605;10,74
896,823;10,91
897,042;10,9
897,26;10,86
897,479;10,76
897,697;10,72
897,916;10,89
898,134;10,88
898,353;10,91
898,571;10,68
898,79;10,85
899,008;10,78
899,227;10,74
899,445;10,75
899,663;10,73
899,882;10,79
900,1;10,87
900,318;10,86
900,536;11,02
900,755;11,11
900,973;11,02
901,191;11,12
901,409;11,14
901,627;11,05
901,846;11,17
902,064;11,18
902,282;11,32
902,5;11,08
902,718;11,14
902,936;11,03
903,154;11,2
903,372;11,02
903,59;10,96
903,808;11,13
904,026;11,23
904,244;11,15
904,462;11,03
904,679;11,01
904,897;10,99
905,115;11,02
905,333;10,88
905,551;10,87
905,768;10,7
905,986;10,66
906,204;10,79
906,422;10,79
906,639;10,83
906,857;10,84
907,074;10,96
907,292;11,01
907,51;10,99
907,727;11,04
907,945;11,09
908,162;11,11
908,38;11,03
908,597;10,96
908,815;11
909,032;11,16
909,25;11,21
909,467;11,29
909,684;11,15
909,902;11,34
910,119;11,47
910,337;11,57
910,554;11,51
910,771;11,47
910,988;11,55
911,206;11,53
911,423;11,6
911,64;11,71
911,857;11,75
912,074;11,77
912,291;11,77
912,509;11,69
912,726;11,69
912,943;11,68
913,16;11,75
913,377;11,96
913,594;11,83
913,811;11,72
914,028;11,59
914,245;11,72
914,462;11,78
914,679;11,69
914,896;11,77
915,112;11,99
915,329;12,07
915,546;11,99
915,763;12
915,98;11,88
916,196;11,88
916,413;11,91
916,63;11,95
916,847;11,96
917,063;12,15
917,28;12,23
917,497;12,05
917,713;12,05
917,93;12,13
918,146;12,3
918,363;12,5
918,579;12,69
918,796;12,81
919,012;12,66
919,229;12,63
919,445;12,59
919,662;12,41
919,878;12,33
920,095;12,32
920,311;12,4
920,527;12,26
920,744;12,15
920,96;12,16
921,176;12,1
921,392;12,08
921,609;12,28
921,825;12,29
922,041;12,54
922,257;12,39
922,473;12,35
922,69;12,41
922,906;12,38
923,122;12,31
923,338;12,16
923,554;11,97
923,77;11,92
923,986;12
924,202;12,05
924,418;12,17
924,634;12,37
924,85;12,38
925,066;12,58
925,282;12,4
925,497;12,43
925,713;12,43
925,929;12,45
926,145;12,13
926,361;12,03
926,576;11,89
926,792;11,77
927,008;11,86
927,224;11,66
927,439;11,39
927,655;11,27
927,871;11,24
928,086;11,42
928,302;11,37
928,517;11,27
928,733;11,24
928,948;11,12
929,164;11,04
929,379;11
929,595;10,96
929,81;11,15
930,026;10,98
930,241;10,97
930,456;10,91
930,672;10,98
930,887;11,03
931,102;11,18
931,318;11,45
931,533;11,29
931,748;11,48
931,964;11,76
932,179;11,75
932,394;11,76
932,609;11,93
932,824;12,03
933,039;12,12
933,255;12,17
933,47;12,54
933,685;12,62
933,9;12,83
934,115;13,09
934,33;13,15
934,545;13,63
934,76;13,91
934,975;14,01
935,19;14,2
935,404;14,5
935,619;14,66
935,834;15,02
936,049;15,13
936,264;15,13
936,479;15,42
936,693;15,86
936,908;16,39
937,123;16,6
937,338;17,23
937,552;17,73
937,767;18,3
937,982;18,42
938,196;19,03
938,411;19,36
938,625;19,77
938,84;20,14
939,055;20,26
939,269;20,81
939,484;21,85
939,698;22,41
939,912;23,02
940,127;23,79
940,341;23,74
940,556;24,32
940,77;25,5
940,984;26,05
941,199;27,2
941,413;27,23
941,627;27,98
941,842;28,1
942,056;29,2
942,27;29,45
942,484;29,82
942,699;29,82
942,913;30,21
943,127;30,41
943,341;32,52
943,555;33,07
943,769;33,45
943,983;32,99
944,197;33,56
944,411;34,26
944,625;34,09
944,839;34,36
945,053;35,97
945,267;36,8
945,481;36,83
945,695;37,23
945,909;37,3
946,123;37,34
946,336;37,57
946,55;36,38
946,764;35,84
946,978;35,62
947,192;35,48
947,405;35,04
947,619;34,93
947,833;33,54
948,046;32,95
948,26;32,19
948,474;33,51
948,687;33,97
948,901;33,06
949,114;32,91
949,328;32,92
949,541;31,2
949,755;30,15
949,968;29,95
950,182;29,13
950,395;29,15
950,609;28,37
950,822;27,89
951,035;28,09
951,249;27,95
951,462;27,9
951,675;28,68
951,889;28,96
952,102;28,83
952,315;28,49
952,528;28,56
952,741;28,97
952,955;28,86
953,168;28,44
953,381;28,74
953,594;29,1
953,807;28,93
954,02;30,16
954,233;29,93
954,446;29,82
954,659;29,55
954,872;29,8
955,085;30,17
955,298;29,67
955,511;29,76
955,724;30,25
955,937;29,77
956,15;29,38
956,362;29,22
956,575;29,47
956,788;29,14
957,001;29,02
957,214;29,22
957,426;28,52
957,639;27,7
957,852;27,27
958,064;27,11
958,277;26,43
958,49;25,19
958,702;25,97
958,915;25,96
959,127;25,82
959,34;26,02
959,552;25,66
959,765;25,9
959,977;26,21
960,19;25,63
960,402;25,25
960,615;24,6
960,827;24,42
961,039;23,76
961,252;24,21
961,464;23,75
961,676;23,01
961,889;23,19
962,101;23,71
962,313;23,81
962,525;23,25
962,738;23,03
962,95;23,45
963,162;23,17
963,374;23,27
963,586;23,53
963,798;23,3
964,01;23,35
964,222;23,47
964,434;22,7
964,646;22,53
964,858;23,14
965,07;22,98
965,282;22,83
965,494;22,99
965,706;23,02
965,918;23,3
966,13;24
966,342;23,53
966,553;23,67
966,765;23,85
966,977;24,38
967,189;25,58
967,401;25,95
967,612;25,76
967,824;25,6
968,036;25,28
968,247;25,32
968,459;25,12
968,67;25,12
968,882;24,78
969,094;25,51
969,305;25,49
969,517;26,13
969,728;26,3
969,94;26,37
970,151;26,08
970,362;26,29
970,574;26,33
970,785;26,53
970,997;25,83
971,208;24,92
971,419;24,46
971,631;23,85
971,842;24,18
972,053;24,31
972,264;24,68
972,476;24,92
972,687;24,82
972,898;24,76
973,109;25,1
973,32;26
973,531;26,01
973,742;25,86
973,954;25,25
974,165;25,18
974,376;25,1
974,587;25,79
974,798;25,76
975,009;25,72
975,22;25,85
975,43;27,24
975,641;27,79
975,852;28,27
976,063;28,77
976,274;27,98
976,485;27,03
976,695;26,74
976,906;26,77
977,117;26,64
977,328;26,84
977,538;26,77
977,749;26,32
977,96;26,3
978,17;26,52
978,381;26,82
978,592;27,31
978,802;27,53
979,013;26,86
979,223;26,56
979,434;26,33
979,644;26,52
979,855;26,22
980,065;26,72
980,276;26,58
980,486;26,39
980,696;26,8
980,907;27,27
981,117;27,78
981,327;28,6
981,538;28,57
981,748;29,2
981,958;29,3
982,169;29,95
982,379;29,63
982,589;29,92
982,799;30,36
983,009;30,81
983,219;30,47
983,43;31,28
983,64;32,08
983,85;32,29
984,06;32,49
984,27;32,03
984,48;31,92
984,69;32,11
984,9;31,81
985,11;31,69
985,32;31,91
985,529;31,57
985,739;30,44
985,949;31,35
986,159;31
986,369;30,64
986,579;30,45
986,788;31,31
986,998;31,34
987,208;30,73
987,417;29,87
987,627;30,78
987,837;30,25
988,046;29,92
988,256;30,14
988,466;29,23
988,675;29,16
988,885;29,05
989,094;28,92
989,304;29,29
989,513;29,36
989,723;29,94
989,932;30,01
990,142;30,75
990,351;31,01
990,56;32,41
990,77;32,55
990,979;33,05
991,188;32,53
991,398;32,51
991,607;33,87
991,816;34,9
992,025;34,99
992,235;35,7
992,444;36,57
992,653;36,23
992,862;36,62
993,071;36,8
993,28;36,44
993,489;37,12
993,698;37,15
993,908;37,23
994,117;37,66
994,326;38,64
994,534;38,53
994,743;37,76
994,952;35,95
995,161;36,13
995,37;41,28
995,579;42,6
995,788;42,95
995,997;41,86
996,205;40,71
996,414;41,59
996,623;40,95
996,832;40,08
997,04;40,64
997,249;41,36
997,458;42
997,666;43,63
997,875;44,39
998,084;44,53
998,292;45,11
998,501;45,05
998,709;44,24
998,918;44,46
999,126;43,92
999,335;45,95
999,543;46,47
999,752;40,66
999,96;39,88
1000,169;40,37
1000,377;40,97
1000,585;43,06
1000,794;41,92
1001,002;42,69
1001,21;43,15
1001,418;43,41
1001,627;43,21
1001,835;45,06
1002,043;45,38
1002,251;45,55
1002,459;47,52
1002,668;47,48
1002,876;48,14
1003,084;48,74
1003,292;48,21
1003,5;49,78
1003,708;51,14
1003,916;51,62
1004,124;52,23
1004,332;53,09
1004,54;53,38
1004,748;53,98
1004,956;52,32
1005,163;52,46
1005,371;53,29
1005,579;53,18
1005,787;52,28
1005,995;52,99
1006,202;51,78
1006,41;51,46
1006,618;50,81
1006,826;50,07
1007,033;50,87
1007,241;51,37
1007,449;51,34
1007,656;52,61
1007,864;51,83
1008,071;50,38
1008,279;49,98
1008,486;50,8
1008,694;48,9
1008,901;47,94
1009,109;47,89
1009,316;49,42
1009,524;51,03
1009,731;50,18
1009,938;50,65
1010,146;52,13
1010,353;53,4
1010,56;52,37
1010,768;53,11
1010,975;53,83
1011,182;52,84
1011,389;51,71
1011,597;49,6
1011,804;49,73
1012,011;50,73
1012,218;53,66
1012,425;53,9
1012,632;56,18
1012,839;55,7
1013,046;56,91
1013,253;57,81
1013,46;58,4
1013,667;58,29
1013,874;56,46
1014,081;55,96
1014,288;56,91
1014,495;57,98
1014,702;56,9
1014,909;58,52
1015,116;57,93
1015,323;58,86
1015,529;59,08
1015,736;59,77
1015,943;62,53
1016,15;63,64
1016,356;63,53
1016,563;60,52
1016,77;60,2
1016,976;58,29
1017,183;59,8
1017,389;60,15
1017,596;62,05
1017,803;61,91
1018,009;61,96
1018,216;64,47
1018,422;68,47
1018,629;68,03
1018,835;67,99
1019,041;68,15
1019,248;67,77
1019,454;68,92
1019,661;70,71
1019,867;70,99
1020,073;72,27
1020,279;71,44
1020,486;71,58
1020,692;70,53
1020,898;71,65
1021,104;70,97
1021,311;71,65
1021,517;69,97
1021,723;71,64
1021,929;70,68
1022,135;71,81
1022,341;73,22
1022,547;72,14
1022,753;70,83
1022,959;73,43
1023,165;72,13
1023,371;71,47
1023,577;69,72
1023,783;68,75
1023,989;63,54
1024,195;67,51
1024,401;69,9
1024,607;70,99
1024,812;70,46
1025,018;72,22
1025,224;74,45
1025,43;75,28
1025,635;76,28
1025,841;79,56
1026,047;79
1026,252;81,95
1026,458;81,99
1026,664;81,16
1026,869;82,34
1027,075;82,47
1027,28;81,81
1027,486;84,47
1027,691;88,91
1027,897;90,85
1028,102;91,12
1028,308;92,93
1028,513;91,44
1028,719;89,56
1028,924;89,48
1029,129;89,52
1029,335;90,71
1029,54;87,9
1029,745;88,2
1029,95;91,17
1030,156;88
1030,361;89,41
1030,566;87,05
1030,771;86,64
1030,976;87,82
1031,182;87,2
1031,387;84,95
1031,592;86,72
1031,797;87,84
1032,002;84,85
1032,207;86,77
1032,412;87,69
1032,617;90,6
1032,822;88,2
1033,027;89,79
1033,232;92,11
1033,437;94,69
1033,642;94,58
1033,846;96,97
1034,051;96,56
1034,256;92,69
1034,461;94,39
1034,666;92,8
1034,87;94,35
1035,075;94,08
1035,28;93,56
1035,484;96,6
1035,689;98,67
1035,894;96,48
1036,098;95,31
1036,303;97,82
1036,507;97,07
1036,712;100,49
1036,917;101,62
1037,121;102,35
1037,325;98,61
1037,53;99,48
1037,734;99,35
1037,939;99,1
1038,143;104,06
1038,348;108,64
1038,552;112,32
1038,756;111,24
1038,961;113,92
1039,165;111,49
1039,369;114,73
1039,573;113,86
1039,778;114,97
1039,982;116,67
1040,186;122,05
1040,39;124,76
1040,594;123,09
1040,798;126,02
1041,002;120,2
1041,206;121,15
1041,41;128,51
1041,614;133,1
1041,818;129,9
1042,022;127,66
1042,226;128,28
1042,43;124,95
1042,634;130,66
1042,838;131,78
1043,042;135,8
1043,246;134,8
1043,45;140,01
1043,653;137,9
1043,857;142,21
1044,061;143,47
1044,265;142,34
1044,468;140,17
1044,672;141,75
1044,876;148,19
1045,079;147,04
1045,283;150,91
1045,487;146,49
1045,69;145,99
1045,894;151,09
1046,097;155,44
1046,301;154,7
1046,504;155,61
1046,708;158,3
1046,911;149,91
1047,115;148,64
1047,318;149,42
1047,522;153,99
1047,725;150,76
1047,928;149,84
1048,132;152,99
1048,335;151,7
1048,538;154
1048,741;157,35
1048,945;155,61
1049,148;154,12
1049,351;155,85
1049,554;163,16
1049,757;165,34
1049,96;165,18
1050,163;158,85
1050,367;157,42
1050,57;165,28
1050,773;163,47
1050,976;162,12
1051,179;170,46
1051,382;174,64
1051,585;177,49
1051,787;181,46
1051,99;183,02
1052,193;188,47
1052,396;192,54
1052,599;190,92
1052,802;186,37
1053,005;181,77
1053,207;187,51
1053,41;182,5
1053,613;189,26
1053,815;182,05
1054,018;181,05
1054,221;184,08
1054,423;187
1054,626;187,61
1054,829;187,78
1055,031;195,82
1055,234;199,4
1055,436;189,91
1055,639;184,32
1055,841;179,19
1056,044;172,91
1056,246;176,12
