Data from neroAvorioWhite_Reflection__2__17.txt Node;
"Date: Fri Sep 12 10:50:57 CEST 2025 User: sycur Spectrometer: SR400348 Trigger mode: 0 Integration Time (sec): 1,000000E-1 Scans to average: 20 Electric dark correction enabled: true Nonlinearity correction enabled: false Boxcar width: 10 XAxis mode: Wavelengths Number of Pixels in Spectrum: 3648 >>>>>Begin Spectral Data<<<<<";
186,01;-7074,66
186,281;-26705,88
186,552;511,32
186,822;262,53
187,093;100
187,364;-258,64
187,635;61526,6
187,905;422,41
188,176;168,66
188,447;131,37
188,717;104,81
188,988;126,23
189,258;132,78
189,529;151,75
189,8;149,75
190,07;133,03
190,341;125,73
190,611;108,85
190,882;101,23
191,152;95,3
191,423;88,83
191,693;84,63
191,964;84,69
192,234;80,2
192,505;73,47
192,775;73,79
193,045;69,64
193,316;66,2
193,586;63,92
193,856;65,17
194,127;63,34
194,397;62,59
194,667;59,3
194,938;59,3
195,208;55,9
195,478;54,99
195,748;52,58
196,019;51,4
196,289;50,97
196,559;50,11
196,829;49,02
197,099;47,81
197,37;46,02
197,64;44,08
197,91;42,92
198,18;42,44
198,45;40,28
198,72;40,04
198,99;38,31
199,26;37,92
199,53;37,23
199,8;37,32
200,07;36,71
200,34;36,39
200,61;35,35
200,88;35,27
201,15;34,58
201,42;34,85
201,69;34,1
201,96;33,98
202,23;33,6
202,499;32,19
202,769;32,2
203,039;31,63
203,309;30,56
203,579;30,35
203,849;30,29
204,118;29,74
204,388;28,69
204,658;28,24
204,927;27,83
205,197;27,26
205,467;26,2
205,736;26,01
206,006;25,44
206,276;25,01
206,545;23,85
206,815;23,8
207,085;23,37
207,354;23,09
207,624;22,8
207,893;21,97
208,163;21,8
208,432;21,27
208,702;21,13
208,971;20,85
209,241;20,33
209,51;19,81
209,78;19,61
210,049;19,53
210,318;19,3
210,588;19,15
210,857;18,7
211,127;18,79
211,396;18,37
211,665;18,11
211,935;17,98
212,204;18,23
212,473;17,71
212,742;17,45
213,012;17,4
213,281;17,04
213,55;17
213,819;16,82
214,088;16,66
214,358;16,33
214,627;16,21
214,896;16,09
215,165;15,69
215,434;15,28
215,703;15,06
215,972;15,03
216,241;14,62
216,51;14,42
216,779;14,01
217,048;13,94
217,317;13,81
217,586;13,62
217,855;13,3
218,124;13,34
218,393;13,29
218,662;12,99
218,931;12,85
219,2;12,61
219,469;12,51
219,738;12,38
220,006;12,36
220,275;12,37
220,544;12,32
220,813;12,4
221,082;12,37
221,35;12,3
221,619;12,2
221,888;12,22
222,157;12,23
222,425;12,29
222,694;12,1
222,963;12,03
223,231;11,92
223,5;11,89
223,769;11,75
224,037;11,69
224,306;11,64
224,574;11,58
224,843;11,59
225,111;11,64
225,38;11,59
225,648;11,56
225,917;11,4
226,185;11,63
226,454;11,54
226,722;11,56
226,991;11,59
227,259;11,55
227,528;11,51
227,796;11,52
228,064;11,44
228,333;11,5
228,601;11,55
228,869;11,53
229,138;11,5
229,406;11,51
229,674;11,47
229,942;11,53
230,211;11,54
230,479;11,57
230,747;11,52
231,015;11,52
231,283;11,52
231,552;11,58
231,82;11,37
232,088;11,38
232,356;11,39
232,624;11,36
232,892;11,36
233,16;11,32
233,428;11,27
233,696;11,27
233,964;11,24
234,232;11,26
234,5;11,27
234,768;11,28
235,036;11,27
235,304;11,28
235,572;11,2
235,84;11,21
236,108;11,19
236,376;11,24
236,644;11,29
236,912;11,26
237,179;11,23
237,447;11,23
237,715;11,24
237,983;11,24
238,251;11,18
238,518;11,2
238,786;11,19
239,054;11,19
239,322;11,18
239,589;11,24
239,857;11,2
240,125;11,22
240,392;11,17
240,66;11,18
240,927;11,15
241,195;11,17
241,463;11,15
241,73;11,18
241,998;11,1
242,265;11,04
242,533;11,04
242,8;11,07
243,068;11,06
243,335;11,05
243,603;11,01
243,87;11,06
244,138;11,03
244,405;11,05
244,672;11,02
244,94;11,04
245,207;10,97
245,474;10,97
245,742;10,94
246,009;10,97
246,276;10,95
246,544;10,95
246,811;10,98
247,078;11
247,345;10,97
247,613;10,98
247,88;10,96
248,147;10,95
248,414;10,9
248,681;10,9
248,948;10,9
249,215;10,89
249,483;10,84
249,75;10,81
250,017;10,8
250,284;10,82
250,551;10,8
250,818;10,79
251,085;10,76
251,352;10,76
251,619;10,76
251,886;10,74
252,153;10,74
252,42;10,69
252,687;10,67
252,953;10,65
253,22;10,64
253,487;10,69
253,754;10,67
254,021;10,65
254,288;10,63
254,555;10,63
254,821;10,64
255,088;10,67
255,355;10,69
255,622;10,68
255,888;10,65
256,155;10,66
256,422;10,64
256,688;10,64
256,955;10,61
257,222;10,61
257,488;10,58
257,755;10,59
258,022;10,57
258,288;10,55
258,555;10,52
258,821;10,52
259,088;10,49
259,354;10,47
259,621;10,49
259,887;10,5
260,154;10,43
260,42;10,39
260,687;10,37
260,953;10,34
261,219;10,31
261,486;10,29
261,752;10,26
262,019;10,27
262,285;10,24
262,551;10,22
262,818;10,23
263,084;10,21
263,35;10,2
263,616;10,19
263,883;10,18
264,149;10,18
264,415;10,15
264,681;10,18
264,947;10,16
265,214;10,14
265,48;10,16
265,746;10,18
266,012;10,19
266,278;10,17
266,544;10,17
266,81;10,2
267,076;10,18
267,342;10,19
267,608;10,16
267,874;10,18
268,14;10,18
268,406;10,15
268,672;10,16
268,938;10,16
269,204;10,13
269,47;10,12
269,736;10,11
270,002;10,12
270,268;10,07
270,533;10,07
270,799;10,03
271,065;10
271,331;9,98
271,597;9,98
271,862;9,97
272,128;9,97
272,394;9,94
272,66;9,95
272,925;9,95
273,191;9,94
273,457;9,92
273,722;9,92
273,988;9,93
274,254;9,91
274,519;9,91
274,785;9,92
275,05;9,92
275,316;9,93
275,582;9,94
275,847;9,92
276,113;9,91
276,378;9,91
276,644;9,92
276,909;9,92
277,174;9,91
277,44;9,93
277,705;9,92
277,971;9,93
278,236;9,94
278,501;9,93
278,767;9,92
279,032;9,91
279,297;9,87
279,563;9,86
279,828;9,9
280,093;9,88
280,358;9,86
280,624;9,87
280,889;9,85
281,154;9,84
281,419;9,83
281,684;9,81
281,95;9,86
282,215;9,83
282,48;9,83
282,745;9,84
283,01;9,8
283,275;9,8
283,54;9,76
283,805;9,73
284,07;9,73
284,335;9,74
284,6;9,73
284,865;9,75
285,13;9,75
285,395;9,71
285,66;9,71
285,925;9,74
286,19;9,74
286,455;9,73
286,72;9,74
286,985;9,76
287,249;9,79
287,514;9,78
287,779;9,77
288,044;9,77
288,309;9,77
288,573;9,77
288,838;9,76
289,103;9,77
289,367;9,77
289,632;9,75
289,897;9,77
290,161;9,78
290,426;9,76
290,691;9,77
290,955;9,75
291,22;9,74
291,484;9,71
291,749;9,7
292,014;9,7
292,278;9,67
292,543;9,65
292,807;9,63
293,072;9,63
293,336;9,63
293,6;9,61
293,865;9,6
294,129;9,59
294,394;9,59
294,658;9,6
294,922;9,58
295,187;9,59
295,451;9,58
295,715;9,59
295,98;9,61
296,244;9,59
296,508;9,59
296,773;9,59
297,037;9,57
297,301;9,56
297,565;9,57
297,829;9,56
298,094;9,56
298,358;9,57
298,622;9,55
298,886;9,52
299,15;9,53
299,414;9,53
299,678;9,56
299,942;9,54
300,206;9,5
300,47;9,5
300,734;9,49
300,998;9,46
301,262;9,44
301,526;9,42
301,79;9,4
302,054;9,38
302,318;9,37
302,582;9,37
302,846;9,36
303,11;9,35
303,374;9,35
303,637;9,34
303,901;9,34
304,165;9,33
304,429;9,36
304,693;9,32
304,956;9,32
305,22;9,29
305,484;9,27
305,747;9,28
306,011;9,27
306,275;9,23
306,538;9,24
306,802;9,24
307,066;9,24
307,329;9,24
307,593;9,24
307,856;9,23
308,12;9,22
308,384;9,22
308,647;9,2
308,911;9,2
309,174;9,18
309,438;9,13
309,701;9,11
309,964;9,1
310,228;9,1
310,491;9,07
310,755;9,06
311,018;9,11
311,281;9,11
311,545;9,09
311,808;9,1
312,071;9,07
312,335;9,02
312,598;9,01
312,861;9,01
313,124;8,97
313,388;8,96
313,651;8,97
313,914;8,93
314,177;8,92
314,44;8,9
314,704;8,92
314,967;8,92
315,23;8,91
315,493;8,88
315,756;8,88
316,019;8,87
316,282;8,88
316,545;8,84
316,808;8,84
317,071;8,87
317,334;8,88
317,597;8,88
317,86;8,87
318,123;8,85
318,386;8,89
318,649;8,9
318,912;8,89
319,175;8,84
319,437;8,85
319,7;8,86
319,963;8,84
320,226;8,8
320,489;8,79
320,751;8,77
321,014;8,77
321,277;8,75
321,54;8,74
321,802;8,71
322,065;8,69
322,328;8,64
322,59;8,6
322,853;8,58
323,116;8,57
323,378;8,58
323,641;8,59
323,903;8,56
324,166;8,55
324,428;8,53
324,691;8,52
324,953;8,51
325,216;8,49
325,478;8,5
325,741;8,5
326,003;8,5
326,266;8,46
326,528;8,45
326,791;8,46
327,053;8,46
327,315;8,44
327,578;8,45
327,84;8,44
328,102;8,43
328,365;8,42
328,627;8,43
328,889;8,38
329,151;8,37
329,414;8,37
329,676;8,35
329,938;8,33
330,2;8,31
330,462;8,31
330,725;8,3
330,987;8,28
331,249;8,25
331,511;8,24
331,773;8,25
332,035;8,28
332,297;8,28
332,559;8,28
332,821;8,25
333,083;8,2
333,345;8,21
333,607;8,2
333,869;8,19
334,131;8,14
334,393;8,18
334,655;8,15
334,917;8,12
335,179;8,11
335,44;8,13
335,702;8,14
335,964;8,15
336,226;8,13
336,488;8,15
336,749;8,16
337,011;8,16
337,273;8,17
337,535;8,15
337,796;8,09
338,058;8,09
338,32;8,1
338,581;8,08
338,843;8,08
339,105;8,09
339,366;8,07
339,628;8,1
339,889;8,09
340,151;8,09
340,412;8,06
340,674;8,07
340,935;8,06
341,197;8,08
341,458;8,06
341,72;8,07
341,981;8,08
342,243;8,08
342,504;8,07
342,766;8,08
343,027;8,08
343,288;8,08
343,55;8,06
343,811;8,05
344,072;8,06
344,334;8,07
344,595;8,07
344,856;8,05
345,117;8,02
345,379;8,04
345,64;8,03
345,901;8,03
346,162;8,01
346,423;7,99
346,684;7,93
346,946;7,91
347,207;7,88
347,468;7,85
347,729;7,8
347,99;7,79
348,251;7,74
348,512;7,69
348,773;7,7
349,034;7,71
349,295;7,72
349,556;7,69
349,817;7,66
350,078;7,63
350,339;7,68
350,6;7,68
350,86;7,65
351,121;7,67
351,382;7,65
351,643;7,65
351,904;7,66
352,165;7,7
352,425;7,7
352,686;7,71
352,947;7,68
353,208;7,72
353,468;7,78
353,729;7,8
353,99;7,79
354,25;7,8
354,511;7,77
354,772;7,74
355,032;7,8
355,293;7,79
355,553;7,82
355,814;7,74
356,074;7,74
356,335;7,7
356,596;7,67
356,856;7,71
357,116;7,71
357,377;7,74
357,637;7,72
357,898;7,73
358,158;7,74
358,419;7,73
358,679;7,7
358,939;7,64
359,2;7,62
359,46;7,67
359,72;7,63
359,981;7,65
360,241;7,61
360,501;7,57
360,761;7,62
361,022;7,59
361,282;7,67
361,542;7,66
361,802;7,69
362,062;7,7
362,323;7,63
362,583;7,67
362,843;7,64
363,103;7,63
363,363;7,57
363,623;7,59
363,883;7,64
364,143;7,64
364,403;7,62
364,663;7,65
364,923;7,61
365,183;7,64
365,443;7,67
365,703;7,67
365,963;7,65
366,223;7,6
366,483;7,61
366,743;7,55
367,002;7,56
367,262;7,59
367,522;7,56
367,782;7,57
368,042;7,51
368,301;7,52
368,561;7,51
368,821;7,51
369,081;7,44
369,34;7,37
369,6;7,33
369,86;7,39
370,119;7,33
370,379;7,32
370,638;7,28
370,898;7,23
371,158;7,22
371,417;7,23
371,677;7,24
371,936;7,23
372,196;7,25
372,455;7,22
372,715;7,21
372,974;7,22
373,234;7,21
373,493;7,26
373,753;7,23
374,012;7,26
374,271;7,28
374,531;7,33
374,79;7,37
375,049;7,39
375,309;7,36
375,568;7,35
375,827;7,35
376,086;7,35
376,346;7,38
376,605;7,44
376,864;7,45
377,123;7,44
377,383;7,46
377,642;7,45
377,901;7,47
378,16;7,45
378,419;7,41
378,678;7,41
378,937;7,37
379,196;7,35
379,455;7,34
379,714;7,34
379,973;7,31
380,232;7,29
380,491;7,31
380,75;7,31
381,009;7,31
381,268;7,36
381,527;7,35
381,786;7,34
382,045;7,28
382,304;7,3
382,563;7,29
382,821;7,3
383,08;7,28
383,339;7,29
383,598;7,28
383,857;7,3
384,115;7,3
384,374;7,33
384,633;7,36
384,891;7,39
385,15;7,37
385,409;7,38
385,667;7,4
385,926;7,35
386,185;7,29
386,443;7,31
386,702;7,25
386,96;7,28
387,219;7,28
387,477;7,29
387,736;7,27
387,994;7,29
388,253;7,26
388,511;7,26
388,77;7,26
389,028;7,26
389,287;7,31
389,545;7,29
389,803;7,23
390,062;7,22
390,32;7,22
390,578;7,2
390,837;7,22
391,095;7,2
391,353;7,25
391,612;7,25
391,87;7,25
392,128;7,28
392,386;7,26
392,644;7,27
392,903;7,28
393,161;7,24
393,419;7,23
393,677;7,24
393,935;7,2
394,193;7,17
394,451;7,2
394,709;7,13
394,967;7,2
395,225;7,2
395,483;7,18
395,741;7,17
395,999;7,22
396,257;7,22
396,515;7,22
396,773;7,24
397,031;7,27
397,289;7,3
397,547;7,29
397,805;7,28
398,062;7,28
398,32;7,27
398,578;7,3
398,836;7,3
399,094;7,31
399,351;7,34
399,609;7,35
399,867;7,3
400,124;7,33
400,382;7,31
400,64;7,37
400,897;7,44
401,155;7,39
401,413;7,41
401,67;7,38
401,928;7,42
402,185;7,36
402,443;7,35
402,701;7,32
402,958;7,32
403,216;7,37
403,473;7,35
403,73;7,36
403,988;7,36
404,245;7,41
404,503;7,44
404,76;7,48
405,018;7,47
405,275;7,49
405,532;7,47
405,79;7,42
406,047;7,37
406,304;7,33
406,561;7,37
406,819;7,36
407,076;7,4
407,333;7,34
407,59;7,36
407,848;7,35
408,105;7,38
408,362;7,37
408,619;7,36
408,876;7,35
409,133;7,33
409,39;7,34
409,647;7,28
409,904;7,27
410,161;7,21
410,418;7,26
410,675;7,24
410,932;7,24
411,189;7,23
411,446;7,3
411,703;7,29
411,96;7,27
412,217;7,26
412,474;7,27
412,731;7,3
412,988;7,31
413,245;7,36
413,501;7,3
413,758;7,31
414,015;7,3
414,272;7,3
414,529;7,32
414,785;7,33
415,042;7,35
415,299;7,29
415,555;7,29
415,812;7,26
416,069;7,33
416,325;7,35
416,582;7,35
416,838;7,33
417,095;7,32
417,352;7,25
417,608;7,28
417,865;7,21
418,121;7,24
418,378;7,22
418,634;7,21
418,891;7,26
419,147;7,28
419,403;7,26
419,66;7,3
419,916;7,3
420,173;7,3
420,429;7,28
420,685;7,34
420,942;7,39
421,198;7,38
421,454;7,36
421,711;7,39
421,967;7,4
422,223;7,37
422,479;7,44
422,735;7,5
422,992;7,44
423,248;7,46
423,504;7,47
423,76;7,51
424,016;7,54
424,272;7,55
424,528;7,56
424,784;7,6
425,041;7,53
425,297;7,54
425,553;7,53
425,809;7,59
426,065;7,55
426,32;7,52
426,576;7,52
426,832;7,5
427,088;7,45
427,344;7,45
427,6;7,47
427,856;7,4
428,112;7,43
428,368;7,48
428,623;7,48
428,879;7,44
429,135;7,39
429,391;7,34
429,646;7,31
429,902;7,26
430,158;7,25
430,414;7,26
430,669;7,26
430,925;7,25
431,181;7,23
431,436;7,25
431,692;7,26
431,947;7,27
432,203;7,26
432,458;7,31
432,714;7,25
432,97;7,25
433,225;7,23
433,481;7,22
433,736;7,2
433,991;7,2
434,247;7,18
434,502;7,16
434,758;7,16
435,013;7,22
435,268;7,25
435,524;7,24
435,779;7,27
436,034;7,27
436,29;7,28
436,545;7,26
436,8;7,28
437,056;7,22
437,311;7,2
437,566;7,19
437,821;7,22
438,076;7,21
438,331;7,24
438,587;7,25
438,842;7,23
439,097;7,23
439,352;7,24
439,607;7,28
439,862;7,33
440,117;7,37
440,372;7,33
440,627;7,34
440,882;7,35
441,137;7,32
441,392;7,33
441,647;7,34
441,902;7,36
442,157;7,31
442,412;7,38
442,667;7,38
442,921;7,42
443,176;7,4
443,431;7,46
443,686;7,44
443,941;7,43
444,195;7,44
444,45;7,44
444,705;7,45
444,96;7,43
445,214;7,4
445,469;7,4
445,724;7,37
445,978;7,33
446,233;7,31
446,487;7,33
446,742;7,31
446,997;7,28
447,251;7,26
447,506;7,32
447,76;7,28
448,015;7,29
448,269;7,28
448,524;7,25
448,778;7,25
449,033;7,24
449,287;7,27
449,541;7,31
449,796;7,28
450,05;7,22
450,305;7,19
450,559;7,17
450,813;7,14
451,067;7,14
451,322;7,13
451,576;7,15
451,83;7,16
452,084;7,18
452,339;7,17
452,593;7,14
452,847;7,06
453,101;7,06
453,355;7,09
453,609;7,09
453,864;7,07
454,118;7
454,372;7,04
454,626;7,05
454,88;7,03
455,134;7,03
455,388;7,09
455,642;7,1
455,896;7,1
456,15;7,08
456,404;7,13
456,658;7,15
456,912;7,14
457,165;7,12
457,419;7,1
457,673;7,12
457,927;7,16
458,181;7,19
458,435;7,22
458,688;7,19
458,942;7,21
459,196;7,21
459,45;7,25
459,703;7,21
459,957;7,18
460,211;7,16
460,464;7,2
460,718;7,18
460,972;7,24
461,225;7,23
461,479;7,25
461,732;7,25
461,986;7,3
462,239;7,28
462,493;7,3
462,746;7,37
463;7,34
463,253;7,34
463,507;7,34
463,76;7,29
464,014;7,32
464,267;7,29
464,52;7,32
464,774;7,33
465,027;7,36
465,28;7,39
465,534;7,38
465,787;7,36
466,04;7,39
466,294;7,35
466,547;7,38
466,8;7,42
467,053;7,39
467,306;7,35
467,56;7,35
467,813;7,34
468,066;7,3
468,319;7,33
468,572;7,31
468,825;7,36
469,078;7,37
469,331;7,39
469,584;7,38
469,837;7,4
470,09;7,38
470,343;7,38
470,596;7,38
470,849;7,4
471,102;7,45
471,355;7,41
471,608;7,44
471,861;7,47
472,114;7,42
472,367;7,4
472,619;7,4
472,872;7,4
473,125;7,4
473,378;7,38
473,631;7,39
473,883;7,42
474,136;7,42
474,389;7,42
474,641;7,37
474,894;7,37
475,147;7,37
475,399;7,36
475,652;7,37
475,905;7,37
476,157;7,35
476,41;7,31
476,662;7,34
476,915;7,32
477,167;7,3
477,42;7,33
477,672;7,36
477,925;7,37
478,177;7,37
478,43;7,41
478,682;7,43
478,934;7,45
479,187;7,46
479,439;7,47
479,691;7,5
479,944;7,58
480,196;7,62
480,448;7,64
480,701;7,67
480,953;7,69
481,205;7,71
481,457;7,73
481,709;7,76
481,962;7,78
482,214;7,85
482,466;7,9
482,718;7,95
482,97;8,04
483,222;8,1
483,474;8,19
483,726;8,23
483,978;8,27
484,23;8,3
484,482;8,32
484,734;8,33
484,986;8,33
485,238;8,29
485,49;8,31
485,742;8,32
485,994;8,33
486,246;8,33
486,498;8,33
486,75;8,34
487,001;8,35
487,253;8,34
487,505;8,33
487,757;8,33
488,009;8,32
488,26;8,26
488,512;8,22
488,764;8,17
489,015;8,13
489,267;8,09
489,519;8,05
489,77;8,02
490,022;8,02
490,274;7,99
490,525;8,01
490,777;7,99
491,028;7,99
491,28;7,97
491,531;7,93
491,783;7,93
492,034;7,96
492,286;7,93
492,537;7,92
492,789;7,89
493,04;7,87
493,291;7,83
493,543;7,85
493,794;7,86
494,045;7,86
494,297;7,86
494,548;7,87
494,799;7,87
495,051;7,88
495,302;7,84
495,553;7,88
495,804;7,86
496,056;7,87
496,307;7,86
496,558;7,87
496,809;7,9
497,06;7,91
497,311;7,9
497,562;7,94
497,813;8
498,064;8,01
498,316;8,02
498,567;8,03
498,818;8,06
499,069;8,06
499,319;8,07
499,57;8,07
499,821;8,07
500,072;8,09
500,323;8,1
500,574;8,12
500,825;8,11
501,076;8,11
501,327;8,14
501,577;8,14
501,828;8,13
502,079;8,13
502,33;8,12
502,58;8,13
502,831;8,1
503,082;8,06
503,333;8,06
503,583;8,08
503,834;8,09
504,084;8,11
504,335;8,11
504,586;8,11
504,836;8,1
505,087;8,1
505,337;8,08
505,588;8,06
505,838;8,08
506,089;8,12
506,339;8,15
506,59;8,15
506,84;8,15
507,091;8,17
507,341;8,17
507,591;8,18
507,842;8,15
508,092;8,19
508,343;8,2
508,593;8,21
508,843;8,21
509,093;8,22
509,344;8,16
509,594;8,17
509,844;8,15
510,094;8,16
510,345;8,16
510,595;8,17
510,845;8,19
511,095;8,17
511,345;8,17
511,595;8,13
511,845;8,14
512,095;8,15
512,345;8,17
512,595;8,19
512,845;8,19
513,095;8,22
513,345;8,2
513,595;8,2
513,845;8,19
514,095;8,18
514,345;8,14
514,595;8,19
514,845;8,17
515,095;8,19
515,345;8,17
515,594;8,2
515,844;8,2
516,094;8,21
516,344;8,2
516,593;8,18
516,843;8,17
517,093;8,17
517,343;8,15
517,592;8,14
517,842;8,13
518,092;8,14
518,341;8,11
518,591;8,14
518,84;8,15
519,09;8,18
519,34;8,2
519,589;8,24
519,839;8,21
520,088;8,25
520,338;8,24
520,587;8,26
520,836;8,22
521,086;8,22
521,335;8,2
521,585;8,2
521,834;8,22
522,083;8,25
522,333;8,25
522,582;8,27
522,831;8,29
523,081;8,3
523,33;8,29
523,579;8,31
523,828;8,3
524,078;8,3
524,327;8,27
524,576;8,28
524,825;8,28
525,074;8,29
525,323;8,26
525,573;8,27
525,822;8,26
526,071;8,28
526,32;8,28
526,569;8,3
526,818;8,31
527,067;8,31
527,316;8,31
527,565;8,31
527,814;8,29
528,063;8,26
528,312;8,26
528,56;8,27
528,809;8,26
529,058;8,26
529,307;8,25
529,556;8,27
529,805;8,25
530,053;8,25
530,302;8,26
530,551;8,27
530,8;8,25
531,048;8,28
531,297;8,29
531,546;8,3
531,794;8,31
532,043;8,32
532,292;8,31
532,54;8,32
532,789;8,32
533,037;8,36
533,286;8,37
533,535;8,39
533,783;8,38
534,032;8,39
534,28;8,39
534,528;8,42
534,777;8,45
535,025;8,46
535,274;8,46
535,522;8,45
535,771;8,46
536,019;8,49
536,267;8,48
536,516;8,48
536,764;8,51
537,012;8,51
537,26;8,5
537,509;8,51
537,757;8,5
538,005;8,52
538,253;8,52
538,501;8,53
538,75;8,51
538,998;8,54
539,246;8,56
539,494;8,6
539,742;8,59
539,99;8,57
540,238;8,57
540,486;8,58
540,734;8,58
540,982;8,59
541,23;8,6
541,478;8,6
541,726;8,6
541,974;8,59
542,222;8,59
542,47;8,62
542,718;8,64
542,966;8,66
543,213;8,65
543,461;8,65
543,709;8,65
543,957;8,68
544,205;8,69
544,452;8,67
544,7;8,65
544,948;8,64
545,196;8,63
545,443;8,64
545,691;8,63
545,939;8,67
546,186;8,65
546,434;8,65
546,681;8,64
546,929;8,64
547,176;8,63
547,424;8,63
547,671;8,61
547,919;8,6
548,166;8,61
548,414;8,62
548,661;8,61
548,909;8,6
549,156;8,6
549,404;8,59
549,651;8,59
549,898;8,61
550,146;8,62
550,393;8,65
550,64;8,66
550,888;8,69
551,135;8,69
551,382;8,7
551,629;8,72
551,876;8,75
552,124;8,77
552,371;8,79
552,618;8,79
552,865;8,81
553,112;8,82
553,359;8,81
553,606;8,82
553,854;8,83
554,101;8,83
554,348;8,83
554,595;8,8
554,842;8,8
555,089;8,77
555,336;8,77
555,582;8,76
555,829;8,76
556,076;8,76
556,323;8,75
556,57;8,77
556,817;8,76
557,064;8,74
557,311;8,74
557,557;8,72
557,804;8,71
558,051;8,7
558,298;8,7
558,544;8,69
558,791;8,68
559,038;8,66
559,284;8,68
559,531;8,68
559,778;8,7
560,024;8,72
560,271;8,74
560,517;8,75
560,764;8,77
561,011;8,77
561,257;8,76
561,504;8,77
561,75;8,77
561,997;8,77
562,243;8,79
562,489;8,8
562,736;8,82
562,982;8,84
563,229;8,84
563,475;8,84
563,721;8,85
563,968;8,85
564,214;8,87
564,46;8,87
564,707;8,87
564,953;8,87
565,199;8,87
565,445;8,88
565,691;8,9
565,938;8,88
566,184;8,89
566,43;8,91
566,676;8,93
566,922;8,93
567,168;8,95
567,414;8,96
567,66;8,98
567,906;8,99
568,152;9,02
568,398;9,05
568,644;9,09
568,89;9,1
569,136;9,14
569,382;9,17
569,628;9,19
569,874;9,21
570,12;9,26
570,366;9,29
570,612;9,31
570,857;9,32
571,103;9,36
571,349;9,38
571,595;9,41
571,84;9,43
572,086;9,47
572,332;9,49
572,578;9,52
572,823;9,53
573,069;9,55
573,315;9,57
573,56;9,59
573,806;9,6
574,051;9,64
574,297;9,65
574,542;9,66
574,788;9,68
575,034;9,7
575,279;9,71
575,524;9,74
575,77;9,75
576,015;9,78
576,261;9,79
576,506;9,8
576,752;9,79
576,997;9,79
577,242;9,78
577,488;9,79
577,733;9,77
577,978;9,78
578,223;9,79
578,469;9,8
578,714;9,8
578,959;9,81
579,204;9,81
579,45;9,83
579,695;9,83
579,94;9,84
580,185;9,84
580,43;9,84
580,675;9,83
580,92;9,83
581,165;9,82
581,41;9,82
581,655;9,82
581,9;9,83
582,145;9,83
582,39;9,85
582,635;9,85
582,88;9,86
583,125;9,85
583,37;9,85
583,615;9,83
583,86;9,84
584,105;9,8
584,349;9,81
584,594;9,79
584,839;9,78
585,084;9,76
585,328;9,76
585,573;9,75
585,818;9,74
586,063;9,72
586,307;9,71
586,552;9,69
586,797;9,69
587,041;9,67
587,286;9,65
587,53;9,62
587,775;9,6
588,019;9,58
588,264;9,57
588,508;9,55
588,753;9,55
588,997;9,53
589,242;9,54
589,486;9,5
589,731;9,5
589,975;9,48
590,22;9,48
590,464;9,47
590,708;9,49
590,953;9,49
591,197;9,48
591,441;9,49
591,685;9,47
591,93;9,46
592,174;9,46
592,418;9,46
592,662;9,47
592,907;9,47
593,151;9,5
593,395;9,49
593,639;9,49
593,883;9,49
594,127;9,5
594,371;9,49
594,615;9,48
594,859;9,46
595,103;9,47
595,347;9,46
595,591;9,45
595,835;9,42
596,079;9,41
596,323;9,4
596,567;9,41
596,811;9,4
597,055;9,42
597,299;9,4
597,542;9,42
597,786;9,4
598,03;9,41
598,274;9,37
598,518;9,39
598,761;9,4
599,005;9,39
599,249;9,37
599,492;9,37
599,736;9,37
599,98;9,4
600,223;9,38
600,467;9,38
600,711;9,37
600,954;9,38
601,198;9,39
601,441;9,39
601,685;9,39
601,928;9,42
602,172;9,4
602,415;9,41
602,659;9,4
602,902;9,41
603,145;9,4
603,389;9,42
603,632;9,4
603,876;9,4
604,119;9,39
604,362;9,39
604,606;9,39
604,849;9,39
605,092;9,37
605,335;9,37
605,579;9,37
605,822;9,37
606,065;9,36
606,308;9,35
606,551;9,35
606,794;9,35
607,037;9,32
607,281;9,32
607,524;9,35
607,767;9,35
608,01;9,33
608,253;9,33
608,496;9,31
608,739;9,32
608,982;9,3
609,225;9,3
609,468;9,3
609,711;9,3
609,953;9,3
610,196;9,31
610,439;9,32
610,682;9,32
610,925;9,3
611,168;9,3
611,41;9,28
611,653;9,3
611,896;9,28
612,139;9,3
612,381;9,3
612,624;9,25
612,867;9,23
613,109;9,24
613,352;9,23
613,595;9,24
613,837;9,23
614,08;9,22
614,322;9,22
614,565;9,23
614,807;9,22
615,05;9,21
615,292;9,2
615,535;9,2
615,777;9,19
616,02;9,21
616,262;9,22
616,505;9,22
616,747;9,21
616,989;9,21
617,232;9,2
617,474;9,19
617,716;9,21
617,959;9,22
618,201;9,22
618,443;9,23
618,685;9,23
618,927;9,24
619,17;9,26
619,412;9,27
619,654;9,25
619,896;9,25
620,138;9,26
620,38;9,28
620,622;9,29
620,864;9,3
621,107;9,29
621,349;9,29
621,591;9,29
621,833;9,29
622,075;9,31
622,316;9,32
622,558;9,33
622,8;9,32
623,042;9,31
623,284;9,31
623,526;9,31
623,768;9,31
624,01;9,3
624,251;9,31
624,493;9,29
624,735;9,27
624,977;9,28
625,218;9,27
625,46;9,27
625,702;9,26
625,943;9,25
626,185;9,27
626,427;9,26
626,668;9,25
626,91;9,23
627,152;9,22
627,393;9,22
627,635;9,21
627,876;9,2
628,118;9,22
628,359;9,23
628,601;9,23
628,842;9,24
629,084;9,23
629,325;9,22
629,566;9,23
629,808;9,25
630,049;9,23
630,29;9,22
630,532;9,19
630,773;9,18
631,014;9,19
631,256;9,15
631,497;9,16
631,738;9,17
631,979;9,19
632,22;9,17
632,462;9,15
632,703;9,11
632,944;9,12
633,185;9,1
633,426;9,09
633,667;9,09
633,908;9,07
634,149;9,06
634,39;9,04
634,631;9,04
634,872;9,03
635,113;9,01
635,354;9,02
635,595;9,01
635,836;9,02
636,077;9
636,318;9,01
636,559;9
636,8;8,98
637,04;8,95
637,281;8,95
637,522;8,96
637,763;8,98
638,003;8,98
638,244;8,99
638,485;8,97
638,726;8,94
638,966;8,93
639,207;8,95
639,448;8,95
639,688;8,96
639,929;8,94
640,169;8,95
640,41;8,95
640,65;8,96
640,891;8,93
641,131;8,92
641,372;8,91
641,612;8,91
641,853;8,88
642,093;8,9
642,334;8,9
642,574;8,9
642,814;8,89
643,055;8,89
643,295;8,89
643,535;8,91
643,776;8,92
644,016;8,93
644,256;8,9
644,496;8,89
644,737;8,88
644,977;8,91
645,217;8,9
645,457;8,91
645,697;8,91
645,938;8,94
646,178;8,94
646,418;8,96
646,658;8,95
646,898;8,99
647,138;8,97
647,378;9
647,618;8,98
647,858;8,99
648,098;8,99
648,338;8,98
648,578;8,93
648,818;8,93
649,057;8,94
649,297;8,96
649,537;8,99
649,777;8,98
650,017;8,98
650,257;9
650,496;8,98
650,736;8,97
650,976;8,95
661,028;8,97
661,267;8,94
661,506;8,94
661,744;8,91
661,983;8,89
662,222;8,86
662,461;8,87
662,7;8,84
662,939;8,83
663,177;8,83
663,416;8,82
663,655;8,79
663,894;8,79
664,132;8,79
664,371;8,79
664,61;8,77
664,848;8,74
665,087;8,74
665,326;8,76
665,564;8,79
665,803;8,81
666,041;8,85
666,28;8,84
666,518;8,85
666,757;8,86
666,995;8,86
667,234;8,87
667,472;8,86
667,711;8,87
667,949;8,87
668,187;8,87
668,426;8,87
668,664;8,87
668,902;8,87
669,141;8,88
669,379;8,86
669,617;8,88
669,856;8,9
670,094;8,9
670,332;8,9
670,57;8,89
670,808;8,86
671,046;8,85
671,285;8,85
671,523;8,84
671,761;8,85
671,999;8,85
672,237;8,84
672,475;8,85
672,713;8,84
672,951;8,83
673,189;8,81
673,427;8,82
673,665;8,79
673,903;8,8
674,141;8,77
674,379;8,79
674,617;8,77
674,854;8,76
675,092;8,76
675,33;8,74
675,568;8,75
675,806;8,8
676,043;8,8
676,281;8,83
676,519;8,83
676,756;8,8
676,994;8,81
677,232;8,79
677,469;8,79
677,707;8,82
677,945;8,84
678,182;8,87
678,42;8,88
678,657;8,92
678,895;8,91
679,132;8,92
679,37;8,9
679,607;8,92
679,845;8,91
680,082;8,9
680,32;8,9
680,557;8,9
680,794;8,87
681,032;8,85
681,269;8,82
681,507;8,82
681,744;8,83
681,981;8,84
682,218;8,84
682,456;8,85
682,693;8,83
682,93;8,83
683,167;8,81
683,404;8,81
683,642;8,76
683,879;8,77
684,116;8,79
684,353;8,81
684,59;8,81
684,827;8,84
685,064;8,83
685,301;8,82
685,538;8,81
685,775;8,81
686,012;8,81
686,249;8,82
686,486;8,82
686,723;8,79
686,96;8,78
687,197;8,79
687,433;8,77
687,67;8,74
687,907;8,71
688,144;8,71
688,381;8,68
688,617;8,69
688,854;8,68
689,091;8,66
689,327;8,67
689,564;8,66
689,801;8,64
690,037;8,65
690,274;8,66
690,511;8,66
690,747;8,66
690,984;8,68
691,22;8,71
691,457;8,7
691,693;8,74
691,93;8,74
692,166;8,74
692,403;8,74
692,639;8,76
692,876;8,78
693,112;8,78
693,348;8,8
693,585;8,82
693,821;8,81
694,057;8,82
694,294;8,82
694,53;8,81
694,766;8,8
695,002;8,8
695,239;8,81
695,475;8,8
695,711;8,8
695,947;8,77
696,183;8,76
696,419;8,75
696,656;8,73
696,892;8,74
697,128;8,75
697,364;8,75
697,6;8,75
697,836;8,76
698,072;8,76
698,308;8,74
698,544;8,73
698,78;8,74
699,016;8,72
699,251;8,71
699,487;8,74
699,723;8,75
699,959;8,75
700,195;8,74
700,431;8,74
700,666;8,74
700,902;8,74
701,138;8,73
701,374;8,75
701,609;8,73
701,845;8,72
702,081;8,71
702,316;8,72
702,552;8,71
702,788;8,71
703,023;8,71
703,259;8,73
703,494;8,72
703,73;8,72
703,965;8,74
704,201;8,73
704,436;8,69
704,672;8,68
704,907;8,68
705,143;8,7
705,378;8,67
705,613;8,67
705,849;8,68
706,084;8,69
706,319;8,65
706,555;8,65
706,79;8,65
707,025;8,67
707,26;8,68
707,496;8,68
707,731;8,67
707,966;8,69
708,201;8,67
708,436;8,68
708,671;8,67
708,907;8,63
709,142;8,63
709,377;8,65
709,612;8,67
709,847;8,64
710,082;8,61
710,317;8,62
710,552;8,64
710,787;8,63
711,022;8,6
711,257;8,6
711,492;8,6
711,726;8,63
711,961;8,62
712,196;8,62
712,431;8,6
712,666;8,6
712,901;8,55
713,135;8,56
713,37;8,58
713,605;8,58
713,839;8,58
714,074;8,57
714,309;8,55
714,543;8,51
714,778;8,52
715,013;8,51
715,247;8,55
715,482;8,53
715,716;8,54
715,951;8,58
716,185;8,59
716,42;8,61
716,654;8,57
716,889;8,58
717,123;8,55
717,358;8,54
717,592;8,56
717,827;8,57
718,061;8,57
718,295;8,55
718,53;8,55
718,764;8,56
718,998;8,56
719,232;8,61
719,467;8,61
719,701;8,62
719,935;8,61
720,169;8,57
720,403;8,57
720,638;8,55
720,872;8,53
721,106;8,52
721,34;8,54
721,574;8,52
721,808;8,51
722,042;8,53
722,276;8,55
722,51;8,52
722,744;8,53
722,978;8,54
723,212;8,51
723,446;8,55
723,68;8,57
723,914;8,56
724,147;8,54
724,381;8,53
724,615;8,54
724,849;8,58
725,083;8,59
725,316;8,61
725,55;8,62
725,784;8,65
726,018;8,67
726,251;8,63
726,485;8,64
726,719;8,65
726,952;8,64
727,186;8,63
727,419;8,67
727,653;8,71
727,887;8,7
728,12;8,75
728,354;8,74
728,587;8,74
728,821;8,76
729,054;8,75
729,287;8,79
729,521;8,84
729,754;8,82
729,988;8,83
730,221;8,82
730,454;8,83
730,688;8,82
730,921;8,81
731,154;8,83
731,387;8,83
731,621;8,86
731,854;8,89
732,087;8,89
732,32;8,86
732,553;8,84
732,787;8,84
733,02;8,81
733,253;8,82
733,486;8,8
733,719;8,79
733,952;8,83
734,185;8,81
734,418;8,75
734,651;8,74
734,884;8,76
735,117;8,77
735,35;8,76
735,583;8,74
735,816;8,77
736,049;8,76
736,281;8,77
736,514;8,73
736,747;8,71
736,98;8,68
737,213;8,68
737,445;8,67
737,678;8,67
737,911;8,66
738,144;8,65
738,376;8,66
738,609;8,67
738,842;8,63
739,074;8,62
739,307;8,61
739,539;8,6
739,772;8,57
740,004;8,55
740,237;8,54
740,469;8,52
740,702;8,48
740,934;8,5
741,167;8,5
741,399;8,51
741,632;8,54
741,864;8,55
742,096;8,57
742,329;8,58
742,561;8,58
742,793;8,57
743,026;8,52
743,258;8,51
743,49;8,51
743,723;8,49
743,955;8,49
744,187;8,52
744,419;8,53
744,651;8,53
744,883;8,55
745,115;8,6
745,348;8,6
745,58;8,63
745,812;8,6
746,044;8,61
746,276;8,58
746,508;8,53
746,74;8,54
746,972;8,51
747,204;8,49
747,436;8,46
747,667;8,5
747,899;8,51
748,131;8,5
748,363;8,53
748,595;8,52
748,827;8,53
749,058;8,53
749,29;8,55
749,522;8,52
749,754;8,49
749,985;8,44
750,217;8,46
750,449;8,44
750,68;8,45
750,912;8,46
751,144;8,49
751,375;8,48
751,607;8,47
751,838;8,51
752,07;8,55
752,301;8,54
752,533;8,5
752,764;8,51
752,996;8,51
753,227;8,48
753,459;8,49
753,69;8,51
753,921;8,52
754,153;8,49
754,384;8,52
754,615;8,52
754,847;8,54
755,078;8,53
755,309;8,56
755,54;8,53
755,772;8,47
756,003;8,45
756,234;8,45
756,465;8,49
756,696;8,47
756,927;8,45
757,159;8,44
757,39;8,48
757,621;8,47
757,852;8,48
758,083;8,48
758,314;8,53
758,545;8,5
758,776;8,48
759,007;8,46
759,238;8,43
759,469;8,41
759,699;8,41
759,93;8,39
760,161;8,35
760,392;8,34
760,623;8,35
760,854;8,4
761,084;8,42
761,315;8,41
761,546;8,39
761,776;8,37
762,007;8,41
762,238;8,36
762,468;8,36
762,699;8,37
762,93;8,36
763,16;8,34
763,391;8,34
763,621;8,33
763,852;8,37
764,083;8,37
764,313;8,36
764,543;8,37
764,774;8,35
765,004;8,35
765,235;8,38
765,465;8,38
765,696;8,36
765,926;8,37
766,156;8,37
766,387;8,37
766,617;8,38
766,847;8,34
767,077;8,36
767,308;8,34
767,538;8,35
767,768;8,38
767,998;8,34
768,228;8,32
768,459;8,32
768,689;8,32
768,919;8,31
769,149;8,36
769,379;8,32
769,609;8,36
769,839;8,4
770,069;8,37
770,299;8,37
770,529;8,36
770,759;8,35
770,989;8,31
771,219;8,3
771,449;8,29
771,678;8,31
771,908;8,33
772,138;8,36
772,368;8,33
772,598;8,28
772,827;8,28
773,057;8,28
773,287;8,3
773,517;8,28
773,746;8,3
773,976;8,27
774,206;8,25
774,435;8,22
774,665;8,16
774,894;8,16
775,124;8,19
775,354;8,16
775,583;8,12
775,813;8,12
776,042;8,15
776,272;8,18
776,501;8,18
776,73;8,17
776,96;8,19
777,189;8,21
777,419;8,2
777,648;8,19
777,877;8,17
778,107;8,13
778,336;8,16
778,565;8,14
778,794;8,18
779,024;8,19
779,253;8,18
779,482;8,23
779,711;8,27
779,94;8,27
780,17;8,29
780,399;8,33
780,628;8,39
780,857;8,42
781,086;8,39
781,315;8,38
781,544;8,4
781,773;8,38
782,002;8,43
782,231;8,45
782,46;8,5
782,689;8,53
782,918;8,57
783,147;8,56
783,375;8,59
783,604;8,57
783,833;8,57
784,062;8,62
784,291;8,62
784,519;8,61
784,748;8,59
784,977;8,56
785,206;8,55
785,434;8,52
785,663;8,44
785,892;8,5
786,12;8,48
786,349;8,45
786,577;8,45
786,806;8,4
787,034;8,4
787,263;8,39
787,492;8,37
787,72;8,37
787,948;8,37
788,177;8,4
788,405;8,37
788,634;8,4
788,862;8,39
789,09;8,32
789,319;8,33
789,547;8,37
789,775;8,38
790,004;8,38
790,232;8,37
790,46;8,41
790,688;8,34
790,917;8,36
791,145;8,36
791,373;8,39
791,601;8,43
791,829;8,41
792,057;8,45
792,286;8,47
792,514;8,46
792,742;8,43
792,97;8,36
793,198;8,36
793,426;8,39
793,654;8,37
793,882;8,4
794,109;8,42
794,337;8,43
794,565;8,44
794,793;8,46
795,021;8,47
795,249;8,5
795,477;8,52
795,704;8,52
795,932;8,49
796,16;8,45
796,388;8,47
796,615;8,49
796,843;8,45
797,071;8,43
797,298;8,49
797,526;8,47
797,754;8,53
797,981;8,52
798,209;8,48
798,436;8,5
798,664;8,55
798,891;8,48
799,119;8,4
799,346;8,41
799,574;8,36
799,801;8,35
800,029;8,27
800,256;8,26
800,483;8,29
800,711;8,34
800,938;8,35
801,165;8,31
801,393;8,3
801,62;8,32
801,847;8,27
802,074;8,22
802,302;8,31
802,529;8,29
802,756;8,33
802,983;8,34
803,21;8,34
803,437;8,28
803,665;8,31
803,892;8,34
804,119;8,33
804,346;8,37
804,573;8,42
804,8;8,49
805,027;8,5
805,254;8,5
805,481;8,39
805,708;8,39
805,934;8,41
806,161;8,42
806,388;8,36
806,615;8,4
806,842;8,42
807,069;8,35
807,295;8,36
807,522;8,42
807,749;8,42
807,976;8,37
808,202;8,4
808,429;8,4
808,656;8,39
808,882;8,44
809,109;8,42
809,335;8,37
809,562;8,36
809,789;8,41
810,015;8,37
810,242;8,51
810,468;8,47
810,695;8,41
810,921;8,38
811,147;8,48
811,374;8,53
811,6;8,52
811,827;8,56
812,053;8,55
812,279;8,51
812,506;8,53
812,732;8,56
812,958;8,57
813,185;8,58
813,411;8,56
813,637;8,48
813,863;8,46
814,089;8,51
814,315;8,51
814,542;8,48
814,768;8,49
814,994;8,45
815,22;8,46
815,446;8,53
815,672;8,57
815,898;8,58
816,124;8,58
816,35;8,58
816,576;8,55
816,802;8,54
817,028;8,6
817,254;8,6
817,48;8,6
817,705;8,55
817,931;8,54
818,157;8,63
818,383;8,65
818,609;8,68
818,834;8,65
819,06;8,62
819,286;8,6
819,512;8,61
819,737;8,59
819,963;8,64
820,189;8,6
820,414;8,69
820,64;8,62
820,865;8,55
821,091;8,54
821,316;8,49
821,542;8,52
821,767;8,46
821,993;8,45
822,218;8,47
822,444;8,55
822,669;8,62
822,895;8,6
823,12;8,56
823,345;8,6
823,571;8,58
823,796;8,59
824,021;8,59
824,247;8,54
824,472;8,53
824,697;8,58
824,922;8,63
825,147;8,57
825,373;8,65
825,598;8,71
825,823;8,68
826,048;8,73
826,273;8,71
826,498;8,72
826,723;8,71
826,948;8,71
827,173;8,67
827,398;8,64
827,623;8,6
827,848;8,68
828,073;8,67
828,298;8,72
828,523;8,79
828,748;8,81
828,973;8,83
829,197;8,9
829,422;8,78
829,647;8,82
829,872;8,69
830,097;8,63
830,321;8,66
830,546;8,71
830,771;8,71
830,995;8,71
831,22;8,73
831,445;8,76
831,669;8,74
831,894;8,74
832,118;8,72
832,343;8,79
832,567;8,81
832,792;8,9
833,016;8,88
833,241;8,83
833,465;8,81
833,69;8,85
833,914;8,75
834,139;8,84
834,363;8,76
834,587;8,95
834,812;9,01
835,036;8,93
835,26;8,94
835,485;8,94
835,709;8,99
835,933;9,01
836,157;9,04
836,381;9,09
836,606;9,15
836,83;9,12
837,054;9,08
837,278;9
837,502;8,95
837,726;8,91
837,95;8,89
838,174;8,96
838,398;8,94
838,622;8,96
838,846;8,94
839,07;8,94
839,294;8,86
839,518;8,73
839,742;8,78
839,966;8,82
840,189;8,85
840,413;8,82
840,637;8,79
840,861;8,76
841,085;8,69
841,308;8,71
841,532;8,8
841,756;8,8
841,979;8,83
842,203;8,91
842,427;8,94
842,65;8,89
842,874;8,9
843,098;8,91
843,321;9
843,545;9,09
843,768;9,09
843,992;9,05
844,215;9,1
844,439;9,11
844,662;9,05
844,886;9,08
845,109;9,05
845,332;9,06
845,556;9,13
845,779;9,23
846,002;9,19
846,226;9,14
846,449;9,19
846,672;9,23
846,895;9,1
847,119;9,09
847,342;9,13
847,565;9,12
847,788;9,16
848,011;9,16
848,234;9,08
848,457;9,04
848,681;9,05
848,904;9,16
849,127;9,15
849,35;9,08
849,573;9,07
849,796;9,1
850,019;9,06
850,241;9,09
850,464;9,06
850,687;9,07
850,91;9,04
851,133;9
851,356;9,02
851,579;8,99
851,801;9,02
852,024;9,07
852,247;8,99
852,47;9,04
852,692;8,95
852,915;9,03
853,138;9,1
853,36;9,12
853,583;8,97
853,806;8,97
854,028;9,09
854,251;9
854,473;9,02
854,696;9,03
854,918;8,91
855,141;8,86
855,363;8,86
855,586;8,94
855,808;8,98
856,031;8,89
856,253;8,91
856,475;8,87
856,698;8,84
856,92;8,91
857,142;8,83
857,365;8,87
857,587;8,81
857,809;8,77
858,031;8,77
858,253;8,86
858,476;8,9
858,698;8,9
858,92;9,02
859,142;9,02
859,364;9
859,586;9,11
859,808;9,21
860,03;9,24
860,252;9,18
860,474;9,18
860,696;9,29
860,918;9,32
861,14;9,35
861,362;9,36
861,584;9,42
861,806;9,44
862,028;9,56
862,25;9,59
862,471;9,63
862,693;9,58
862,915;9,52
863,137;9,45
863,358;9,45
863,58;9,42
863,802;9,35
864,024;9,3
864,245;9,25
864,467;9,16
864,688;9,12
864,91;9,13
865,132;9,14
865,353;9,15
865,575;9,11
865,796;9,09
866,018;9,12
866,239;9,01
866,461;9,08
866,682;8,91
866,903;8,89
867,125;8,92
867,346;9,03
867,567;9,01
867,789;9,02
868,01;9,07
868,231;9,01
868,453;9,12
868,674;9,29
868,895;9,34
869,116;9,3
869,337;9,34
869,559;9,45
869,78;9,44
870,001;9,38
870,222;9,44
870,443;9,55
870,664;9,6
870,885;9,59
871,106;9,57
871,327;9,67
871,548;9,61
871,769;9,52
871,99;9,5
872,211;9,54
872,432;9,57
872,653;9,44
872,874;9,51
873,094;9,53
873,315;9,42
873,536;9,27
873,757;9,45
873,978;9,39
874,198;9,31
874,419;9,34
874,64;9,41
874,86;9,45
875,081;9,46
875,302;9,39
875,522;9,44
875,743;9,43
875,963;9,37
876,184;9,36
876,404;9,35
876,625;9,33
876,845;9,45
877,066;9,51
877,286;9,53
877,507;9,59
877,727;9,61
877,947;9,56
878,168;9,72
878,388;9,61
878,609;9,64
878,829;9,63
879,049;9,61
879,269;9,65
879,49;9,69
879,71;9,64
879,93;9,64
880,15;9,72
880,37;9,7
880,59;9,7
880,811;9,75
881,031;9,86
881,251;9,82
881,471;9,75
881,691;9,78
881,911;9,83
882,131;9,91
882,351;9,89
882,571;9,91
882,791;9,89
883,011;9,86
883,23;9,85
883,45;9,82
883,67;9,89
883,89;9,85
884,11;9,71
884,33;9,62
884,549;9,65
884,769;9,63
884,989;9,65
885,209;9,68
885,428;9,71
885,648;9,62
885,868;9,71
886,087;9,75
886,307;9,72
886,526;9,78
886,746;9,66
886,965;9,54
887,185;9,67
887,404;9,73
887,624;9,77
887,843;9,75
888,063;9,85
888,282;9,8
888,502;9,67
888,721;9,71
888,94;9,76
889,16;9,82
889,379;9,74
889,598;9,83
889,818;9,87
890,037;9,81
890,256;9,92
890,475;9,89
890,694;10,03
890,914;10,02
891,133;10,09
891,352;10,13
891,571;10,35
891,79;10,42
892,009;10,34
892,228;10,32
892,447;10,42
892,666;10,38
892,885;10,42
893,104;10,48
893,323;10,57
893,542;10,56
893,761;10,56
893,98;10,79
894,199;10,69
894,417;10,77
894,636;10,84
894,855;10,88
895,074;10,93
895,293;10,81
895,511;10,85
895,73;10,78
895,949;10,66
896,167;10,54
896,386;10,62
896,605;10,64
896,823;10,79
897,042;10,76
897,26;10,73
897,479;10,69
897,697;10,67
897,916;10,81
898,134;10,76
898,353;10,82
898,571;10,55
898,79;10,68
899,008;10,68
899,227;10,69
899,445;10,71
899,663;10,73
899,882;10,77
900,1;10,8
900,318;10,86
900,536;11
900,755;11,13
900,973;10,98
901,191;11,04
901,409;11,12
901,627;11,08
901,846;11,2
902,064;11,23
902,282;11,35
902,5;11,19
902,718;11,31
902,936;11,2
903,154;11,35
903,372;11,21
903,59;11,13
903,808;11,23
904,026;11,27
904,244;11,2
904,462;11,03
904,679;11,01
904,897;10,95
905,115;10,98
905,333;10,91
905,551;10,94
905,768;10,83
905,986;10,78
906,204;10,87
906,422;10,9
906,639;10,93
906,857;10,97
907,074;11
907,292;11,04
907,51;11
907,727;11,02
907,945;11,04
908,162;11,09
908,38;11,06
908,597;11,06
908,815;11,09
909,032;11,29
909,25;11,35
909,467;11,43
909,684;11,32
909,902;11,43
910,119;11,53
910,337;11,59
910,554;11,53
910,771;11,48
910,988;11,56
911,206;11,55
911,423;11,6
911,64;11,68
911,857;11,63
912,074;11,7
912,291;11,73
912,509;11,68
912,726;11,64
912,943;11,61
913,16;11,64
913,377;11,86
913,594;11,74
913,811;11,63
914,028;11,54
914,245;11,71
914,462;11,78
914,679;11,73
914,896;11,8
915,112;12
915,329;12,15
915,546;12,07
915,763;12,06
915,98;12
916,196;12,05
916,413;12,17
916,63;12,12
916,847;12,14
917,063;12,29
917,28;12,39
917,497;12,21
917,713;12,24
917,93;12,33
918,146;12,51
918,363;12,71
918,579;12,92
918,796;12,97
919,012;12,88
919,229;12,85
919,445;12,8
919,662;12,7
919,878;12,5
920,095;12,37
920,311;12,5
920,527;12,31
920,744;12,25
920,96;12,24
921,176;12,23
921,392;12,3
921,609;12,49
921,825;12,5
922,041;12,77
922,257;12,66
922,473;12,65
922,69;12,7
922,906;12,64
923,122;12,52
923,338;12,35
923,554;12,12
923,77;12,13
923,986;12,26
924,202;12,32
924,418;12,45
924,634;12,77
924,85;12,69
925,066;12,87
925,282;12,64
925,497;12,73
925,713;12,73
925,929;12,69
926,145;12,4
926,361;12,31
926,576;12,22
926,792;12,08
927,008;12,1
927,224;11,93
927,439;11,71
927,655;11,53
927,871;11,57
928,086;11,78
928,302;11,7
928,517;11,57
928,733;11,51
928,948;11,47
929,164;11,37
929,379;11,37
929,595;11,37
929,81;11,48
930,026;11,27
930,241;11,32
930,456;11,18
930,672;11,22
930,887;11,27
931,102;11,4
931,318;11,69
931,533;11,57
931,748;11,68
931,964;11,91
932,179;11,92
932,394;11,82
932,609;11,93
932,824;11,9
933,039;11,97
933,255;12,02
933,47;12,36
933,685;12,39
933,9;12,57
934,115;12,84
934,33;12,99
934,545;13,45
934,76;13,63
934,975;13,76
935,19;14,02
935,404;14,3
935,619;14,5
935,834;14,8
936,049;14,93
936,264;15,05
936,479;15,37
936,693;15,82
936,908;16,38
937,123;16,62
937,338;17,4
937,552;17,88
937,767;18,41
937,982;18,58
938,196;19,05
938,411;19,5
938,625;19,88
938,84;20,21
939,055;20,17
939,269;20,76
939,484;21,64
939,698;21,95
939,912;22,61
940,127;22,87
940,341;22,83
940,556;23,13
940,77;24,11
940,984;24,71
941,199;26,03
941,413;26,27
941,627;26,69
941,842;27,12
942,056;28,13
942,27;28,38
942,484;28,46
942,699;28,63
942,913;28,51
943,127;28,41
943,341;30,27
943,555;31,15
943,769;31,71
943,983;31,55
944,197;32,14
944,411;32,46
944,625;32,62
944,839;32,74
945,053;34,2
945,267;35,16
945,481;35,26
945,695;35,56
945,909;35,43
946,123;35,78
946,336;35,69
946,55;34,75
946,764;34,25
946,978;34,09
947,192;34,25
947,405;34,09
947,619;33,83
947,833;32,58
948,046;32,05
948,26;30,9
948,474;32,09
948,687;32,93
948,901;32,32
949,114;32,23
949,328;32,41
949,541;31,19
949,755;29,8
949,968;29,49
950,182;28,98
950,395;29,17
950,609;28,25
950,822;27,84
951,035;28,21
951,249;27,97
951,462;28,22
951,675;28,77
951,889;29,23
952,102;29,17
952,315;29,06
952,528;29,12
952,741;29,74
952,955;29,69
953,168;29,14
953,381;29,29
953,594;29,66
953,807;29,26
954,02;30,27
954,233;30,34
954,446;29,92
954,659;29,38
954,872;29,56
955,085;29,94
955,298;29,49
955,511;29,24
955,724;29,61
955,937;29,01
956,15;28,95
956,362;28,62
956,575;28,92
956,788;28,5
957,001;27,93
957,214;28,07
957,426;27,24
957,639;26,63
957,852;26,33
958,064;26,03
958,277;25,37
958,49;24,04
958,702;24,68
958,915;24,86
959,127;24,69
959,34;24,9
959,552;24,58
959,765;24,72
959,977;24,98
960,19;24,47
960,402;24,17
960,615;23,23
960,827;23,15
961,039;22,58
961,252;23,31
961,464;23,12
961,676;22,41
961,889;22,72
962,101;22,94
962,313;22,92
962,525;22,48
962,738;22,41
962,95;22,97
963,162;22,81
963,374;23,23
963,586;23,5
963,798;23,11
964,01;23,24
964,222;23,44
964,434;22,75
964,646;22,8
964,858;23,21
965,07;23,16
965,282;23,2
965,494;23,09
965,706;22,86
965,918;23,26
966,13;23,97
966,342;23,79
966,553;24,02
966,765;24,28
966,977;24,97
967,189;26,26
967,401;26,5
967,612;26,12
967,824;25,69
968,036;25,48
968,247;25,64
968,459;25,7
968,67;25,72
968,882;25,6
969,094;26,26
969,305;26,21
969,517;26,69
969,728;26,63
969,94;26,97
970,151;26,71
970,362;26,87
970,574;26,8
970,785;26,84
970,997;26,05
971,208;25,11
971,419;24,69
971,631;24,01
971,842;24,31
972,053;24,77
972,264;25,17
972,476;25,27
972,687;25,11
972,898;24,8
973,109;25,01
973,32;25,75
973,531;25,71
973,742;25,67
973,954;25,18
974,165;24,98
974,376;24,8
974,587;25,33
974,798;25,43
975,009;25,46
975,22;25,52
975,43;27,37
975,641;27,89
975,852;28,06
976,063;28,4
976,274;27,73
976,485;26,54
976,695;26,12
976,906;26,27
977,117;26,13
977,328;26,35
977,538;26,46
977,749;26,17
977,96;26,07
978,17;26,38
978,381;26,82
978,592;27,64
978,802;28,05
979,013;27,65
979,223;27,45
979,434;27,18
979,644;27,3
979,855;26,57
980,065;26,95
980,276;26,63
980,486;26,73
980,696;27,38
980,907;27,81
981,117;28,29
981,327;29,07
981,538;29,29
981,748;29,76
981,958;29,75
982,169;30,03
982,379;29,79
982,589;29,66
982,799;30,09
983,009;30,33
983,219;29,93
983,43;30,49
983,64;31,01
983,85;31,23
984,06;31,5
984,27;31,15
984,48;31,19
984,69;31,66
984,9;31,54
985,11;31,12
985,32;31,51
985,529;31,53
985,739;30,43
985,949;31,12
986,159;30,77
986,369;30,43
986,579;30,83
986,788;31,88
986,998;32,02
987,208;30,99
987,417;30,05
987,627;30,89
987,837;30,98
988,046;30,62
988,256;31,05
988,466;30,17
988,675;29,85
988,885;29,55
989,094;29,54
989,304;29,51
989,513;29,34
989,723;29,99
989,932;29,87
990,142;30,4
990,351;30,64
990,56;32,11
990,77;32,31
990,979;32,3
991,188;31,5
991,398;31,86
991,607;33,25
991,816;34,33
992,025;34,5
992,235;34,7
992,444;35,55
992,653;35,08
992,862;35,27
993,071;35,37
993,28;35,28
993,489;35,73
993,698;35,65
993,908;36,04
994,117;36,22
994,326;37,25
994,534;37,52
994,743;37,09
994,952;35,37
995,161;35,75
995,37;41,01
995,579;42,63
995,788;42,87
995,997;42,12
996,205;40,89
996,414;41,42
996,623;40,83
996,832;40,29
997,04;40,77
997,249;41,54
997,458;42,55
997,666;43,89
997,875;44,65
998,084;44,91
998,292;45,38
998,501;45,22
998,709;44,71
998,918;44,58
999,126;43,87
999,335;45,4
999,543;45,57
999,752;39,6
999,96;38,27
1000,169;39,01
1000,377;39,35
1000,585;41,67
1000,794;40,88
1001,002;41,84
1001,21;42,39
1001,418;42,52
1001,627;42,21
1001,835;44,1
1002,043;44,9
1002,251;44,53
1002,459;46,6
1002,668;47,19
1002,876;48,01
1003,084;48,31
1003,292;47,81
1003,5;49,03
1003,708;51,04
1003,916;51,17
1004,124;52,06
1004,332;53,18
1004,54;53,23
1004,748;54,15
1004,956;52,51
1005,163;52,43
1005,371;52,74
1005,579;52,45
1005,787;51,65
1005,995;52,6
1006,202;51,4
1006,41;50,3
1006,618;50,12
1006,826;48,97
1007,033;48,78
1007,241;49
1007,449;49,06
1007,656;49,8
1007,864;49,1
1008,071;47,13
1008,279;46,95
1008,486;47,96
1008,694;46,11
1008,901;44,8
1009,109;44,65
1009,316;45,59
1009,524;47,86
1009,731;47,22
1009,938;47,27
1010,146;48,23
1010,353;49,38
1010,56;47,62
1010,768;48,57
1010,975;50,03
1011,182;49,46
1011,389;48,71
1011,597;46,77
1011,804;46,3
1012,011;47,94
1012,218;50,42
1012,425;50,86
1012,632;53,18
1012,839;52,02
1013,046;52,95
1013,253;53,85
1013,46;54,07
1013,667;54,28
1013,874;52,09
1014,081;51,12
1014,288;52,28
1014,495;53,5
1014,702;52,12
1014,909;54,11
1015,116;53,39
1015,323;53,97
1015,529;54,08
1015,736;54,56
1015,943;57,98
1016,15;58,87
1016,356;58,49
1016,563;56,2
1016,77;56,15
1016,976;54,23
1017,183;54,9
1017,389;55,93
1017,596;57,51
1017,803;58,09
1018,009;58,74
1018,216;60,52
1018,422;64,91
1018,629;64,76
1018,835;65,02
1019,041;66,43
1019,248;66,16
1019,454;67,72
1019,661;68,11
1019,867;68,8
1020,073;70,36
1020,279;68,78
1020,486;69,84
1020,692;69,01
1020,898;70,74
1021,104;69,79
1021,311;69,45
1021,517;69,81
1021,723;71,71
1021,929;72,03
1022,135;71,97
1022,341;73,16
1022,547;72,52
1022,753;70,47
1022,959;72,53
1023,165;71,86
1023,371;70,28
1023,577;69,09
1023,783;67,42
1023,989;63,72
1024,195;67,14
1024,401;69,66
1024,607;70,24
1024,812;69,53
1025,018;71,36
1025,224;72,35
1025,43;73,22
1025,635;74,95
1025,841;76,85
1026,047;75,88
1026,252;78,54
1026,458;79,12
1026,664;77,93
1026,869;79,69
1027,075;80,94
1027,28;81,57
1027,486;82,81
1027,691;86,71
1027,897;88,1
1028,102;88,48
1028,308;90,62
1028,513;89,05
1028,719;86,68
1028,924;87,22
1029,129;87,36
1029,335;89,31
1029,54;86,34
1029,745;86,42
1029,95;90,08
1030,156;87,14
1030,361;87,75
1030,566;85,69
1030,771;84,81
1030,976;86,03
1031,182;84,98
1031,387;83,08
1031,592;83,84
1031,797;85,82
1032,002;83,47
1032,207;85,69
1032,412;86,95
1032,617;89,16
1032,822;87,17
1033,027;89,04
1033,232;91,14
1033,437;92,31
1033,642;90,61
1033,846;92,9
1034,051;92,95
1034,256;88,65
1034,461;90,9
1034,666;88,5
1034,87;89,08
1035,075;89,37
1035,28;88,03
1035,484;91,3
1035,689;93,19
1035,894;89,79
1036,098;88,92
1036,303;91,02
1036,507;89,88
1036,712;92,89
1036,917;92,29
1037,121;92,35
1037,325;87,04
1037,53;87,56
1037,734;88,48
1037,939;88,76
1038,143;93,41
1038,348;97,66
1038,552;101,31
1038,756;99,68
1038,961;103,44
1039,165;101,01
1039,369;104,43
1039,573;106,03
1039,778;106,05
1039,982;106,98
1040,186;111,85
1040,39;115,59
1040,594;114,72
1040,798;117,09
1041,002;112,26
1041,206;115,08
1041,41;122,05
1041,614;127,51
1041,818;126,71
1042,022;125,44
1042,226;127,04
1042,43;124,84
1042,634;130,28
1042,838;131,5
1043,042;135,02
1043,246;134,75
1043,45;139,98
1043,653;138,2
1043,857;140,97
1044,061;144,23
1044,265;142
1044,468;139,39
1044,672;139,85
1044,876;145,18
1045,079;143,8
1045,283;148,01
1045,487;144,52
1045,69;142,51
1045,894;147,47
1046,097;150,42
1046,301;148,82
1046,504;145,35
1046,708;147,68
1046,911;138,7
1047,115;136,33
1047,318;138,15
1047,522;141,63
1047,725;136,44
1047,928;136,97
1048,132;139,82
1048,335;137,17
1048,538;139,6
1048,741;143,72
1048,945;141,05
1049,148;138,18
1049,351;140,31
1049,554;147,55
1049,757;148,18
1049,96;150,11
1050,163;145,05
1050,367;140,53
1050,57;148,78
1050,773;153,48
1050,976;153,43
1051,179;162,51
1051,382;168,34
1051,585;169,03
1051,787;172,38
1051,99;177,6
1052,193;180,51
1052,396;182,43
1052,599;180,3
1052,802;176,62
1053,005;173,52
1053,207;182,18
1053,41;179,11
1053,613;183,59
1053,815;175,82
1054,018;175,3
1054,221;180,52
1054,423;182,76
1054,626;186,31
1054,829;185,34
1055,031;190,02
1055,234;192,32
1055,436;183,17
1055,639;176,38
1055,841;174,26
1056,044;170,4
1056,246;170
