3997,70175;1,72549
3995,6506;1,72688
3993,59944;1,72834
3991,54829;1,72944
3989,49713;1,73057
3987,44598;1,73161
3985,39482;1,73243
3983,34367;1,73386
3981,29251;1,7357
3979,24136;1,73693
3977,1902;1,73778
3975,13905;1,73974
3973,08789;1,74288
3971,03673;1,74521
3968,98558;1,74602
3966,93442;1,74721
3964,88327;1,74983
3962,83211;1,75281
3960,78096;1,75584
3958,7298;1,7592
3956,67865;1,76258
3954,62749;1,76611
3952,57634;1,76972
3950,52518;1,77298
3948,47403;1,77547
3946,42287;1,77692
3944,37172;1,777
3942,32056;1,77592
3940,2694;1,77486
3938,21825;1,77414
3936,16709;1,77281
3934,11594;1,76922
3932,06478;1,76305
3930,01363;1,75678
3927,96247;1,75242
3925,91132;1,74845
3923,86016;1,7431
3921,80901;1,73729
3919,75785;1,73208
3917,7067;1,72637
3915,65554;1,7201
3913,60439;1,71501
3911,55323;1,71074
3909,50207;1,70634
3907,45092;1,70169
3905,39976;1,69663
3903,34861;1,69233
3901,29745;1,68942
3899,2463;1,68604
3897,19514;1,68316
3895,14399;1,6823
3893,09283;1,68144
3891,04168;1,67996
3888,99052;1,68013
3886,93937;1,67993
3884,88821;1,67728
3882,83706;1,67524
3880,7859;1,67496
3878,73474;1,67566
3876,68359;1,67631
3874,63243;1,67529
3872,58128;1,67348
3870,53012;1,67187
3868,47897;1,67138
3866,42781;1,67165
3864,37666;1,67067
3862,3255;1,66932
3860,27435;1,66909
3858,22319;1,66984
3856,17204;1,67018
3854,12088;1,66749
3852,06973;1,66366
3850,01857;1,66309
3847,96741;1,66422
3845,91626;1,66435
3843,8651;1,66331
3841,81395;1,66239
3839,76279;1,66153
3837,71164;1,66055
3835,66048;1,66073
3833,60933;1,66195
3831,55817;1,6635
3829,50702;1,66538
3827,45586;1,66697
3825,40471;1,66854
3823,35355;1,66921
3821,3024;1,66722
3819,25124;1,66593
3817,20008;1,66638
3815,14893;1,66642
3813,09777;1,66712
3811,04662;1,66885
3808,99546;1,66944
3806,94431;1,6678
3804,89315;1,66714
3802,842;1,66737
3800,79084;1,66735
3798,73969;1,66949
3796,68853;1,67227
3794,63738;1,67412
3792,58622;1,67578
3790,53506;1,67693
3788,48391;1,67699
3786,43275;1,67712
3784,3816;1,67879
3782,33044;1,68171
3780,27929;1,68364
3778,22813;1,68414
3776,17698;1,68486
3774,12582;1,68601
3772,07467;1,68611
3770,02351;1,6849
3767,97236;1,68463
3765,9212;1,68539
3763,87005;1,68636
3761,81889;1,68739
3759,76773;1,68778
3757,71658;1,68805
3755,66542;1,6895
3753,61427;1,6907
3751,56311;1,68971
3749,51196;1,69
3747,4608;1,69467
3745,40965;1,69896
3743,35849;1,70062
3741,30734;1,70284
3739,25618;1,70596
3737,20503;1,70763
3735,15387;1,70739
3733,10272;1,70837
3731,05156;1,71249
3729,0004;1,71763
3726,94925;1,72126
3724,89809;1,72456
3722,84694;1,72869
3720,79578;1,73222
3718,74463;1,73473
3716,69347;1,73809
3714,64232;1,74301
3712,59116;1,74813
3710,54001;1,75435
3708,48885;1,76378
3706,4377;1,77502
3704,38654;1,78747
3702,33539;1,80352
3700,28423;1,82378
3698,23307;1,84307
3696,18192;1,85599
3694,13076;1,86076
3692,07961;1,85861
3690,02845;1,85298
3687,9773;1,84843
3685,92614;1,84795
3683,87499;1,85
3681,82383;1,85233
3679,77268;1,85493
3677,72152;1,85841
3675,67037;1,86301
3673,61921;1,87146
3671,56806;1,88261
3669,5169;1,89413
3667,46574;1,90639
3665,41459;1,91809
3663,36343;1,92803
3661,31228;1,93657
3659,26112;1,94516
3657,20997;1,95495
3655,15881;1,96568
3653,10766;1,97564
3651,0565;1,98615
3649,00535;2,00296
3646,95419;2,02535
3644,90304;2,04518
3642,85188;2,05836
3640,80073;2,06662
3638,74957;2,07406
3636,69841;2,08183
3634,64726;2,08827
3632,5961;2,0942
3630,54495;2,1014
3628,49379;2,11083
3626,44264;2,12197
3624,39148;2,13185
3622,34033;2,14031
3620,28917;2,14863
3618,23802;2,15586
3616,18686;2,16044
3614,13571;2,16391
3612,08455;2,16965
3610,0334;2,17882
3607,98224;2,18965
3605,93108;2,1996
3603,87993;2,20815
3601,82877;2,2161
3599,77762;2,22351
3597,72646;2,23092
3595,67531;2,23919
3593,62415;2,24861
3591,573;2,25678
3589,52184;2,26171
3587,47069;2,26575
3585,41953;2,27095
3583,36838;2,27688
3581,31722;2,28297
3579,26607;2,28785
3577,21491;2,29027
3575,16375;2,29076
3573,1126;2,29206
3571,06144;2,29666
3569,01029;2,30259
3566,95913;2,30824
3564,90798;2,31525
3562,85682;2,3214
3560,80567;2,32423
3558,75451;2,32673
3556,70336;2,33303
3554,6522;2,34198
3552,60105;2,34879
3550,54989;2,35113
3548,49874;2,35166
3546,44758;2,3545
3544,39642;2,35932
3542,34527;2,36298
3540,29411;2,36737
3538,24296;2,37535
3536,1918;2,38463
3534,14065;2,39168
3532,08949;2,3954
3530,03834;2,39613
3527,98718;2,39474
3525,93603;2,39478
3523,88487;2,39955
3521,83372;2,40739
3519,78256;2,41375
3517,73141;2,41627
3515,68025;2,41713
3513,62909;2,41929
3511,57794;2,42297
3509,52678;2,42873
3507,47563;2,43386
3505,42447;2,43267
3503,37332;2,43201
3501,32216;2,44022
3499,27101;2,44988
3497,21985;2,45396
3495,1687;2,45279
3493,11754;2,44848
3491,06639;2,44876
3489,01523;2,45692
3486,96407;2,46304
3484,91292;2,46326
3482,86176;2,46434
3480,81061;2,46755
3478,75945;2,47136
3476,7083;2,48054
3474,65714;2,4917
3472,60599;2,49013
3470,55483;2,48184
3468,50368;2,48219
3466,45252;2,48715
3464,40137;2,48973
3462,35021;2,49155
3460,29906;2,49436
3458,2479;2,49565
3456,19674;2,49586
3454,14559;2,49928
3452,09443;2,50303
3450,04328;2,50243
3447,99212;2,49827
3445,94097;2,49377
3443,88981;2,49544
3441,83866;2,50514
3439,7875;2,51424
3437,73635;2,51599
3435,68519;2,51154
3433,63404;2,50852
3431,58288;2,50994
3429,53173;2,50707
3427,48057;2,49996
3425,42941;2,49853
3423,37826;2,50545
3421,3271;2,51544
3419,27595;2,52041
3417,22479;2,5191
3415,17364;2,51886
3413,12248;2,51995
3411,07133;2,51798
3409,02017;2,51657
3406,96902;2,51641
3404,91786;2,51584
3402,86671;2,51617
3400,81555;2,51684
3398,7644;2,51929
3396,71324;2,52125
3394,66208;2,51729
3392,61093;2,51086
3390,55977;2,50888
3388,50862;2,50974
3386,45746;2,50917
3384,40631;2,51027
3382,35515;2,51346
3380,304;2,51306
3378,25284;2,51112
3376,20169;2,51172
3374,15053;2,51133
3372,09938;2,50852
3370,04822;2,50967
3367,99707;2,51459
3365,94591;2,51502
3363,89475;2,50884
3361,8436;2,50048
3359,79244;2,49622
3357,74129;2,49683
3355,69013;2,49818
3353,63898;2,49892
3351,58782;2,4979
3349,53667;2,49645
3347,48551;2,49706
3345,43436;2,49764
3343,3832;2,49437
3341,33205;2,48735
3339,28089;2,48328
3337,22974;2,48429
3335,17858;2,48335
3333,12742;2,4789
3331,07627;2,47538
3329,02511;2,4741
3326,97396;2,47648
3324,9228;2,48061
3322,87165;2,4811
3320,82049;2,47589
3318,76934;2,46832
3316,71818;2,46474
3314,66703;2,46508
3312,61587;2,46536
3310,56472;2,46577
3308,51356;2,4678
3306,46241;2,46958
3304,41125;2,4687
3302,36009;2,46619
3300,30894;2,46259
3298,25778;2,45915
3296,20663;2,45852
3294,15547;2,45891
3292,10432;2,45805
3290,05316;2,45923
3288,00201;2,4618
3285,95085;2,45862
3283,8997;2,45091
3281,84854;2,4467
3279,79739;2,44775
3277,74623;2,4507
3275,69508;2,4531
3273,64392;2,45321
3271,59276;2,45039
3269,54161;2,44728
3267,49045;2,44568
3265,4393;2,44382
3263,38814;2,43997
3261,33699;2,4361
3259,28583;2,43661
3257,23468;2,43958
3255,18352;2,43933
3253,13237;2,43926
3251,08121;2,44137
3249,03006;2,43931
3246,9789;2,43492
3244,92775;2,4346
3242,87659;2,43528
3240,82543;2,43415
3238,77428;2,43452
3236,72312;2,43547
3234,67197;2,43377
3232,62081;2,43134
3230,56966;2,43015
3228,5185;2,4296
3226,46735;2,43003
3224,41619;2,43019
3222,36504;2,42866
3220,31388;2,42635
3218,26273;2,42304
3216,21157;2,41902
3214,16041;2,41556
3212,10926;2,41313
3210,0581;2,41242
3208,00695;2,41303
3205,95579;2,41276
3203,90464;2,41028
3201,85348;2,40662
3199,80233;2,40164
3197,75117;2,39684
3195,70002;2,39607
3193,64886;2,39682
3191,59771;2,39662
3189,54655;2,39765
3187,4954;2,39898
3185,44424;2,39812
3183,39308;2,39543
3181,34193;2,39278
3179,29077;2,3898
3177,23962;2,38679
3175,18846;2,38491
3173,13731;2,38219
3171,08615;2,37806
3169,035;2,3743
3166,98384;2,37208
3164,93269;2,37075
3162,88153;2,36744
3160,83038;2,36372
3158,77922;2,36317
3156,72807;2,36236
3154,67691;2,36056
3152,62575;2,36144
3150,5746;2,36151
3148,52344;2,35737
3146,47229;2,35194
3144,42113;2,34792
3142,36998;2,34557
3140,31882;2,34337
3138,26767;2,34113
3136,21651;2,34034
3134,16536;2,33935
3132,1142;2,33606
3130,06305;2,33273
3128,01189;2,33034
3125,96074;2,32927
3123,90958;2,33038
3121,85842;2,3305
3119,80727;2,32833
3117,75611;2,32613
3115,70496;2,32493
3113,6538;2,32394
3111,60265;2,32224
3109,55149;2,32015
3107,50034;2,31827
3105,44918;2,31615
3103,39803;2,31259
3101,34687;2,30961
3099,29572;2,30943
3097,24456;2,31039
3095,19341;2,31079
3093,14225;2,30989
3091,09109;2,30966
3089,03994;2,31174
3086,98878;2,31213
3084,93763;2,30844
3082,88647;2,30389
3080,83532;2,29978
3078,78416;2,29642
3076,73301;2,29686
3074,68185;2,30009
3072,6307;2,30128
3070,57954;2,29851
3068,52839;2,29373
3066,47723;2,29112
3064,42608;2,29197
3062,37492;2,29387
3060,32376;2,29451
3058,27261;2,29207
3056,22145;2,28755
3054,1703;2,28507
3052,11914;2,2861
3050,06799;2,28791
3048,01683;2,28843
3045,96568;2,28767
3043,91452;2,28522
3041,86337;2,28138
3039,81221;2,28041
3037,76106;2,28482
3035,7099;2,29013
3033,65875;2,29292
3031,60759;2,29412
3029,55643;2,29566
3027,50528;2,29765
3025,45412;2,29762
3023,40297;2,29653
3021,35181;2,29719
3019,30066;2,30009
3017,2495;2,3041
3015,19835;2,30751
3013,14719;2,31002
3011,09604;2,31173
3009,04488;2,3136
3006,99373;2,31719
3004,94257;2,32302
3002,89142;2,33099
3000,84026;2,34108
2998,7891;2,3544
2996,73795;2,36877
2994,68679;2,38153
2992,63564;2,39746
2990,58448;2,41522
2988,53333;2,42829
2986,48217;2,43816
2984,43102;2,44607
2982,37986;2,44866
2980,32871;2,44597
2978,27755;2,44149
2976,2264;2,43546
2974,17524;2,43036
2972,12409;2,42943
2970,07293;2,42909
2968,02177;2,42768
2965,97062;2,42627
2963,91946;2,42529
2961,86831;2,42585
2959,81715;2,42597
2957,766;2,42245
2955,71484;2,41667
2953,66369;2,41309
2951,61253;2,41339
2949,56138;2,41521
2947,51022;2,41508
2945,45907;2,41294
2943,40791;2,41154
2941,35675;2,40981
2939,3056;2,40512
2937,25444;2,40218
2935,20329;2,40477
2933,15213;2,40711
2931,10098;2,40571
2929,04982;2,40315
2926,99867;2,40237
2924,94751;2,40262
2922,89636;2,39962
2920,8452;2,39563
2918,79405;2,39518
2916,74289;2,39609
2914,69174;2,39464
2912,64058;2,39152
2910,58942;2,3889
2908,53827;2,38727
2906,48711;2,38763
2904,43596;2,389
2902,3848;2,39012
2900,33365;2,39235
2898,28249;2,39553
2896,23134;2,39734
2894,18018;2,39748
2892,12903;2,40082
2890,07787;2,4108
2888,02672;2,42361
2885,97556;2,43308
2883,92441;2,43775
2881,87325;2,44146
2879,82209;2,44912
2877,77094;2,46279
2875,71978;2,47739
2873,66863;2,48324
2871,61747;2,47944
2869,56632;2,47196
2867,51516;2,46308
2865,46401;2,4542
2863,41285;2,44548
2861,3617;2,4376
2859,31054;2,43126
2857,25939;2,42389
2855,20823;2,41519
2853,15708;2,40608
2851,10592;2,39653
2849,05476;2,3857
2847,00361;2,37471
2844,95245;2,36523
2842,9013;2,35383
2840,85014;2,33821
2838,79899;2,32125
2836,74783;2,30558
2834,69668;2,2915
2832,64552;2,27812
2830,59437;2,26485
2828,54321;2,25267
2826,49206;2,24079
2824,4409;2,22847
2822,38975;2,21823
2820,33859;2,20966
2818,28743;2,20128
2816,23628;2,1951
2814,18512;2,19012
2812,13397;2,18418
2810,08281;2,17939
2808,03166;2,17649
2805,9805;2,17449
2803,92935;2,17332
2801,87819;2,17196
2799,82704;2,16936
2797,77588;2,1653
2795,72473;2,1598
2793,67357;2,15294
2791,62242;2,14503
2789,57126;2,13798
2787,5201;2,13287
2785,46895;2,12953
2783,41779;2,12743
2781,36664;2,12402
2779,31548;2,11883
2777,26433;2,11356
2775,21317;2,10875
2773,16202;2,10558
2771,11086;2,10407
2769,05971;2,10308
2767,00855;2,10253
2764,9574;2,10083
2762,90624;2,09721
2760,85509;2,09377
2758,80393;2,09087
2756,75277;2,08848
2754,70162;2,08743
2752,65046;2,08723
2750,59931;2,08668
2748,54815;2,08557
2746,497;2,08491
2744,44584;2,08399
2742,39469;2,08219
2740,34353;2,08083
2738,29238;2,0796
2736,24122;2,0783
2734,19007;2,07815
2732,13891;2,07842
2730,08776;2,07785
2728,0366;2,07681
2725,98544;2,07627
2723,93429;2,07573
2721,88313;2,07402
2719,83198;2,07167
2717,78082;2,06987
2715,72967;2,06952
2713,67851;2,07007
2711,62736;2,0694
2709,5762;2,06774
2707,52505;2,06721
2705,47389;2,06765
2703,42274;2,06744
2701,37158;2,06629
2699,32043;2,06535
2697,26927;2,06599
2695,21811;2,06749
2693,16696;2,0679
2691,1158;2,06757
2689,06465;2,0681
2687,01349;2,06902
2684,96234;2,06862
2682,91118;2,06778
2680,86003;2,06832
2678,80887;2,0691
2676,75772;2,06951
2674,70656;2,0707
2672,65541;2,0722
2670,60425;2,0735
2668,55309;2,0749
2666,50194;2,07653
2664,45078;2,07775
2662,39963;2,07792
2660,34847;2,07821
2658,29732;2,07961
2656,24616;2,08239
2654,19501;2,08573
2652,14385;2,08898
2650,0927;2,09293
2648,04154;2,09789
2645,99039;2,10334
2643,93923;2,10868
2641,88808;2,11505
2639,83692;2,12403
2637,78576;2,13578
2635,73461;2,14991
2633,68345;2,16433
2631,6323;2,17767
2629,58114;2,19126
2627,52999;2,20567
2625,47883;2,21956
2623,42768;2,23146
2621,37652;2,24124
2619,32537;2,24961
2617,27421;2,25831
2615,22306;2,26908
2613,1719;2,28058
2611,12075;2,29116
2609,06959;2,30121
2607,01843;2,31134
2604,96728;2,32009
2602,91612;2,32513
2600,86497;2,32862
2598,81381;2,3338
2596,76266;2,33908
2594,7115;2,34288
2592,66035;2,34687
2590,60919;2,35167
2588,55804;2,35465
2586,50688;2,35371
2584,45573;2,35167
2582,40457;2,35143
2580,35342;2,35266
2578,30226;2,35544
2576,2511;2,35952
2574,19995;2,36145
2572,14879;2,36032
2570,09764;2,36144
2568,04648;2,36644
2565,99533;2,37127
2563,94417;2,37263
2561,89302;2,37173
2559,84186;2,3739
2557,79071;2,37845
2555,73955;2,38013
2553,6884;2,38019
2551,63724;2,38257
2549,58609;2,38867
2547,53493;2,39696
2545,48377;2,40419
2543,43262;2,40925
2541,38146;2,41493
2539,33031;2,42413
2537,27915;2,43776
2535,228;2,4575
2533,17684;2,48204
2531,12569;2,50855
2529,07453;2,5349
2527,02338;2,55523
2524,97222;2,5688
2522,92107;2,5796
2520,86991;2,58922
2518,81876;2,59901
2516,7676;2,60844
2514,71644;2,61408
2512,66529;2,61368
2510,61413;2,61032
2508,56298;2,60506
2506,51182;2,59258
2504,46067;2,57207
2502,40951;2,54923
2500,35836;2,5261
2498,3072;2,49994
2496,25605;2,47182
2494,20489;2,44536
2492,15374;2,4213
2490,10258;2,39922
2488,05143;2,37868
2486,00027;2,35927
2483,94911;2,34033
2481,89796;2,32137
2479,8468;2,30316
2477,79565;2,28621
2475,74449;2,26789
2473,69334;2,24806
2471,64218;2,23049
2469,59103;2,21502
2467,53987;2,20056
2465,48872;2,18795
2463,43756;2,17665
2461,38641;2,16586
2459,33525;2,15572
2457,2841;2,14662
2455,23294;2,13901
2453,18178;2,13232
2451,13063;2,12534
2449,07947;2,11823
2447,02832;2,11129
2444,97716;2,1043
2442,92601;2,09791
2440,87485;2,09291
2438,8237;2,08843
2436,77254;2,08329
2434,72139;2,0785
2432,67023;2,07463
2430,61908;2,07078
2428,56792;2,06695
2426,51677;2,06317
2424,46561;2,05923
2422,41445;2,05531
2420,3633;2,05197
2418,31214;2,04972
2416,26099;2,04797
2414,20983;2,04534
2412,15868;2,04101
2410,10752;2,03627
2408,05637;2,03331
2406,00521;2,0318
2403,95406;2,03049
2401,9029;2,02929
2399,85175;2,02832
2397,80059;2,02757
2395,74944;2,02658
2393,69828;2,02497
2391,64712;2,0231
2389,59597;2,02159
2387,54481;2,02051
2385,49366;2,01978
2383,4425;2,01957
2381,39135;2,01908
2379,34019;2,01756
2377,28904;2,01659
2375,23788;2,01802
2373,18673;2,02024
2371,13557;2,0198
2369,08442;2,01668
2367,03326;2,015
2364,9821;2,01773
2362,93095;2,02267
2360,87979;2,02564
2358,82864;2,02576
2356,77748;2,02389
2354,72633;2,02138
2352,67517;2,02043
2350,62402;2,0217
2348,57286;2,02374
2346,52171;2,02519
2344,47055;2,02507
2342,4194;2,02217
2340,36824;2,01807
2338,31709;2,01592
2336,26593;2,01593
2334,21477;2,01712
2332,16362;2,01826
2330,11246;2,01756
2328,06131;2,01569
2326,01015;2,0155
2323,959;2,01749
2321,90784;2,01958
2319,85669;2,02074
2317,80553;2,02073
2315,75438;2,01951
2313,70322;2,01804
2311,65207;2,01769
2309,60091;2,01936
2307,54976;2,02165
2305,4986;2,02179
2303,44744;2,01928
2301,39629;2,01527
2299,34513;2,01134
2297,29398;2,00926
2295,24282;2,00867
2293,19167;2,0083
2291,14051;2,00791
2289,08936;2,00736
2287,0382;2,00703
2284,98705;2,00766
2282,93589;2,00902
2280,88474;2,01015
2278,83358;2,01084
2276,78243;2,01205
2274,73127;2,01367
2272,68011;2,01439
2270,62896;2,0146
2268,5778;2,01525
2266,52665;2,01622
2264,47549;2,017
2262,42434;2,01708
2260,37318;2,01797
2258,32203;2,02142
2256,27087;2,02562
2254,21972;2,02799
2252,16856;2,02844
2250,11741;2,0289
2248,06625;2,03085
2246,0151;2,03308
2243,96394;2,03436
2241,91278;2,03558
2239,86163;2,03781
2237,81047;2,04084
2235,75932;2,04366
2233,70816;2,0465
2231,65701;2,04927
2229,60585;2,05195
2227,5547;2,05479
2225,50354;2,05771
2223,45239;2,06075
2221,40123;2,06279
2219,35008;2,06423
2217,29892;2,06654
2215,24777;2,06824
2213,19661;2,06746
2211,14545;2,06592
2209,0943;2,06629
2207,04314;2,06825
2204,99199;2,06981
2202,94083;2,07045
2200,88968;2,0705
2198,83852;2,06989
2196,78737;2,07007
2194,73621;2,07198
2192,68506;2,07384
2190,6339;2,07505
2188,58275;2,07608
2186,53159;2,07622
2184,48044;2,0766
2182,42928;2,07858
2180,37812;2,08037
2178,32697;2,08164
2176,27581;2,08408
2174,22466;2,08651
2172,1735;2,08796
2170,12235;2,0911
2168,07119;2,09658
2166,02004;2,10235
2163,96888;2,10817
2161,91773;2,1132
2159,86657;2,11743
2157,81542;2,12489
2155,76426;2,13595
2153,71311;2,14598
2151,66195;2,15341
2149,61079;2,15983
2147,55964;2,16579
2145,50848;2,16989
2143,45733;2,17155
2141,40617;2,17294
2139,35502;2,17494
2137,30386;2,17563
2135,25271;2,17412
2133,20155;2,17061
2131,1504;2,1647
2129,09924;2,15629
2127,04809;2,14638
2124,99693;2,13666
2122,94578;2,12732
2120,89462;2,11825
2118,84346;2,10987
2116,79231;2,10214
2114,74115;2,09552
2112,69;2,08954
2110,63884;2,08459
2108,58769;2,08192
2106,53653;2,07942
2104,48538;2,07597
2102,43422;2,07389
2100,38307;2,07314
2098,33191;2,07228
2096,28076;2,07195
2094,2296;2,07216
2092,17844;2,07156
2090,12729;2,0706
2088,07613;2,07046
2086,02498;2,07077
2083,97382;2,07141
2081,92267;2,07235
2079,87151;2,07336
2077,82036;2,07419
2075,7692;2,07451
2073,71805;2,07496
2071,66689;2,07565
2069,61574;2,07624
2067,56458;2,07721
2065,51343;2,07849
2063,46227;2,08005
2061,41111;2,08218
2059,35996;2,08387
2057,3088;2,08432
2055,25765;2,08452
2053,20649;2,08536
2051,15534;2,08592
2049,10418;2,08552
2047,05303;2,08477
2045,00187;2,08475
2042,95072;2,08603
2040,89956;2,08802
2038,84841;2,08999
2036,79725;2,09133
2034,7461;2,09241
2032,69494;2,09366
2030,64378;2,09459
2028,59263;2,09553
2026,54147;2,09646
2024,49032;2,09749
2022,43916;2,09954
2020,38801;2,10153
2018,33685;2,10194
2016,2857;2,10169
2014,23454;2,10193
2012,18339;2,1027
2010,13223;2,10413
2008,08108;2,10545
2006,02992;2,10634
2003,97877;2,10755
2001,92761;2,10829
1999,87645;2,10802
1997,8253;2,10805
1995,77414;2,10831
1993,72299;2,10838
1991,67183;2,11011
1989,62068;2,1134
1987,56952;2,11496
1985,51837;2,11489
1983,46721;2,11498
1981,41606;2,11524
1979,3649;2,11546
1977,31375;2,11567
1975,26259;2,11683
1973,21144;2,11955
1971,16028;2,1229
1969,10912;2,1267
1967,05797;2,13318
1965,00681;2,14517
1962,95566;2,15938
1960,9045;2,16594
1958,85335;2,16071
1956,80219;2,15072
1954,75104;2,14313
1952,69988;2,13907
1950,64873;2,13692
1948,59757;2,13617
1946,54642;2,13682
1944,49526;2,13738
1942,44411;2,1377
1940,39295;2,1399
1938,34179;2,14357
1936,29064;2,14684
1934,23948;2,14894
1932,18833;2,1495
1930,13717;2,1483
1928,08602;2,14753
1926,03486;2,14986
1923,98371;2,15381
1921,93255;2,15729
1919,8814;2,15948
1917,83024;2,15998
1915,77909;2,16072
1913,72793;2,16247
1911,67678;2,16435
1909,62562;2,16631
1907,57446;2,16875
1905,52331;2,17139
1903,47215;2,1733
1901,421;2,17484
1899,36984;2,17729
1897,31869;2,18043
1895,26753;2,18274
1893,21638;2,184
1891,16522;2,18533
1889,11407;2,18768
1887,06291;2,19138
1885,01176;2,19479
1882,9606;2,19672
1880,90945;2,19846
1878,85829;2,20143
1876,80713;2,20536
1874,75598;2,20927
1872,70482;2,21283
1870,65367;2,21606
1868,60251;2,22022
1866,55136;2,22633
1864,5002;2,23219
1862,44905;2,23685
1860,39789;2,24195
1858,34674;2,24751
1856,29558;2,25283
1854,24443;2,25859
1852,19327;2,26523
1850,14212;2,27255
1848,09096;2,28014
1846,0398;2,2867
1843,98865;2,29173
1841,93749;2,29731
1839,88634;2,30421
1837,83518;2,31181
1835,78403;2,31981
1833,73287;2,32847
1831,68172;2,33802
1829,63056;2,34806
1827,57941;2,35765
1825,52825;2,36675
1823,4771;2,3779
1821,42594;2,39128
1819,37478;2,40497
1817,32363;2,41945
1815,27247;2,436
1813,22132;2,45666
1811,17016;2,48401
1809,11901;2,51832
1807,06785;2,56037
1805,0167;2,61351
1802,96554;2,68075
1800,91439;2,75692
1798,86323;2,82171
1796,81208;2,85905
1794,76092;2,86892
1792,70977;2,8476
1790,65861;2,79345
1788,60745;2,72806
1786,5563;2,66905
1784,50514;2,61999
1782,45399;2,58109
1780,40283;2,55158
1778,35168;2,53288
1776,30052;2,52297
1774,24937;2,51456
1772,19821;2,50594
1770,14706;2,50282
1768,0959;2,50489
1766,04475;2,50704
1763,99359;2,50693
1761,94244;2,50615
1759,89128;2,50751
1757,84012;2,51128
1755,78897;2,5185
1753,73781;2,52771
1751,68666;2,53314
1749,6355;2,53517
1747,58435;2,53998
1745,53319;2,54758
1743,48204;2,55321
1741,43088;2,55522
1739,37973;2,55579
1737,32857;2,55678
1735,27742;2,55715
1733,22626;2,55746
1731,17511;2,55875
1729,12395;2,55937
1727,07279;2,55981
1725,02164;2,55962
1722,97048;2,55731
1720,91933;2,55507
1718,86817;2,55624
1716,81702;2,56144
1714,76586;2,56779
1712,71471;2,57189
1710,66355;2,57234
1708,6124;2,5714
1706,56124;2,57177
1704,51009;2,57416
1702,45893;2,57699
1700,40778;2,57863
1698,35662;2,5808
1696,30546;2,58479
1694,25431;2,5931
1692,20315;2,60384
1690,152;2,61369
1688,10084;2,62131
1686,04969;2,62598
1683,99853;2,63126
1681,94738;2,63954
1679,89622;2,64642
1677,84507;2,65138
1675,79391;2,65563
1673,74276;2,65738
1671,6916;2,65462
1669,64045;2,65155
1667,58929;2,6544
1665,53813;2,66239
1663,48698;2,67306
1661,43582;2,68337
1659,38467;2,6885
1657,33351;2,6891
1655,28236;2,68881
1653,2312;2,69291
1651,18005;2,70455
1649,12889;2,7131
1647,07774;2,71342
1645,02658;2,71067
1642,97543;2,70879
1640,92427;2,70647
1638,87312;2,70447
1636,82196;2,70555
1634,7708;2,70996
1632,71965;2,71366
1630,66849;2,71463
1628,61734;2,71484
1626,56618;2,71545
1624,51503;2,71667
1622,46387;2,71949
1620,41272;2,72113
1618,36156;2,7184
1616,31041;2,71506
1614,25925;2,71694
1612,2081;2,72068
1610,15694;2,7223
1608,10579;2,72515
1606,05463;2,73007
1604,00347;2,73094
1601,95232;2,72764
1599,90116;2,72698
1597,85001;2,73093
1595,79885;2,73727
1593,7477;2,74465
1591,69654;2,75145
1589,64539;2,75539
1587,59423;2,75522
1585,54308;2,74837
1583,49192;2,73334
1581,44077;2,71619
1579,38961;2,70207
1577,33846;2,68563
1575,2873;2,6649
1573,23614;2,64702
1571,18499;2,62836
1569,13383;2,60673
1567,08268;2,58845
1565,03152;2,57321
1562,98037;2,55946
1560,92921;2,54057
1558,87806;2,51083
1556,8269;2,48923
1554,77575;2,48201
1552,72459;2,47802
1550,67344;2,47232
1548,62228;2,46726
1546,57113;2,46586
1544,51997;2,46786
1542,46881;2,46942
1540,41766;2,4658
1538,3665;2,46489
1536,31535;2,46871
1534,26419;2,46799
1532,21304;2,46401
1530,16188;2,46204
1528,11073;2,46062
1526,05957;2,46143
1524,00842;2,4685
1521,95726;2,47821
1519,90611;2,48287
1517,85495;2,48057
1515,80379;2,47891
1513,75264;2,48239
1511,70148;2,48574
1509,65033;2,48347
1507,59917;2,47579
1505,54802;2,4738
1503,49686;2,48213
1501,44571;2,49052
1499,39455;2,49414
1497,3434;2,49435
1495,29224;2,4946
1493,24109;2,49713
1491,18993;2,49838
1489,13878;2,49575
1487,08762;2,49298
1485,03646;2,49282
1482,98531;2,49374
1480,93415;2,49576
1478,883;2,49905
1476,83184;2,49962
1474,78069;2,49642
1472,72953;2,49386
1470,67838;2,49392
1468,62722;2,49446
1466,57607;2,49275
1464,52491;2,48861
1462,47376;2,48489
1460,4226;2,48171
1458,37145;2,47821
1456,32029;2,4773
1454,26913;2,47905
1452,21798;2,47958
1450,16682;2,4758
1448,11567;2,46602
1446,06451;2,45613
1444,01336;2,45286
1441,9622;2,45419
1439,91105;2,45586
1437,85989;2,45461
1435,80874;2,44906
1433,75758;2,44161
1431,70643;2,4328
1429,65527;2,42225
1427,60412;2,41131
1425,55296;2,40005
1423,5018;2,38836
1421,45065;2,37469
1419,39949;2,35607
1417,34834;2,33806
1415,29718;2,32528
1413,24603;2,31222
1411,19487;2,29696
1409,14372;2,28509
1407,09256;2,28258
1405,04141;2,29083
1402,99025;2,30537
1400,9391;2,32016
1398,88794;2,33452
1396,83679;2,34966
1394,78563;2,36466
1392,73447;2,37954
1390,68332;2,39531
1388,63216;2,41279
1386,58101;2,43136
1384,52985;2,44777
1382,4787;2,45993
1380,42754;2,46995
1378,37639;2,48141
1376,32523;2,49429
1374,27408;2,50432
1372,22292;2,50891
1370,17177;2,51013
1368,12061;2,51027
1366,06946;2,51032
1364,0183;2,51091
1361,96714;2,51165
1359,91599;2,5112
1357,86483;2,5095
1355,81368;2,50872
1353,76252;2,50981
1351,71137;2,51176
1349,66021;2,51445
1347,60906;2,51555
1345,5579;2,51378
1343,50675;2,51303
1341,45559;2,51374
1339,40444;2,51323
1337,35328;2,51104
1335,30213;2,5075
1333,25097;2,50418
1331,19981;2,50225
1329,14866;2,5021
1327,0975;2,50497
1325,04635;2,50983
1322,99519;2,51217
1320,94404;2,50917
1318,89288;2,50523
1316,84173;2,50508
1314,79057;2,50602
1312,73942;2,50695
1310,68826;2,50933
1308,63711;2,51066
1306,58595;2,50931
1304,5348;2,50753
1302,48364;2,50653
1300,43248;2,5046
1298,38133;2,5004
1296,33017;2,49477
1294,27902;2,49146
1292,22786;2,49319
1290,17671;2,49581
1288,12555;2,49457
1286,0744;2,49341
1284,02324;2,49515
1281,97209;2,49639
1279,92093;2,49705
1277,86978;2,49803
1275,81862;2,49935
1273,76747;2,50101
1271,71631;2,50099
1269,66515;2,50002
1267,614;2,50036
1265,56284;2,50058
1263,51169;2,50083
1261,46053;2,50306
1259,40938;2,50571
1257,35822;2,50823
1255,30707;2,51123
1253,25591;2,51381
1251,20476;2,5135
1249,1536;2,50956
1247,10245;2,50712
1245,05129;2,50934
1243,00013;2,51368
1240,94898;2,51717
1238,89782;2,51911
1236,84667;2,51914
1234,79551;2,51654
1232,74436;2,51426
1230,6932;2,51654
1228,64205;2,52311
1226,59089;2,52986
1224,53974;2,53197
1222,48858;2,52882
1220,43743;2,52735
1218,38627;2,53157
1216,33512;2,53575
1214,28396;2,53831
1212,2328;2,54394
1210,18165;2,55094
1208,13049;2,55844
1206,07934;2,5661
1204,02818;2,56881
1201,97703;2,57066
1199,92587;2,57716
1197,87472;2,58279
1195,82356;2,58645
1193,77241;2,5925
1191,72125;2,5974
1189,6701;2,60168
1187,61894;2,60976
1185,56779;2,61656
1183,51663;2,62053
1181,46547;2,6261
1179,41432;2,62935
1177,36316;2,62483
1175,31201;2,61927
1173,26085;2,61823
1171,2097;2,61777
1169,15854;2,62081
1167,10739;2,62964
1165,05623;2,63398
1163,00508;2,62868
1160,95392;2,6235
1158,90277;2,62223
1156,85161;2,61851
1154,80046;2,61382
1152,7493;2,61214
1150,69814;2,61268
1148,64699;2,61305
1146,59583;2,61136
1144,54468;2,60906
1142,49352;2,60951
1140,44237;2,61252
1138,39121;2,61435
1136,34006;2,6157
1134,2889;2,61707
1132,23775;2,61726
1130,18659;2,6169
1128,13544;2,61377
1126,08428;2,60735
1124,03313;2,60066
1121,98197;2,59795
1119,93081;2,60298
1117,87966;2,60803
1115,8285;2,60498
1113,77735;2,60238
1111,72619;2,60214
1109,67504;2,6023
1107,62388;2,60861
1105,57273;2,61182
1103,52157;2,60386
1101,47042;2,59714
1099,41926;2,59481
1097,36811;2,59116
1095,31695;2,59128
1093,2658;2,59825
1091,21464;2,60681
1089,16348;2,61698
1087,11233;2,62861
1085,06117;2,63284
1083,01002;2,62596
1080,95886;2,61361
1078,90771;2,60251
1076,85655;2,59529
1074,8054;2,59158
1072,75424;2,58843
1070,70309;2,58131
1068,65193;2,5741
1066,60078;2,56825
1064,54962;2,55852
1062,49847;2,5512
1060,44731;2,55269
1058,39615;2,55441
1056,345;2,54935
1054,29384;2,54315
1052,24269;2,54283
1050,19153;2,54514
1048,14038;2,54518
1046,08922;2,54555
1044,03807;2,54641
1041,98691;2,5475
1039,93576;2,55258
1037,8846;2,5598
1035,83345;2,56411
1033,78229;2,56301
1031,73114;2,55767
1029,67998;2,5561
1027,62882;2,55878
1025,57767;2,55957
1023,52651;2,56283
1021,47536;2,56835
1019,4242;2,56996
1017,37305;2,56907
1015,32189;2,56789
1013,27074;2,56918
1011,21958;2,57295
1009,16843;2,57585
1007,11727;2,57503
1005,06612;2,56999
1003,01496;2,56819
1000,96381;2,56846
998,91265;2,56425
996,86149;2,56107
994,81034;2,5626
992,75918;2,56451
990,70803;2,55923
988,65687;2,54666
986,60572;2,53628
984,55456;2,53115
982,50341;2,53091
980,45225;2,5355
978,4011;2,53914
976,34994;2,53511
974,29879;2,52712
972,24763;2,52271
970,19647;2,52069
968,14532;2,51747
966,09416;2,51213
964,04301;2,50636
961,99185;2,50413
959,9407;2,50915
957,88954;2,51941
955,83839;2,52708
953,78723;2,52835
951,73608;2,52443
949,68492;2,52029
947,63377;2,52198
945,58261;2,52808
943,53146;2,53194
941,4803;2,53241
939,42914;2,53237
937,37799;2,5317
935,32683;2,53011
933,27568;2,52549
931,22452;2,51884
929,17337;2,51598
927,12221;2,5153
925,07106;2,5129
923,0199;2,51024
920,96875;2,5068
918,91759;2,5018
916,86644;2,49752
914,81528;2,49529
912,76413;2,49452
910,71297;2,49268
908,66181;2,4895
906,61066;2,48641
904,5595;2,48563
902,50835;2,48997
900,45719;2,49736
898,40604;2,50128
896,35488;2,49664
894,30373;2,48771
892,25257;2,46916
890,20142;2,43354
888,15026;2,41881
886,09911;2,47211
884,04795;2,58565
881,9968;2,68637
879,94564;2,70949
877,89448;2,66569
875,84333;2,59269
873,79217;2,52564
871,74102;2,49562
869,68986;2,51785
867,63871;2,56601
865,58755;2,59058
863,5364;2,58389
861,48524;2,56956
859,43409;2,56263
857,38293;2,56262
855,33178;2,55883
853,28062;2,55837
851,22947;2,58289
849,17831;2,61806
847,12715;2,61123
845,076;2,56741
843,02484;2,53273
840,97369;2,51673
838,92253;2,5123
836,87138;2,50974
834,82022;2,50691
832,76907;2,51052
830,71791;2,51988
828,66676;2,52499
826,6156;2,5232
824,56445;2,52607
822,51329;2,53268
820,46214;2,53694
818,41098;2,5445
816,35982;2,55327
814,30867;2,55902
812,25751;2,56806
810,20636;2,57831
808,1552;2,57614
806,10405;2,56342
804,05289;2,56056
802,00174;2,57361
799,95058;2,58318
797,89943;2,57818
795,84827;2,57775
793,79712;2,58811
791,74596;2,5972
789,69481;2,60221
787,64365;2,60212
785,59249;2,60021
783,54134;2,60365
781,49018;2,61166
779,43903;2,6188
777,38787;2,62402
775,33672;2,62569
773,28556;2,6205
771,23441;2,61634
769,18325;2,61202
767,1321;2,60005
765,08094;2,59882
763,02979;2,61325
760,97863;2,62547
758,92748;2,63202
756,87632;2,62978
754,82516;2,61602
752,77401;2,60461
750,72285;2,60207
748,6717;2,60284
746,62054;2,60485
744,56939;2,60916
742,51823;2,60954
740,46708;2,60673
738,41592;2,61419
736,36477;2,63475
734,31361;2,65791
732,26246;2,67371
730,2113;2,6849
728,16015;2,69371
726,10899;2,71054
724,05783;2,75132
722,00668;2,81522
719,95552;2,8925
717,90437;2,96026
715,85321;2,98022
713,80206;2,9374
711,7509;2,8756
709,69975;2,83899
707,64859;2,81858
705,59744;2,78622
703,54628;2,74333
701,49513;2,7126
699,44397;2,7034
697,39281;2,70771
695,34166;2,71062
693,2905;2,70032
691,23935;2,68086
689,18819;2,67062
687,13704;2,68139
685,08588;2,69899
683,03473;2,69678
680,98357;2,67508
678,93242;2,66021
676,88126;2,66204
674,83011;2,66727
672,77895;2,66877
670,7278;2,67498
668,67664;2,69435
666,62548;2,71542
664,57433;2,7224
662,52317;2,71779
660,47202;2,70548
658,42086;2,69185
656,36971;2,69063
654,31855;2,7017
652,2674;2,70914
650,21624;2,70851
648,16509;2,70049
646,11393;2,68531
644,06278;2,67862
642,01162;2,69676
639,96047;2,72323
637,90931;2,72863
635,85815;2,72027
633,807;2,72196
631,75584;2,73075
629,70469;2,73206
627,65353;2,73278
625,60238;2,7537
623,55122;2,77326
621,50007;2,77269
619,44891;2,76188
617,39776;2,74297
615,3466;2,7295
613,29545;2,73767
611,24429;2,76079
609,19314;2,77097
607,14198;2,75336
605,09082;2,74171
603,03967;2,77254
600,98851;2,83293
598,93736;2,87822
596,8862;2,88027
594,83505;2,83791
592,78389;2,7736
590,73274;2,73726
588,68158;2,76573
586,63043;2,84041
584,57927;2,88717
582,52812;2,87106
580,47696;2,8172
578,42581;2,76149
576,37465;2,73438
574,32349;2,74067
572,27234;2,76187
570,22118;2,77764
568,17003;2,79341
566,11887;2,82224
564,06772;2,84465
562,01656;2,84699
559,96541;2,84944
557,91425;2,86272
555,8631;2,87056
553,81194;2,87782
551,76079;2,88761
549,70963;2,91053
547,65848;2,90587
545,60732;2,83218
543,55616;2,76438
541,50501;2,77396
539,45385;2,83048
537,4027;2,86844
535,35154;2,87991
533,30039;2,90027
531,24923;2,92349
529,19808;2,92342
527,14692;2,91509
525,09577;2,887
523,04461;2,83473
520,99346;2,8
518,9423;2,81168
516,89115;2,87038
514,83999;2,94082
512,78883;2,96061
510,73768;2,94137
508,68652;2,94605
506,63537;2,98126
504,58421;3,01748
502,53306;3,00966
500,4819;2,97076
498,43075;2,92668
496,37959;2,89309
494,32844;2,88085
492,27728;2,88823
490,22613;2,91064
488,17497;2,9486
486,12382;3,00236
484,07266;3,08238
482,0215;3,17693
479,97035;3,18979
477,91919;3,13573
475,86804;3,03321
473,81688;2,94797
471,76573;2,97343
469,71457;3,11172
467,66342;3,23965
465,61226;3,23677
463,56111;3,14288
461,50995;3,08152
459,4588;3,03914
457,40764;3,02748
455,35649;3,14572
453,30533;3,28436
451,25417;3,24521
449,20302;3,13072
447,15186;3,13417
445,10071;3,13573
443,04955;3,03998
440,9984;2,98925
438,94724;2,98128
436,89609;2,92086
434,84493;2,87673
432,79378;2,93006
430,74262;3,01082
428,69147;3,0853
426,64031;3,20536
424,58916;3,31131
422,538;3,20815
420,48684;2,99261
418,43569;2,93071
416,38453;2,89115
414,33338;2,86814
412,28222;2,86474
410,23107;2,84042
408,17991;2,8214
406,12876;2,79782
404,0776;2,77412
402,02645;2,82722
399,97529;2,9067
