3997,70175;1,61535
3995,6506;1,61492
3993,59944;1,6157
3991,54829;1,61651
3989,49713;1,61589
3987,44598;1,6155
3985,39482;1,61661
3983,34367;1,61781
3981,29251;1,61845
3979,24136;1,61901
3977,1902;1,61966
3975,13905;1,62033
3973,08789;1,62062
3971,03673;1,62067
3968,98558;1,62126
3966,93442;1,62217
3964,88327;1,62258
3962,83211;1,62314
3960,78096;1,62451
3958,7298;1,62569
3956,67865;1,6262
3954,62749;1,62686
3952,57634;1,62804
3950,52518;1,62896
3948,47403;1,62866
3946,42287;1,62795
3944,37172;1,62784
3942,32056;1,62788
3940,2694;1,62785
3938,21825;1,62776
3936,16709;1,62742
3934,11594;1,62669
3932,06478;1,62545
3930,01363;1,62389
3927,96247;1,62274
3925,91132;1,62195
3923,86016;1,6206
3921,80901;1,61849
3919,75785;1,61605
3917,7067;1,61369
3915,65554;1,61223
3913,60439;1,6117
3911,55323;1,61094
3909,50207;1,60975
3907,45092;1,60876
3905,39976;1,60774
3903,34861;1,60618
3901,29745;1,60436
3899,2463;1,60299
3897,19514;1,60305
3895,14399;1,6037
3893,09283;1,60326
3891,04168;1,6027
3888,99052;1,60387
3886,93937;1,60481
3884,88821;1,60351
3882,83706;1,60098
3880,7859;1,59898
3878,73474;1,59906
3876,68359;1,60004
3874,63243;1,59993
3872,58128;1,59924
3870,53012;1,59857
3868,47897;1,59897
3866,42781;1,60016
3864,37666;1,60031
3862,3255;1,59944
3860,27435;1,5987
3858,22319;1,59859
3856,17204;1,59779
3854,12088;1,59512
3852,06973;1,59356
3850,01857;1,5946
3847,96741;1,59583
3845,91626;1,59617
3843,8651;1,59578
3841,81395;1,59478
3839,76279;1,59335
3837,71164;1,59288
3835,66048;1,59396
3833,60933;1,59492
3831,55817;1,59554
3829,50702;1,59641
3827,45586;1,59666
3825,40471;1,59631
3823,35355;1,59558
3821,3024;1,59508
3819,25124;1,5967
3817,20008;1,59815
3815,14893;1,5978
3813,09777;1,59758
3811,04662;1,59786
3808,99546;1,59744
3806,94431;1,5964
3804,89315;1,59644
3802,842;1,59625
3800,79084;1,59608
3798,73969;1,59803
3796,68853;1,60002
3794,63738;1,6009
3792,58622;1,60145
3790,53506;1,6022
3788,48391;1,60334
3786,43275;1,60417
3784,3816;1,60446
3782,33044;1,60503
3780,27929;1,60529
3778,22813;1,60504
3776,17698;1,60539
3774,12582;1,60641
3772,07467;1,60694
3770,02351;1,60645
3767,97236;1,60626
3765,9212;1,6071
3763,87005;1,60905
3761,81889;1,61073
3759,76773;1,61066
3757,71658;1,61033
3755,66542;1,61134
3753,61427;1,61204
3751,56311;1,61117
3749,51196;1,61144
3747,4608;1,61348
3745,40965;1,61346
3743,35849;1,61314
3741,30734;1,6156
3739,25618;1,61859
3737,20503;1,62075
3735,15387;1,62254
3733,10272;1,62424
3731,05156;1,62637
3729,0004;1,62862
3726,94925;1,62989
3724,89809;1,63112
3722,84694;1,63378
3720,79578;1,63748
3718,74463;1,64041
3716,69347;1,64192
3714,64232;1,6425
3712,59116;1,64317
3710,54001;1,64602
3708,48885;1,65113
3706,4377;1,65652
3704,38654;1,66177
3702,33539;1,66814
3700,28423;1,67704
3698,23307;1,68708
3696,18192;1,69511
3694,13076;1,69965
3692,07961;1,70132
3690,02845;1,70127
3687,9773;1,70104
3685,92614;1,70229
3683,87499;1,70441
3681,82383;1,70665
3679,77268;1,71001
3677,72152;1,71486
3675,67037;1,71982
3673,61921;1,72501
3671,56806;1,73072
3669,5169;1,73827
3667,46574;1,74739
3665,41459;1,75439
3663,36343;1,75898
3661,31228;1,76389
3659,26112;1,77036
3657,20997;1,77715
3655,15881;1,78406
3653,10766;1,79129
3651,0565;1,79869
3649,00535;1,8072
3646,95419;1,81627
3644,90304;1,82411
3642,85188;1,83003
3640,80073;1,83491
3638,74957;1,83939
3636,69841;1,84335
3634,64726;1,84751
3632,5961;1,85255
3630,54495;1,85645
3628,49379;1,85913
3626,44264;1,86433
3624,39148;1,87214
3622,34033;1,88044
3620,28917;1,88728
3618,23802;1,89169
3616,18686;1,89436
3614,13571;1,89684
3612,08455;1,90079
3610,0334;1,90623
3607,98224;1,91268
3605,93108;1,92056
3603,87993;1,92791
3601,82877;1,93224
3599,77762;1,93484
3597,72646;1,93785
3595,67531;1,94057
3593,62415;1,9435
3591,573;1,94874
3589,52184;1,95506
3587,47069;1,95961
3585,41953;1,96283
3583,36838;1,96648
3581,31722;1,96998
3579,26607;1,9724
3577,21491;1,97513
3575,16375;1,98006
3573,1126;1,98627
3571,06144;1,99136
3569,01029;1,99475
3566,95913;1,99787
3564,90798;2,00158
3562,85682;2,0052
3560,80567;2,00789
3558,75451;2,00954
3556,70336;2,01195
3554,6522;2,0166
3552,60105;2,02179
3550,54989;2,02503
3548,49874;2,02664
3546,44758;2,02946
3544,39642;2,03449
3542,34527;2,03903
3540,29411;2,04217
3538,24296;2,04573
3536,1918;2,04933
3534,14065;2,05114
3532,08949;2,05147
3530,03834;2,05205
3527,98718;2,05426
3525,93603;2,0575
3523,88487;2,06086
3521,83372;2,06523
3519,78256;2,06924
3517,73141;2,07095
3515,68025;2,07211
3513,62909;2,07409
3511,57794;2,07567
3509,52678;2,07613
3507,47563;2,07666
3505,42447;2,07878
3503,37332;2,08254
3501,32216;2,08561
3499,27101;2,0868
3497,21985;2,08831
3495,1687;2,09116
3493,11754;2,09423
3491,06639;2,09536
3489,01523;2,09325
3486,96407;2,0919
3484,91292;2,09495
3482,86176;2,09971
3480,81061;2,10328
3478,75945;2,105
3476,7083;2,10565
3474,65714;2,10707
3472,60599;2,10916
3470,55483;2,11097
3468,50368;2,11185
3466,45252;2,11125
3464,40137;2,1106
3462,35021;2,11175
3460,29906;2,11477
3458,2479;2,11731
3456,19674;2,11802
3454,14559;2,12058
3452,09443;2,12588
3450,04328;2,12852
3447,99212;2,12691
3445,94097;2,12529
3443,88981;2,12457
3441,83866;2,12382
3439,7875;2,12567
3437,73635;2,12891
3435,68519;2,13046
3433,63404;2,13247
3431,58288;2,13552
3429,53173;2,1371
3427,48057;2,13746
3425,42941;2,13826
3423,37826;2,13852
3421,3271;2,13659
3419,27595;2,13392
3417,22479;2,13287
3415,17364;2,13525
3413,12248;2,1407
3411,07133;2,1458
3409,02017;2,14772
3406,96902;2,14686
3404,91786;2,14508
3402,86671;2,14374
3400,81555;2,14435
3398,7644;2,14678
3396,71324;2,14885
3394,66208;2,15015
3392,61093;2,15152
3390,55977;2,15174
3388,50862;2,14992
3386,45746;2,14866
3384,40631;2,15032
3382,35515;2,15395
3380,304;2,15603
3378,25284;2,15574
3376,20169;2,1558
3374,15053;2,15717
3372,09938;2,15894
3370,04822;2,16031
3367,99707;2,1621
3365,94591;2,16584
3363,89475;2,16793
3361,8436;2,16554
3359,79244;2,16438
3357,74129;2,16654
3355,69013;2,16866
3353,63898;2,1702
3351,58782;2,17064
3349,53667;2,17017
3347,48551;2,17139
3345,43436;2,1743
3343,3832;2,17595
3341,33205;2,17563
3339,28089;2,17523
3337,22974;2,17586
3335,17858;2,17704
3333,12742;2,17846
3331,07627;2,17987
3329,02511;2,18049
3326,97396;2,18098
3324,9228;2,18287
3322,87165;2,18677
3320,82049;2,19142
3318,76934;2,19501
3316,71818;2,19616
3314,66703;2,19451
3312,61587;2,19297
3310,56472;2,19428
3308,51356;2,19604
3306,46241;2,19604
3304,41125;2,19651
3302,36009;2,19822
3300,30894;2,19969
3298,25778;2,19933
3296,20663;2,19647
3294,15547;2,19409
3292,10432;2,19552
3290,05316;2,19923
3288,00201;2,20098
3285,95085;2,1984
3283,8997;2,19284
3281,84854;2,18922
3279,79739;2,18959
3277,74623;2,1901
3275,69508;2,18726
3273,64392;2,18264
3271,59276;2,17975
3269,54161;2,17863
3267,49045;2,17844
3265,4393;2,17834
3263,38814;2,17657
3261,33699;2,17309
3259,28583;2,16918
3257,23468;2,16616
3255,18352;2,16538
3253,13237;2,1655
3251,08121;2,16319
3249,03006;2,15886
3246,9789;2,15515
3244,92775;2,1522
3242,87659;2,14919
3240,82543;2,14571
3238,77428;2,14265
3236,72312;2,14181
3234,67197;2,1414
3232,62081;2,13913
3230,56966;2,13734
3228,5185;2,13704
3226,46735;2,13607
3224,41619;2,13326
3222,36504;2,1301
3220,31388;2,12858
3218,26273;2,12791
3216,21157;2,12639
3214,16041;2,12418
3212,10926;2,12226
3210,0581;2,12101
3208,00695;2,1206
3205,95579;2,12001
3203,90464;2,11769
3201,85348;2,11413
3199,80233;2,11088
3197,75117;2,1083
3195,70002;2,10613
3193,64886;2,10441
3191,59771;2,10249
3189,54655;2,10006
3187,4954;2,09761
3185,44424;2,09492
3183,39308;2,09227
3181,34193;2,0903
3179,29077;2,08874
3177,23962;2,08744
3175,18846;2,08578
3173,13731;2,083
3171,08615;2,08045
3169,035;2,07896
3166,98384;2,07683
3164,93269;2,07358
3162,88153;2,07076
3160,83038;2,06856
3158,77922;2,06614
3156,72807;2,06367
3154,67691;2,06213
3152,62575;2,06107
3150,5746;2,05843
3148,52344;2,05486
3146,47229;2,05276
3144,42113;2,05193
3142,36998;2,05137
3140,31882;2,05011
3138,26767;2,04759
3136,21651;2,0451
3134,16536;2,04299
3132,1142;2,04022
3130,06305;2,03765
3128,01189;2,03664
3125,96074;2,03614
3123,90958;2,03451
3121,85842;2,03236
3119,80727;2,03142
3117,75611;2,0312
3115,70496;2,03039
3113,6538;2,03005
3111,60265;2,03124
3109,55149;2,03276
3107,50034;2,03259
3105,44918;2,03067
3103,39803;2,02904
3101,34687;2,02795
3099,29572;2,02676
3097,24456;2,02665
3095,19341;2,02826
3093,14225;2,02997
3091,09109;2,02981
3089,03994;2,02764
3086,98878;2,02663
3084,93763;2,02885
3082,88647;2,03134
3080,83532;2,03258
3078,78416;2,03288
3076,73301;2,03136
3074,68185;2,02964
3072,6307;2,02943
3070,57954;2,02987
3068,52839;2,03024
3066,47723;2,02958
3064,42608;2,02759
3062,37492;2,026
3060,32376;2,02447
3058,27261;2,02159
3056,22145;2,01878
3054,1703;2,01721
3052,11914;2,01631
3050,06799;2,01539
3048,01683;2,01348
3045,96568;2,01047
3043,91452;2,00726
3041,86337;2,00429
3039,81221;2,00257
3037,76106;2,00221
3035,7099;2,00171
3033,65875;2,00139
3031,60759;2,00153
3029,55643;2,0006
3027,50528;1,9989
3025,45412;1,99745
3023,40297;1,99501
3021,35181;1,99175
3019,30066;1,98975
3017,2495;1,9883
3015,19835;1,9858
3013,14719;1,98331
3011,09604;1,98199
3009,04488;1,98132
3006,99373;1,98113
3004,94257;1,98162
3002,89142;1,98169
3000,84026;1,98065
2998,7891;1,98021
2996,73795;1,98187
2994,68679;1,98474
2992,63564;1,98714
2990,58448;1,98892
2988,53333;1,99127
2986,48217;1,99528
2984,43102;2,00073
2982,37986;2,00559
2980,32871;2,00845
2978,27755;2,01043
2976,2264;2,01421
2974,17524;2,02006
2972,12409;2,02432
2970,07293;2,02663
2968,02177;2,02911
2965,97062;2,03051
2963,91946;2,03063
2961,86831;2,03166
2959,81715;2,03327
2957,766;2,03207
2955,71484;2,02713
2953,66369;2,02203
2951,61253;2,01915
2949,56138;2,01761
2947,51022;2,0164
2945,45907;2,01547
2943,40791;2,01519
2941,35675;2,01519
2939,3056;2,01543
2937,25444;2,01663
2935,20329;2,01754
2933,15213;2,01732
2931,10098;2,01695
2929,04982;2,01637
2926,99867;2,01431
2924,94751;2,01073
2922,89636;2,00777
2920,8452;2,00576
2918,79405;2,00374
2916,74289;2,00173
2914,69174;1,99796
2912,64058;1,99226
2910,58942;1,98821
2908,53827;1,98667
2906,48711;1,98477
2904,43596;1,98154
2902,3848;1,9786
2900,33365;1,9761
2898,28249;1,97315
2896,23134;1,97053
2894,18018;1,96935
2892,12903;1,96954
2890,07787;1,97009
2888,02672;1,96986
2885,97556;1,96967
2883,92441;1,97093
2881,87325;1,97269
2879,82209;1,97465
2877,77094;1,97726
2875,71978;1,97826
2873,66863;1,97698
2871,61747;1,97494
2869,56632;1,97153
2867,51516;1,96669
2865,46401;1,96191
2863,41285;1,95675
2861,3617;1,95079
2859,31054;1,94556
2857,25939;1,9416
2855,20823;1,93766
2853,15708;1,93335
2851,10592;1,9294
2849,05476;1,92608
2847,00361;1,92239
2844,95245;1,91782
2842,9013;1,91346
2840,85014;1,90968
2838,79899;1,90639
2836,74783;1,90397
2834,69668;1,90208
2832,64552;1,90009
2830,59437;1,89739
2828,54321;1,89423
2826,49206;1,89116
2824,4409;1,88861
2822,38975;1,8866
2820,33859;1,88468
2818,28743;1,88322
2816,23628;1,88281
2814,18512;1,88255
2812,13397;1,88055
2810,08281;1,87744
2808,03166;1,8756
2805,9805;1,87485
2803,92935;1,87383
2801,87819;1,87251
2799,82704;1,87113
2797,77588;1,86948
2795,72473;1,8679
2793,67357;1,86716
2791,62242;1,86666
2789,57126;1,86518
2787,5201;1,86293
2785,46895;1,86047
2783,41779;1,85833
2781,36664;1,85744
2779,31548;1,85641
2777,26433;1,85386
2775,21317;1,85196
2773,16202;1,85152
2771,11086;1,85072
2769,05971;1,84966
2767,00855;1,8488
2764,9574;1,84731
2762,90624;1,84582
2760,85509;1,84504
2758,80393;1,8443
2756,75277;1,84318
2754,70162;1,84224
2752,65046;1,84202
2750,59931;1,84141
2748,54815;1,83951
2746,497;1,83783
2744,44584;1,83716
2742,39469;1,83638
2740,34353;1,83539
2738,29238;1,83462
2736,24122;1,83366
2734,19007;1,8326
2732,13891;1,83152
2730,08776;1,83064
2728,0366;1,83035
2725,98544;1,82932
2723,93429;1,82748
2721,88313;1,82623
2719,83198;1,825
2717,78082;1,82375
2715,72967;1,82325
2713,67851;1,82258
2711,62736;1,82123
2709,5762;1,82005
2707,52505;1,81915
2705,47389;1,81827
2703,42274;1,81767
2701,37158;1,81761
2699,32043;1,81767
2697,26927;1,8167
2695,21811;1,81537
2693,16696;1,81488
2691,1158;1,81431
2689,06465;1,81344
2687,01349;1,81317
2684,96234;1,81326
2682,91118;1,81333
2680,86003;1,81332
2678,80887;1,81287
2676,75772;1,81244
2674,70656;1,81244
2672,65541;1,81218
2670,60425;1,81163
2668,55309;1,81089
2666,50194;1,80988
2664,45078;1,8093
2662,39963;1,8096
2660,34847;1,81041
2658,29732;1,81119
2656,24616;1,81216
2654,19501;1,81314
2652,14385;1,8132
2650,0927;1,81298
2648,04154;1,81352
2645,99039;1,81436
2643,93923;1,81534
2641,88808;1,81675
2639,83692;1,81821
2637,78576;1,81988
2635,73461;1,82217
2633,68345;1,82445
2631,6323;1,826
2629,58114;1,82713
2627,52999;1,82801
2625,47883;1,82824
2623,42768;1,82785
2621,37652;1,82738
2619,32537;1,82685
2617,27421;1,82615
2615,22306;1,82594
2613,1719;1,82674
2611,12075;1,82762
2609,06959;1,82755
2607,01843;1,82724
2604,96728;1,82758
2602,91612;1,82832
2600,86497;1,82862
2598,81381;1,82845
2596,76266;1,82925
2594,7115;1,83115
2592,66035;1,8328
2590,60919;1,83404
2588,55804;1,83488
2586,50688;1,83569
2584,45573;1,83678
2582,40457;1,83724
2580,35342;1,83755
2578,30226;1,83817
2576,2511;1,83798
2574,19995;1,837
2572,14879;1,83631
2570,09764;1,83654
2568,04648;1,83729
2565,99533;1,83825
2563,94417;1,83977
2561,89302;1,84169
2559,84186;1,84362
2557,79071;1,84549
2555,73955;1,84726
2553,6884;1,84897
2551,63724;1,85053
2549,58609;1,8518
2547,53493;1,85285
2545,48377;1,85364
2543,43262;1,85461
2541,38146;1,85634
2539,33031;1,85833
2537,27915;1,86026
2535,228;1,86279
2533,17684;1,86581
2531,12569;1,86865
2529,07453;1,87117
2527,02338;1,87361
2524,97222;1,87612
2522,92107;1,87782
2520,86991;1,87758
2518,81876;1,87539
2516,7676;1,8718
2514,71644;1,86772
2512,66529;1,86365
2510,61413;1,85985
2508,56298;1,85674
2506,51182;1,85334
2504,46067;1,84892
2502,40951;1,84458
2500,35836;1,8407
2498,3072;1,83634
2496,25605;1,83205
2494,20489;1,82862
2492,15374;1,82512
2490,10258;1,82102
2488,05143;1,81696
2486,00027;1,8132
2483,94911;1,81007
2481,89796;1,80769
2479,8468;1,80551
2477,79565;1,80302
2475,74449;1,80009
2473,69334;1,79737
2471,64218;1,79555
2469,59103;1,79393
2467,53987;1,7918
2465,48872;1,7895
2463,43756;1,78748
2461,38641;1,78582
2459,33525;1,78423
2457,2841;1,78243
2455,23294;1,78076
2453,18178;1,77964
2451,13063;1,77876
2449,07947;1,77792
2447,02832;1,77748
2444,97716;1,77684
2442,92601;1,77527
2440,87485;1,77333
2438,8237;1,77212
2436,77254;1,77203
2434,72139;1,77172
2432,67023;1,77053
2430,61908;1,76981
2428,56792;1,76995
2426,51677;1,7701
2424,46561;1,76962
2422,41445;1,7684
2420,3633;1,76705
2418,31214;1,76622
2416,26099;1,76589
2414,20983;1,76512
2412,15868;1,7638
2410,10752;1,76329
2408,05637;1,76354
2406,00521;1,76358
2403,95406;1,76321
2401,9029;1,76251
2399,85175;1,7619
2397,80059;1,76166
2395,74944;1,76162
2393,69828;1,76158
2391,64712;1,76175
2389,59597;1,76218
2387,54481;1,76248
2385,49366;1,76212
2383,4425;1,76114
2381,39135;1,76037
2379,34019;1,76046
2377,28904;1,76092
2375,23788;1,76107
2373,18673;1,76155
2371,13557;1,76324
2369,08442;1,76534
2367,03326;1,76644
2364,9821;1,76641
2362,93095;1,76665
2360,87979;1,76807
2358,82864;1,76898
2356,77748;1,76806
2354,72633;1,76628
2352,67517;1,76548
2350,62402;1,76629
2348,57286;1,76706
2346,52171;1,76657
2344,47055;1,76598
2342,4194;1,76625
2340,36824;1,76645
2338,31709;1,76633
2336,26593;1,76699
2334,21477;1,7689
2332,16362;1,77057
2330,11246;1,77023
2328,06131;1,76859
2326,01015;1,76748
2323,959;1,76673
2321,90784;1,76549
2319,85669;1,76479
2317,80553;1,76517
2315,75438;1,76573
2313,70322;1,76628
2311,65207;1,76667
2309,60091;1,76636
2307,54976;1,76569
2305,4986;1,76532
2303,44744;1,76554
2301,39629;1,76604
2299,34513;1,76609
2297,29398;1,76552
2295,24282;1,76506
2293,19167;1,76539
2291,14051;1,76611
2289,08936;1,76625
2287,0382;1,76594
2284,98705;1,76572
2282,93589;1,76572
2280,88474;1,76614
2278,83358;1,76682
2276,78243;1,7672
2274,73127;1,7672
2272,68011;1,76741
2270,62896;1,76819
2268,5778;1,76906
2266,52665;1,76956
2264,47549;1,76978
2262,42434;1,77002
2260,37318;1,7704
2258,32203;1,77047
2256,27087;1,77015
2254,21972;1,77029
2252,16856;1,77136
2250,11741;1,77283
2248,06625;1,77401
2246,0151;1,77498
2243,96394;1,7759
2241,91278;1,77617
2239,86163;1,7762
2237,81047;1,77679
2235,75932;1,77757
2233,70816;1,77809
2231,65701;1,77816
2229,60585;1,7782
2227,5547;1,77873
2225,50354;1,77939
2223,45239;1,78
2221,40123;1,78055
2219,35008;1,78069
2217,29892;1,78039
2215,24777;1,78047
2213,19661;1,7812
2211,14545;1,78217
2209,0943;1,78347
2207,04314;1,78455
2204,99199;1,78462
2202,94083;1,78463
2200,88968;1,78568
2198,83852;1,78693
2196,78737;1,78754
2194,73621;1,78787
2192,68506;1,7879
2190,6339;1,78764
2188,58275;1,78765
2186,53159;1,78792
2184,48044;1,78862
2182,42928;1,78963
2180,37812;1,78995
2178,32697;1,78996
2176,27581;1,79051
2174,22466;1,7909
2172,1735;1,79101
2170,12235;1,79176
2168,07119;1,79285
2166,02004;1,79381
2163,96888;1,79478
2161,91773;1,7955
2159,86657;1,79629
2157,81542;1,79755
2155,76426;1,79902
2153,71311;1,80038
2151,66195;1,80125
2149,61079;1,80163
2147,55964;1,80206
2145,50848;1,80277
2143,45733;1,80333
2141,40617;1,80338
2139,35502;1,80279
2137,30386;1,80196
2135,25271;1,80168
2133,20155;1,80153
2131,1504;1,80078
2129,09924;1,80002
2127,04809;1,79985
2124,99693;1,79954
2122,94578;1,79817
2120,89462;1,79637
2118,84346;1,79497
2116,79231;1,79392
2114,74115;1,79348
2112,69;1,7936
2110,63884;1,79379
2108,58769;1,79364
2106,53653;1,79306
2104,48538;1,79227
2102,43422;1,79134
2100,38307;1,7909
2098,33191;1,79124
2096,28076;1,7916
2094,2296;1,79164
2092,17844;1,79173
2090,12729;1,79186
2088,07613;1,79171
2086,02498;1,79136
2083,97382;1,7913
2081,92267;1,79142
2079,87151;1,791
2077,82036;1,79025
2075,7692;1,79004
2073,71805;1,79041
2071,66689;1,79086
2069,61574;1,79131
2067,56458;1,79177
2065,51343;1,79199
2063,46227;1,79188
2061,41111;1,79138
2059,35996;1,79071
2057,3088;1,79047
2055,25765;1,79074
2053,20649;1,79114
2051,15534;1,79128
2049,10418;1,79078
2047,05303;1,79027
2045,00187;1,79055
2042,95072;1,79114
2040,89956;1,79159
2038,84841;1,79187
2036,79725;1,79201
2034,7461;1,79229
2032,69494;1,7923
2030,64378;1,79179
2028,59263;1,79115
2026,54147;1,79055
2024,49032;1,79044
2022,43916;1,79091
2020,38801;1,79104
2018,33685;1,79098
2016,2857;1,79177
2014,23454;1,79286
2012,18339;1,79314
2010,13223;1,79299
2008,08108;1,79275
2006,02992;1,79202
2003,97877;1,79151
2001,92761;1,79213
1999,87645;1,793
1997,8253;1,79292
1995,77414;1,79265
1993,72299;1,79262
1991,67183;1,79221
1989,62068;1,79192
1987,56952;1,79212
1985,51837;1,79254
1983,46721;1,79282
1981,41606;1,79279
1979,3649;1,79262
1977,31375;1,79259
1975,26259;1,79273
1973,21144;1,79311
1971,16028;1,79343
1969,10912;1,79313
1967,05797;1,79297
1965,00681;1,79403
1962,95566;1,79563
1960,9045;1,79676
1958,85335;1,7969
1956,80219;1,79606
1954,75104;1,7951
1952,69988;1,7947
1950,64873;1,79476
1948,59757;1,7952
1946,54642;1,79578
1944,49526;1,79576
1942,44411;1,79505
1940,39295;1,79481
1938,34179;1,79508
1936,29064;1,79516
1934,23948;1,79503
1932,18833;1,79511
1930,13717;1,79556
1928,08602;1,79602
1926,03486;1,79656
1923,98371;1,79733
1921,93255;1,7981
1919,8814;1,79803
1917,83024;1,7974
1915,77909;1,79782
1913,72793;1,79883
1911,67678;1,79967
1909,62562;1,80048
1907,57446;1,80113
1905,52331;1,80128
1903,47215;1,80136
1901,421;1,80233
1899,36984;1,80412
1897,31869;1,80548
1895,26753;1,80612
1893,21638;1,80716
1891,16522;1,80833
1889,11407;1,8089
1887,06291;1,8092
1885,01176;1,80941
1882,9606;1,80983
1880,90945;1,81047
1878,85829;1,811
1876,80713;1,81119
1874,75598;1,81116
1872,70482;1,81168
1870,65367;1,81291
1868,60251;1,81447
1866,55136;1,81568
1864,5002;1,81583
1862,44905;1,81555
1860,39789;1,81602
1858,34674;1,81729
1856,29558;1,81831
1854,24443;1,81879
1852,19327;1,81975
1850,14212;1,8216
1848,09096;1,82362
1846,0398;1,82488
1843,98865;1,82601
1841,93749;1,82855
1839,88634;1,83151
1837,83518;1,83454
1835,78403;1,83874
1833,73287;1,84394
1831,68172;1,8495
1829,63056;1,85574
1827,57941;1,86211
1825,52825;1,86749
1823,4771;1,87238
1821,42594;1,87645
1819,37478;1,8794
1817,32363;1,88216
1815,27247;1,88483
1813,22132;1,88656
1811,17016;1,88676
1809,11901;1,88611
1807,06785;1,88646
1805,0167;1,8894
1802,96554;1,89467
1800,91439;1,90028
1798,86323;1,90479
1796,81208;1,90814
1794,76092;1,90916
1792,70977;1,90589
1790,65861;1,90011
1788,60745;1,89473
1786,5563;1,88925
1784,50514;1,88388
1782,45399;1,87998
1780,40283;1,87775
1778,35168;1,87659
1776,30052;1,87546
1774,24937;1,87405
1772,19821;1,87316
1770,14706;1,87363
1768,0959;1,87469
1766,04475;1,876
1763,99359;1,87717
1761,94244;1,87839
1759,89128;1,88065
1757,84012;1,88278
1755,78897;1,88475
1753,73781;1,88711
1751,68666;1,88889
1749,6355;1,89069
1747,58435;1,89346
1745,53319;1,89702
1743,48204;1,90097
1741,43088;1,90458
1739,37973;1,90769
1737,32857;1,91004
1735,27742;1,91064
1733,22626;1,91309
1731,17511;1,91922
1729,12395;1,92495
1727,07279;1,92963
1725,02164;1,93449
1722,97048;1,93999
1720,91933;1,94556
1718,86817;1,9508
1716,81702;1,95757
1714,76586;1,96703
1712,71471;1,9782
1710,66355;1,9903
1708,6124;2,00326
1706,56124;2,01838
1704,51009;2,03648
1702,45893;2,05571
1700,40778;2,07813
1698,35662;2,10534
1696,30546;2,13191
1694,25431;2,15652
1692,20315;2,17719
1690,152;2,19424
1688,10084;2,20931
1686,04969;2,22219
1683,99853;2,23559
1681,94738;2,25009
1679,89622;2,26193
1677,84507;2,27073
1675,79391;2,2779
1673,74276;2,28618
1671,6916;2,29548
1669,64045;2,30478
1667,58929;2,31508
1665,53813;2,32416
1663,48698;2,33034
1661,43582;2,3355
1659,38467;2,34107
1657,33351;2,34683
1655,28236;2,34953
1653,2312;2,34568
1651,18005;2,34257
1649,12889;2,34214
1647,07774;2,33744
1645,02658;2,33015
1642,97543;2,32591
1640,92427;2,32445
1638,87312;2,3222
1636,82196;2,31531
1634,7708;2,30481
1632,71965;2,29538
1630,66849;2,28566
1628,61734;2,27304
1626,56618;2,25805
1624,51503;2,24093
1622,46387;2,22464
1620,41272;2,21355
1618,36156;2,20245
1616,31041;2,1873
1614,25925;2,17456
1612,2081;2,1659
1610,15694;2,15786
1608,10579;2,1496
1606,05463;2,14181
1604,00347;2,13489
1601,95232;2,12946
1599,90116;2,12577
1597,85001;2,12292
1595,79885;2,12048
1593,7477;2,11927
1591,69654;2,11961
1589,64539;2,12053
1587,59423;2,1215
1585,54308;2,12285
1583,49192;2,12468
1581,44077;2,12717
1579,38961;2,12984
1577,33846;2,1306
1575,2873;2,13109
1573,23614;2,13512
1571,18499;2,14053
1569,13383;2,14594
1567,08268;2,15185
1565,03152;2,15801
1562,98037;2,16461
1560,92921;2,16841
1558,87806;2,16792
1556,8269;2,16997
1554,77575;2,17524
1552,72459;2,18034
1550,67344;2,18387
1548,62228;2,18638
1546,57113;2,18872
1544,51997;2,19099
1542,46881;2,19123
1540,41766;2,18654
1538,3665;2,18236
1536,31535;2,18187
1534,26419;2,18119
1532,21304;2,18133
1530,16188;2,18205
1528,11073;2,18003
1526,05957;2,17765
1524,00842;2,17705
1521,95726;2,17434
1519,90611;2,17038
1517,85495;2,16796
1515,80379;2,16646
1513,75264;2,16538
1511,70148;2,16461
1509,65033;2,16333
1507,59917;2,15907
1505,54802;2,15472
1503,49686;2,15417
1501,44571;2,15542
1499,39455;2,15671
1497,3434;2,15609
1495,29224;2,15407
1493,24109;2,15308
1491,18993;2,15258
1489,13878;2,15246
1487,08762;2,15359
1485,03646;2,15591
1482,98531;2,15913
1480,93415;2,16354
1478,883;2,16906
1476,83184;2,17451
1474,78069;2,179
1472,72953;2,18264
1470,67838;2,18617
1468,62722;2,18894
1466,57607;2,19038
1464,52491;2,19201
1462,47376;2,19519
1460,4226;2,19837
1458,37145;2,20123
1456,32029;2,20621
1454,26913;2,21199
1452,21798;2,21523
1450,16682;2,21556
1448,11567;2,21462
1446,06451;2,21507
1444,01336;2,21612
1441,9622;2,21553
1439,91105;2,21386
1437,85989;2,21106
1435,80874;2,207
1433,75758;2,20332
1431,70643;2,20084
1429,65527;2,19953
1427,60412;2,19789
1425,55296;2,19485
1423,5018;2,19194
1421,45065;2,19001
1419,39949;2,18902
1417,34834;2,19105
1415,29718;2,19473
1413,24603;2,1962
1411,19487;2,19496
1409,14372;2,19345
1407,09256;2,1936
1405,04141;2,19532
1402,99025;2,19749
1400,9391;2,1988
1398,88794;2,19952
1396,83679;2,19971
1394,78563;2,19821
1392,73447;2,19623
1390,68332;2,19458
1388,63216;2,1919
1386,58101;2,18868
1384,52985;2,18604
1382,4787;2,18202
1380,42754;2,176
1378,37639;2,17072
1376,32523;2,16729
1374,27408;2,16428
1372,22292;2,16123
1370,17177;2,15773
1368,12061;2,15355
1366,06946;2,14953
1364,0183;2,14529
1361,96714;2,14113
1359,91599;2,13832
1357,86483;2,13637
1355,81368;2,13459
1353,76252;2,13329
1351,71137;2,13321
1349,66021;2,13422
1347,60906;2,13537
1345,5579;2,13589
1343,50675;2,13568
1341,45559;2,13533
1339,40444;2,1362
1337,35328;2,13745
1335,30213;2,1366
1333,25097;2,13454
1331,19981;2,13334
1329,14866;2,13365
1327,0975;2,13515
1325,04635;2,13616
1322,99519;2,13626
1320,94404;2,13635
1318,89288;2,13559
1316,84173;2,13431
1314,79057;2,13471
1312,73942;2,1359
1310,68826;2,13512
1308,63711;2,1323
1306,58595;2,12953
1304,5348;2,12784
1302,48364;2,12735
1300,43248;2,12813
1298,38133;2,12938
1296,33017;2,13012
1294,27902;2,12984
1292,22786;2,12878
1290,17671;2,12815
1288,12555;2,12852
1286,0744;2,12844
1284,02324;2,12672
1281,97209;2,1254
1279,92093;2,12574
1277,86978;2,12594
1275,81862;2,12597
1273,76747;2,12686
1271,71631;2,12772
1269,66515;2,12871
1267,614;2,131
1265,56284;2,13315
1263,51169;2,13378
1261,46053;2,1344
1259,40938;2,13587
1257,35822;2,13734
1255,30707;2,13875
1253,25591;2,14074
1251,20476;2,14258
1249,1536;2,14373
1247,10245;2,1447
1245,05129;2,14554
1243,00013;2,14608
1240,94898;2,14643
1238,89782;2,14745
1236,84667;2,14867
1234,79551;2,14889
1232,74436;2,14842
1230,6932;2,1476
1228,64205;2,14638
1226,59089;2,14491
1224,53974;2,14263
1222,48858;2,13905
1220,43743;2,1348
1218,38627;2,13074
1216,33512;2,12799
1214,28396;2,12658
1212,2328;2,12593
1210,18165;2,12679
1208,13049;2,12846
1206,07934;2,12857
1204,02818;2,12805
1201,97703;2,12946
1199,92587;2,13135
1197,87472;2,1317
1195,82356;2,13113
1193,77241;2,13036
1191,72125;2,13063
1189,6701;2,13297
1187,61894;2,13619
1185,56779;2,13835
1183,51663;2,13902
1181,46547;2,13966
1179,41432;2,14112
1177,36316;2,14254
1175,31201;2,14356
1173,26085;2,14481
1171,2097;2,1469
1169,15854;2,14848
1167,10739;2,14909
1165,05623;2,1512
1163,00508;2,155
1160,95392;2,15765
1158,90277;2,15768
1156,85161;2,15729
1154,80046;2,15756
1152,7493;2,15705
1150,69814;2,15666
1148,64699;2,15754
1146,59583;2,15826
1144,54468;2,15733
1142,49352;2,15586
1140,44237;2,15575
1138,39121;2,15655
1136,34006;2,1575
1134,2889;2,15956
1132,23775;2,16279
1130,18659;2,16569
1128,13544;2,16681
1126,08428;2,16628
1124,03313;2,16522
1121,98197;2,16491
1119,93081;2,16691
1117,87966;2,1712
1115,8285;2,17614
1113,77735;2,17917
1111,72619;2,17927
1109,67504;2,1802
1107,62388;2,18365
1105,57273;2,18474
1103,52157;2,18236
1101,47042;2,18097
1099,41926;2,18116
1097,36811;2,18068
1095,31695;2,17889
1093,2658;2,17803
1091,21464;2,18109
1089,16348;2,18638
1087,11233;2,18917
1085,06117;2,18892
1083,01002;2,18916
1080,95886;2,19115
1078,90771;2,19276
1076,85655;2,19251
1074,8054;2,19193
1072,75424;2,1916
1070,70309;2,18979
1068,65193;2,18681
1066,60078;2,18421
1064,54962;2,18292
1062,49847;2,18321
1060,44731;2,18356
1058,39615;2,18326
1056,345;2,18348
1054,29384;2,1838
1052,24269;2,18293
1050,19153;2,18187
1048,14038;2,18211
1046,08922;2,183
1044,03807;2,18361
1041,98691;2,18319
1039,93576;2,18202
1037,8846;2,18211
1035,83345;2,18373
1033,78229;2,18462
1031,73114;2,18263
1029,67998;2,17959
1027,62882;2,17884
1025,57767;2,18071
1023,52651;2,18195
1021,47536;2,18003
1019,4242;2,17847
1017,37305;2,17969
1015,32189;2,17896
1013,27074;2,17333
1011,21958;2,16746
1009,16843;2,16458
1007,11727;2,16311
1005,06612;2,16034
1003,01496;2,15564
1000,96381;2,15109
998,91265;2,14666
996,86149;2,14334
994,81034;2,14251
992,75918;2,14182
990,70803;2,14039
988,65687;2,13837
986,60572;2,13548
984,55456;2,13286
982,50341;2,13078
980,45225;2,12956
978,4011;2,12888
976,34994;2,1259
974,29879;2,12063
972,24763;2,117
970,19647;2,11634
968,14532;2,11503
966,09416;2,11151
964,04301;2,10897
961,99185;2,10819
959,9407;2,10714
957,88954;2,10645
955,83839;2,10789
953,78723;2,11009
951,73608;2,11065
949,68492;2,10957
947,63377;2,10768
945,58261;2,10446
943,53146;2,10086
941,4803;2,1002
939,42914;2,10304
937,37799;2,10552
935,32683;2,10458
933,27568;2,10198
931,22452;2,10064
929,17337;2,10055
927,12221;2,10025
925,07106;2,09978
923,0199;2,09919
920,96875;2,09778
918,91759;2,09512
916,86644;2,09283
914,81528;2,09211
912,76413;2,09038
910,71297;2,08662
908,66181;2,08252
906,61066;2,07942
904,5595;2,07855
902,50835;2,07773
900,45719;2,07435
898,40604;2,07172
896,35488;2,07329
894,30373;2,07898
892,25257;2,08707
890,20142;2,09676
888,15026;2,11194
886,09911;2,13463
884,04795;2,15958
881,9968;2,18048
879,94564;2,19483
877,89448;2,20051
875,84333;2,19548
873,79217;2,18364
871,74102;2,17213
869,68986;2,16415
867,63871;2,15742
865,58755;2,14985
863,5364;2,14469
861,48524;2,14575
859,43409;2,14855
857,38293;2,1492
855,33178;2,15244
853,28062;2,15694
851,22947;2,15701
849,17831;2,1548
847,12715;2,15163
845,076;2,14611
843,02484;2,14236
840,97369;2,14376
838,92253;2,14701
836,87138;2,1508
834,82022;2,15586
832,76907;2,15674
830,71791;2,15244
828,66676;2,15121
826,6156;2,15392
824,56445;2,15555
822,51329;2,15783
820,46214;2,16256
818,41098;2,16633
816,35982;2,16757
814,30867;2,1693
812,25751;2,17229
810,20636;2,17375
808,1552;2,17571
806,10405;2,17983
804,05289;2,18365
802,00174;2,18771
799,95058;2,19317
797,89943;2,19692
795,84827;2,19777
793,79712;2,19905
791,74596;2,19924
789,69481;2,19851
787,64365;2,20082
785,59249;2,20377
783,54134;2,20666
781,49018;2,21168
779,43903;2,21585
777,38787;2,21541
775,33672;2,21166
773,28556;2,20929
771,23441;2,20959
769,18325;2,20905
767,1321;2,20667
765,08094;2,20641
763,02979;2,2111
760,97863;2,21864
758,92748;2,22495
756,87632;2,22672
754,82516;2,22417
752,77401;2,22222
750,72285;2,22582
748,6717;2,23102
746,62054;2,22866
744,56939;2,2234
742,51823;2,22395
740,46708;2,22895
738,41592;2,23554
736,36477;2,24218
734,31361;2,24783
732,26246;2,25425
730,2113;2,26325
728,16015;2,26762
726,10899;2,26267
724,05783;2,2559
722,00668;2,25191
719,95552;2,2512
717,90437;2,25376
715,85321;2,25974
713,80206;2,26739
711,7509;2,27324
709,69975;2,27263
707,64859;2,26513
705,59744;2,25901
703,54628;2,26078
701,49513;2,26608
699,44397;2,26874
697,39281;2,26716
695,34166;2,26185
693,2905;2,25867
691,23935;2,26273
689,18819;2,26724
687,13704;2,26415
685,08588;2,25854
683,03473;2,25849
680,98357;2,26192
678,93242;2,26296
676,88126;2,26274
674,83011;2,26616
672,77895;2,27249
670,7278;2,27461
668,67664;2,26953
666,62548;2,26773
664,57433;2,27426
662,52317;2,27819
660,47202;2,27368
658,42086;2,26905
656,36971;2,27206
654,31855;2,2776
652,2674;2,27744
650,21624;2,27228
648,16509;2,27031
646,11393;2,27526
644,06278;2,27937
642,01162;2,27429
639,96047;2,26623
637,90931;2,26671
635,85815;2,27272
633,807;2,27432
631,75584;2,27315
629,70469;2,27674
627,65353;2,28536
625,60238;2,29089
623,55122;2,28567
621,50007;2,26731
619,44891;2,25214
617,39776;2,25884
615,3466;2,27458
613,29545;2,27668
611,24429;2,27155
609,19314;2,27147
607,14198;2,27279
605,09082;2,26822
603,03967;2,25857
600,98851;2,25543
598,93736;2,26449
596,8862;2,27316
594,83505;2,27156
592,78389;2,26817
590,73274;2,26805
588,68158;2,26233
586,63043;2,25353
584,57927;2,25653
582,52812;2,27005
580,47696;2,28131
578,42581;2,28565
576,37465;2,28093
574,32349;2,27266
572,27234;2,27078
570,22118;2,26902
568,17003;2,26352
566,11887;2,26303
564,06772;2,26195
562,01656;2,25255
559,96541;2,2467
557,91425;2,25249
555,8631;2,26267
553,81194;2,26608
551,76079;2,25996
549,70963;2,25132
547,65848;2,24287
545,60732;2,24019
543,55616;2,24982
541,50501;2,26145
539,45385;2,2644
537,4027;2,25988
535,35154;2,25007
533,30039;2,24227
531,24923;2,24531
529,19808;2,25712
527,14692;2,268
525,09577;2,27034
523,04461;2,26874
520,99346;2,26952
518,9423;2,26919
516,89115;2,26894
514,83999;2,27108
512,78883;2,26908
510,73768;2,26352
508,68652;2,25625
506,63537;2,24333
504,58421;2,23786
502,53306;2,25571
500,4819;2,27458
498,43075;2,26674
496,37959;2,24751
494,32844;2,24345
492,27728;2,25887
490,22613;2,28291
488,17497;2,29977
486,12382;2,29694
484,07266;2,28357
482,0215;2,27398
479,97035;2,27106
477,91919;2,28053
475,86804;2,29185
473,81688;2,28079
471,76573;2,25803
469,71457;2,24701
467,66342;2,24711
465,61226;2,25789
463,56111;2,27869
461,50995;2,29378
459,4588;2,29109
457,40764;2,28467
455,35649;2,28679
453,30533;2,28989
451,25417;2,28639
449,20302;2,27112
447,15186;2,25459
445,10071;2,24991
443,04955;2,24931
440,9984;2,25061
438,94724;2,263
436,89609;2,27784
434,84493;2,27388
432,79378;2,25552
430,74262;2,2474
428,69147;2,25699
426,64031;2,27349
424,58916;2,29353
422,538;2,31507
420,48684;2,31205
418,43569;2,28137
416,38453;2,26436
414,33338;2,26815
412,28222;2,28412
410,23107;2,30908
408,17991;2,32008
406,12876;2,30895
404,0776;2,30375
402,02645;2,29608
399,97529;2,25855
