3997,70175;1,67627
3995,6506;1,67687
3993,59944;1,6783
3991,54829;1,67897
3989,49713;1,6792
3987,44598;1,67977
3985,39482;1,67972
3983,34367;1,67915
3981,29251;1,67927
3979,24136;1,67958
3977,1902;1,67905
3975,13905;1,6787
3973,08789;1,67967
3971,03673;1,68113
3968,98558;1,68223
3966,93442;1,68356
3964,88327;1,68486
3962,83211;1,68531
3960,78096;1,6855
3958,7298;1,68578
3956,67865;1,68603
3954,62749;1,68704
3952,57634;1,68908
3950,52518;1,69072
3948,47403;1,69127
3946,42287;1,69156
3944,37172;1,69177
3942,32056;1,69149
3940,2694;1,69087
3938,21825;1,69031
3936,16709;1,68963
3934,11594;1,68799
3932,06478;1,68559
3930,01363;1,68397
3927,96247;1,68344
3925,91132;1,68186
3923,86016;1,67854
3921,80901;1,67555
3919,75785;1,67317
3917,7067;1,67029
3915,65554;1,66784
3913,60439;1,66668
3911,55323;1,66566
3909,50207;1,66392
3907,45092;1,6615
3905,39976;1,6586
3903,34861;1,65634
3901,29745;1,65508
3899,2463;1,65368
3897,19514;1,65267
3895,14399;1,65305
3893,09283;1,65326
3891,04168;1,65155
3888,99052;1,64959
3886,93937;1,64831
3884,88821;1,64763
3882,83706;1,648
3880,7859;1,64886
3878,73474;1,64986
3876,68359;1,64984
3874,63243;1,64847
3872,58128;1,64784
3870,53012;1,64781
3868,47897;1,64738
3866,42781;1,64573
3864,37666;1,64315
3862,3255;1,64192
3860,27435;1,64212
3858,22319;1,64208
3856,17204;1,63984
3854,12088;1,63531
3852,06973;1,63377
3850,01857;1,63687
3847,96741;1,63981
3845,91626;1,64049
3843,8651;1,64003
3841,81395;1,63925
3839,76279;1,63752
3837,71164;1,6356
3835,66048;1,63546
3833,60933;1,63645
3831,55817;1,63723
3829,50702;1,63757
3827,45586;1,63733
3825,40471;1,6374
3823,35355;1,63759
3821,3024;1,6368
3819,25124;1,6374
3817,20008;1,63911
3815,14893;1,63955
3813,09777;1,63936
3811,04662;1,63934
3808,99546;1,63876
3806,94431;1,63779
3804,89315;1,63856
3802,842;1,63962
3800,79084;1,63964
3798,73969;1,64033
3796,68853;1,64133
3794,63738;1,64262
3792,58622;1,64411
3790,53506;1,64484
3788,48391;1,64455
3786,43275;1,64389
3784,3816;1,64387
3782,33044;1,64468
3780,27929;1,64555
3778,22813;1,64673
3776,17698;1,64838
3774,12582;1,64963
3772,07467;1,6497
3770,02351;1,64883
3767,97236;1,64856
3765,9212;1,64891
3763,87005;1,6495
3761,81889;1,65009
3759,76773;1,6504
3757,71658;1,65099
3755,66542;1,65206
3753,61427;1,65219
3751,56311;1,65058
3749,51196;1,65025
3747,4608;1,6532
3745,40965;1,65604
3743,35849;1,65824
3741,30734;1,66166
3739,25618;1,66522
3737,20503;1,66715
3735,15387;1,66756
3733,10272;1,66883
3731,05156;1,67201
3729,0004;1,67562
3726,94925;1,67758
3724,89809;1,67811
3722,84694;1,6786
3720,79578;1,68004
3718,74463;1,68273
3716,69347;1,68668
3714,64232;1,69137
3712,59116;1,69545
3710,54001;1,69828
3708,48885;1,70123
3706,4377;1,70605
3704,38654;1,71356
3702,33539;1,72404
3700,28423;1,73717
3698,23307;1,75022
3696,18192;1,76051
3694,13076;1,76708
3692,07961;1,76916
3690,02845;1,76744
3687,9773;1,76536
3685,92614;1,76514
3683,87499;1,7661
3681,82383;1,76882
3679,77268;1,77435
3677,72152;1,78108
3675,67037;1,78605
3673,61921;1,79054
3671,56806;1,79644
3669,5169;1,80465
3667,46574;1,81476
3665,41459;1,82362
3663,36343;1,83053
3661,31228;1,83708
3659,26112;1,84445
3657,20997;1,85293
3655,15881;1,86234
3653,10766;1,87101
3651,0565;1,87853
3649,00535;1,88789
3646,95419;1,89954
3644,90304;1,90998
3642,85188;1,91739
3640,80073;1,9224
3638,74957;1,92639
3636,69841;1,93128
3634,64726;1,93794
3632,5961;1,94541
3630,54495;1,95189
3628,49379;1,95782
3626,44264;1,96536
3624,39148;1,97332
3622,34033;1,97914
3620,28917;1,98214
3618,23802;1,9859
3616,18686;1,99342
3614,13571;2,00159
3612,08455;2,00771
3610,0334;2,0128
3607,98224;2,01828
3605,93108;2,02387
3603,87993;2,02837
3601,82877;2,03242
3599,77762;2,03791
3597,72646;2,04533
3595,67531;2,0525
3593,62415;2,0569
3591,573;2,05934
3589,52184;2,06091
3587,47069;2,06213
3585,41953;2,06623
3583,36838;2,07347
3581,31722;2,07975
3579,26607;2,08365
3577,21491;2,08708
3575,16375;2,0911
3573,1126;2,09588
3571,06144;2,10107
3569,01029;2,105
3566,95913;2,10791
3564,90798;2,11147
3562,85682;2,11487
3560,80567;2,11778
3558,75451;2,12114
3556,70336;2,12461
3554,6522;2,12803
3552,60105;2,13238
3550,54989;2,13831
3548,49874;2,14425
3546,44758;2,14743
3544,39642;2,14832
3542,34527;2,14907
3540,29411;2,15022
3538,24296;2,15224
3536,1918;2,15593
3534,14065;2,16177
3532,08949;2,16833
3530,03834;2,17201
3527,98718;2,17224
3525,93603;2,17266
3523,88487;2,17484
3521,83372;2,17811
3519,78256;2,18162
3517,73141;2,18466
3515,68025;2,1883
3513,62909;2,19188
3511,57794;2,19258
3509,52678;2,19199
3507,47563;2,19477
3505,42447;2,19998
3503,37332;2,20323
3501,32216;2,20395
3499,27101;2,20391
3497,21985;2,20393
3495,1687;2,20519
3493,11754;2,20775
3491,06639;2,20956
3489,01523;2,21074
3486,96407;2,21377
3484,91292;2,21869
3482,86176;2,22166
3480,81061;2,22179
3478,75945;2,22313
3476,7083;2,22478
3474,65714;2,22402
3472,60599;2,22356
3470,55483;2,22602
3468,50368;2,2314
3466,45252;2,2375
3464,40137;2,24059
3462,35021;2,24054
3460,29906;2,24055
3458,2479;2,24096
3456,19674;2,24044
3454,14559;2,24033
3452,09443;2,24186
3450,04328;2,24441
3447,99212;2,24825
3445,94097;2,25252
3443,88981;2,25472
3441,83866;2,25547
3439,7875;2,25605
3437,73635;2,25614
3435,68519;2,2561
3433,63404;2,25796
3431,58288;2,2634
3429,53173;2,26867
3427,48057;2,26935
3425,42941;2,26695
3423,37826;2,26512
3421,3271;2,26631
3419,27595;2,26985
3417,22479;2,27367
3415,17364;2,27494
3413,12248;2,27166
3411,07133;2,2689
3409,02017;2,27054
3406,96902;2,27343
3404,91786;2,27441
3402,86671;2,27419
3400,81555;2,27627
3398,7644;2,27977
3396,71324;2,28086
3394,66208;2,28101
3392,61093;2,28212
3390,55977;2,28325
3388,50862;2,28399
3386,45746;2,28547
3384,40631;2,28779
3382,35515;2,28937
3380,304;2,29013
3378,25284;2,29112
3376,20169;2,29268
3374,15053;2,2947
3372,09938;2,2957
3370,04822;2,29549
3367,99707;2,29609
3365,94591;2,29629
3363,89475;2,29422
3361,8436;2,29356
3359,79244;2,296
3357,74129;2,29908
3355,69013;2,30312
3353,63898;2,30835
3351,58782;2,31285
3349,53667;2,31497
3347,48551;2,3146
3345,43436;2,31267
3343,3832;2,31049
3341,33205;2,30857
3339,28089;2,30711
3337,22974;2,30735
3335,17858;2,30922
3333,12742;2,3125
3331,07627;2,31656
3329,02511;2,31854
3326,97396;2,31802
3324,9228;2,3169
3322,87165;2,3169
3320,82049;2,32122
3318,76934;2,32845
3316,71818;2,33277
3314,66703;2,33269
3312,61587;2,3304
3310,56472;2,33011
3308,51356;2,33307
3306,46241;2,33635
3304,41125;2,33971
3302,36009;2,34224
3300,30894;2,34152
3298,25778;2,34046
3296,20663;2,34164
3294,15547;2,34124
3292,10432;2,33797
3290,05316;2,33603
3288,00201;2,33737
3285,95085;2,34058
3283,8997;2,34332
3281,84854;2,34376
3279,79739;2,34153
3277,74623;2,33735
3275,69508;2,33276
3273,64392;2,33134
3271,59276;2,33292
3269,54161;2,332
3267,49045;2,32833
3265,4393;2,32629
3263,38814;2,32577
3261,33699;2,32172
3259,28583;2,31419
3257,23468;2,31051
3255,18352;2,31185
3253,13237;2,31246
3251,08121;2,30984
3249,03006;2,30604
3246,9789;2,30118
3244,92775;2,29589
3242,87659;2,29449
3240,82543;2,29574
3238,77428;2,29436
3236,72312;2,29023
3234,67197;2,28708
3232,62081;2,28766
3230,56966;2,28917
3228,5185;2,2867
3226,46735;2,28103
3224,41619;2,27581
3222,36504;2,27207
3220,31388;2,26995
3218,26273;2,27026
3216,21157;2,2713
3214,16041;2,27009
3212,10926;2,26741
3210,0581;2,26516
3208,00695;2,26363
3205,95579;2,26291
3203,90464;2,26274
3201,85348;2,26248
3199,80233;2,26192
3197,75117;2,26028
3195,70002;2,25772
3193,64886;2,25595
3191,59771;2,2548
3189,54655;2,25209
3187,4954;2,24802
3185,44424;2,24533
3183,39308;2,24358
3181,34193;2,24057
3179,29077;2,23725
3177,23962;2,2352
3175,18846;2,23364
3173,13731;2,23229
3171,08615;2,23158
3169,035;2,23069
3166,98384;2,23039
3164,93269;2,23
3162,88153;2,22737
3160,83038;2,22439
3158,77922;2,22311
3156,72807;2,22256
3154,67691;2,22075
3152,62575;2,21801
3150,5746;2,21601
3148,52344;2,21419
3146,47229;2,21268
3144,42113;2,21272
3142,36998;2,21289
3140,31882;2,21062
3138,26767;2,20623
3136,21651;2,20311
3134,16536;2,20283
3132,1142;2,20212
3130,06305;2,19893
3128,01189;2,19574
3125,96074;2,19416
3123,90958;2,19448
3121,85842;2,196
3119,80727;2,19595
3117,75611;2,19404
3115,70496;2,19296
3113,6538;2,19303
3111,60265;2,19268
3109,55149;2,19319
3107,50034;2,19587
3105,44918;2,19775
3103,39803;2,19637
3101,34687;2,19389
3099,29572;2,19319
3097,24456;2,19363
3095,19341;2,19371
3093,14225;2,19329
3091,09109;2,19235
3089,03994;2,19227
3086,98878;2,19292
3084,93763;2,19293
3082,88647;2,19403
3080,83532;2,19618
3078,78416;2,19699
3076,73301;2,19618
3074,68185;2,1949
3072,6307;2,19363
3070,57954;2,19292
3068,52839;2,19331
3066,47723;2,1926
3064,42608;2,1894
3062,37492;2,18592
3060,32376;2,18346
3058,27261;2,18216
3056,22145;2,18263
3054,1703;2,18389
3052,11914;2,1833
3050,06799;2,18101
3048,01683;2,17934
3045,96568;2,1784
3043,91452;2,17804
3041,86337;2,17776
3039,81221;2,1757
3037,76106;2,17471
3035,7099;2,17746
3033,65875;2,17941
3031,60759;2,17775
3029,55643;2,17563
3027,50528;2,1749
3025,45412;2,17487
3023,40297;2,17577
3021,35181;2,17775
3019,30066;2,17879
3017,2495;2,17886
3015,19835;2,18169
3013,14719;2,18717
3011,09604;2,19107
3009,04488;2,19276
3006,99373;2,1937
3004,94257;2,19385
3002,89142;2,19321
3000,84026;2,19239
2998,7891;2,19197
2996,73795;2,19245
2994,68679;2,19442
2992,63564;2,19664
2990,58448;2,19891
2988,53333;2,20378
2986,48217;2,21176
2984,43102;2,22094
2982,37986;2,22933
2980,32871;2,23631
2978,27755;2,2441
2976,2264;2,25383
2974,17524;2,26322
2972,12409;2,27111
2970,07293;2,28084
2968,02177;2,29434
2965,97062;2,30744
2963,91946;2,31865
2961,86831;2,32998
2959,81715;2,33888
2957,766;2,34284
2955,71484;2,34394
2953,66369;2,34386
2951,61253;2,34393
2949,56138;2,34574
2947,51022;2,34924
2945,45907;2,35507
2943,40791;2,36386
2941,35675;2,37348
2939,3056;2,38233
2937,25444;2,39219
2935,20329;2,40333
2933,15213;2,41014
2931,10098;2,41075
2929,04982;2,4121
2926,99867;2,41449
2924,94751;2,41057
2922,89636;2,40081
2920,8452;2,39259
2918,79405;2,38743
2916,74289;2,3806
2914,69174;2,37105
2912,64058;2,3617
2910,58942;2,35273
2908,53827;2,34363
2906,48711;2,33611
2904,43596;2,32875
2902,3848;2,31999
2900,33365;2,31245
2898,28249;2,30636
2896,23134;2,30059
2894,18018;2,29548
2892,12903;2,28909
2890,07787;2,28119
2888,02672;2,27528
2885,97556;2,27258
2883,92441;2,27098
2881,87325;2,26918
2879,82209;2,26897
2877,77094;2,27245
2875,71978;2,27825
2873,66863;2,28383
2871,61747;2,28914
2869,56632;2,29461
2867,51516;2,29967
2865,46401;2,30506
2863,41285;2,31283
2861,3617;2,32331
2859,31054;2,33637
2857,25939;2,34989
2855,20823;2,35682
2853,15708;2,35414
2851,10592;2,34398
2849,05476;2,32655
2847,00361;2,30398
2844,95245;2,2786
2842,9013;2,25199
2840,85014;2,22839
2838,79899;2,20982
2836,74783;2,19371
2834,69668;2,17779
2832,64552;2,16273
2830,59437;2,15042
2828,54321;2,14126
2826,49206;2,13352
2824,4409;2,12584
2822,38975;2,11821
2820,33859;2,11109
2818,28743;2,10564
2816,23628;2,1027
2814,18512;2,09967
2812,13397;2,09454
2810,08281;2,0894
2808,03166;2,08461
2805,9805;2,07954
2803,92935;2,07529
2801,87819;2,0723
2799,82704;2,06982
2797,77588;2,06649
2795,72473;2,06259
2793,67357;2,05954
2791,62242;2,05717
2789,57126;2,05396
2787,5201;2,04979
2785,46895;2,04619
2783,41779;2,04348
2781,36664;2,04019
2779,31548;2,0361
2777,26433;2,03387
2775,21317;2,03411
2773,16202;2,034
2771,11086;2,03239
2769,05971;2,02968
2767,00855;2,02658
2764,9574;2,02435
2762,90624;2,02305
2760,85509;2,02248
2758,80393;2,02189
2756,75277;2,01964
2754,70162;2,01717
2752,65046;2,01627
2750,59931;2,01492
2748,54815;2,01276
2746,497;2,01168
2744,44584;2,01042
2742,39469;2,00855
2740,34353;2,00838
2738,29238;2,00881
2736,24122;2,00734
2734,19007;2,00489
2732,13891;2,00355
2730,08776;2,00347
2728,0366;2,00267
2725,98544;1,99979
2723,93429;1,99652
2721,88313;1,99484
2719,83198;1,99373
2717,78082;1,9924
2715,72967;1,99142
2713,67851;1,99036
2711,62736;1,98953
2709,5762;1,98899
2707,52505;1,98789
2705,47389;1,98681
2703,42274;1,98616
2701,37158;1,98571
2699,32043;1,98547
2697,26927;1,98515
2695,21811;1,98451
2693,16696;1,98362
2691,1158;1,983
2689,06465;1,98283
2687,01349;1,98327
2684,96234;1,98472
2682,91118;1,98553
2680,86003;1,98376
2678,80887;1,98135
2676,75772;1,98039
2674,70656;1,98041
2672,65541;1,98131
2670,60425;1,9825
2668,55309;1,98196
2666,50194;1,9799
2664,45078;1,97824
2662,39963;1,97722
2660,34847;1,97621
2658,29732;1,97575
2656,24616;1,97575
2654,19501;1,9746
2652,14385;1,97345
2650,0927;1,97376
2648,04154;1,9739
2645,99039;1,97351
2643,93923;1,97328
2641,88808;1,97313
2639,83692;1,97342
2637,78576;1,97507
2635,73461;1,97829
2633,68345;1,98163
2631,6323;1,98307
2629,58114;1,98374
2627,52999;1,98554
2625,47883;1,98715
2623,42768;1,98792
2621,37652;1,98791
2619,32537;1,98675
2617,27421;1,98614
2615,22306;1,98693
2613,1719;1,98793
2611,12075;1,98916
2609,06959;1,99114
2607,01843;1,99222
2604,96728;1,99211
2602,91612;1,99293
2600,86497;1,99382
2598,81381;1,99274
2596,76266;1,99174
2594,7115;1,99286
2592,66035;1,99411
2590,60919;1,9946
2588,55804;1,99549
2586,50688;1,99623
2584,45573;1,99613
2582,40457;1,99552
2580,35342;1,99459
2578,30226;1,99345
2576,2511;1,99242
2574,19995;1,992
2572,14879;1,99182
2570,09764;1,9917
2568,04648;1,99234
2565,99533;1,99333
2563,94417;1,99356
2561,89302;1,99363
2559,84186;1,99485
2557,79071;1,99657
2555,73955;1,99765
2553,6884;1,99853
2551,63724;1,99976
2549,58609;2,00097
2547,53493;2,00158
2545,48377;2,00177
2543,43262;2,00208
2541,38146;2,00251
2539,33031;2,00326
2537,27915;2,00547
2535,228;2,00922
2533,17684;2,01327
2531,12569;2,01631
2529,07453;2,01756
2527,02338;2,01879
2524,97222;2,02186
2522,92107;2,02469
2520,86991;2,02537
2518,81876;2,02544
2516,7676;2,02525
2514,71644;2,02334
2512,66529;2,02112
2510,61413;2,0201
2508,56298;2,01934
2506,51182;2,01769
2504,46067;2,01469
2502,40951;2,01013
2500,35836;2,00435
2498,3072;1,99896
2496,25605;1,99424
2494,20489;1,98961
2492,15374;1,98522
2490,10258;1,98025
2488,05143;1,97518
2486,00027;1,97151
2483,94911;1,96791
2481,89796;1,96343
2479,8468;1,95903
2477,79565;1,95409
2475,74449;1,9484
2473,69334;1,9436
2471,64218;1,93997
2469,59103;1,93689
2467,53987;1,9343
2465,48872;1,93158
2463,43756;1,92884
2461,38641;1,92705
2459,33525;1,92527
2457,2841;1,92261
2455,23294;1,9195
2453,18178;1,91663
2451,13063;1,91471
2449,07947;1,91376
2447,02832;1,91312
2444,97716;1,9117
2442,92601;1,90922
2440,87485;1,90694
2438,8237;1,90534
2436,77254;1,90381
2434,72139;1,90269
2432,67023;1,90224
2430,61908;1,90131
2428,56792;1,89915
2426,51677;1,89675
2424,46561;1,89558
2422,41445;1,89539
2420,3633;1,89491
2418,31214;1,89374
2416,26099;1,89233
2414,20983;1,89139
2412,15868;1,89099
2410,10752;1,89028
2408,05637;1,88893
2406,00521;1,8878
2403,95406;1,88737
2401,9029;1,88703
2399,85175;1,88645
2397,80059;1,88584
2395,74944;1,88541
2393,69828;1,8853
2391,64712;1,88524
2389,59597;1,88484
2387,54481;1,8843
2385,49366;1,88411
2383,4425;1,88449
2381,39135;1,88525
2379,34019;1,8856
2377,28904;1,88519
2375,23788;1,88425
2373,18673;1,88297
2371,13557;1,88239
2369,08442;1,88348
2367,03326;1,88576
2364,9821;1,88762
2362,93095;1,88722
2360,87979;1,88558
2358,82864;1,88516
2356,77748;1,88556
2354,72633;1,8857
2352,67517;1,8857
2350,62402;1,8857
2348,57286;1,88499
2346,52171;1,88342
2344,47055;1,8827
2342,4194;1,88377
2340,36824;1,88513
2338,31709;1,88571
2336,26593;1,8857
2334,21477;1,88611
2332,16362;1,88732
2330,11246;1,88764
2328,06131;1,88698
2326,01015;1,88691
2323,959;1,88687
2321,90784;1,88594
2319,85669;1,88458
2317,80553;1,88341
2315,75438;1,88254
2313,70322;1,88216
2311,65207;1,88247
2309,60091;1,88279
2307,54976;1,88244
2305,4986;1,88216
2303,44744;1,88225
2301,39629;1,88168
2299,34513;1,88024
2297,29398;1,87916
2295,24282;1,87939
2293,19167;1,88031
2291,14051;1,88065
2289,08936;1,88003
2287,0382;1,87907
2284,98705;1,87867
2282,93589;1,87904
2280,88474;1,87911
2278,83358;1,87798
2276,78243;1,8766
2274,73127;1,87619
2272,68011;1,87655
2270,62896;1,87704
2268,5778;1,87763
2266,52665;1,87845
2264,47549;1,87939
2262,42434;1,88
2260,37318;1,87996
2258,32203;1,87979
2256,27087;1,88004
2254,21972;1,88061
2252,16856;1,88145
2250,11741;1,88224
2248,06625;1,88269
2246,0151;1,88299
2243,96394;1,88273
2241,91278;1,88202
2239,86163;1,88274
2237,81047;1,88474
2235,75932;1,88614
2233,70816;1,88683
2231,65701;1,88711
2229,60585;1,88724
2227,5547;1,8879
2225,50354;1,88882
2223,45239;1,88958
2221,40123;1,89032
2219,35008;1,8911
2217,29892;1,89172
2215,24777;1,89207
2213,19661;1,89232
2211,14545;1,89222
2209,0943;1,89167
2207,04314;1,89156
2204,99199;1,89242
2202,94083;1,89331
2200,88968;1,89338
2198,83852;1,89303
2196,78737;1,89315
2194,73621;1,89396
2192,68506;1,89475
2190,6339;1,89536
2188,58275;1,89661
2186,53159;1,89833
2184,48044;1,89933
2182,42928;1,89941
2180,37812;1,89931
2178,32697;1,89936
2176,27581;1,89943
2174,22466;1,90006
2172,1735;1,9013
2170,12235;1,90228
2168,07119;1,9033
2166,02004;1,90442
2163,96888;1,90521
2161,91773;1,90619
2159,86657;1,90776
2157,81542;1,90989
2155,76426;1,91241
2153,71311;1,91515
2151,66195;1,91766
2149,61079;1,91933
2147,55964;1,92016
2145,50848;1,92046
2143,45733;1,92066
2141,40617;1,92085
2139,35502;1,92081
2137,30386;1,92014
2135,25271;1,91913
2133,20155;1,91882
2131,1504;1,91869
2129,09924;1,91766
2127,04809;1,91547
2124,99693;1,91257
2122,94578;1,91025
2120,89462;1,90884
2118,84346;1,90756
2116,79231;1,90614
2114,74115;1,90474
2112,69;1,9037
2110,63884;1,9036
2108,58769;1,90407
2106,53653;1,904
2104,48538;1,90285
2102,43422;1,9013
2100,38307;1,90047
2098,33191;1,90088
2096,28076;1,90162
2094,2296;1,90154
2092,17844;1,90102
2090,12729;1,90089
2088,07613;1,90119
2086,02498;1,90159
2083,97382;1,90171
2081,92267;1,9018
2079,87151;1,90239
2077,82036;1,90296
2075,7692;1,90251
2073,71805;1,9018
2071,66689;1,9021
2069,61574;1,90298
2067,56458;1,90357
2065,51343;1,90382
2063,46227;1,90438
2061,41111;1,90524
2059,35996;1,90595
2057,3088;1,90658
2055,25765;1,90642
2053,20649;1,90524
2051,15534;1,90459
2049,10418;1,90528
2047,05303;1,90625
2045,00187;1,90682
2042,95072;1,90741
2040,89956;1,90821
2038,84841;1,9091
2036,79725;1,90974
2034,7461;1,90956
2032,69494;1,90886
2030,64378;1,9087
2028,59263;1,90907
2026,54147;1,90904
2024,49032;1,9085
2022,43916;1,90828
2020,38801;1,90907
2018,33685;1,90994
2016,2857;1,90981
2014,23454;1,90925
2012,18339;1,90876
2010,13223;1,90843
2008,08108;1,90831
2006,02992;1,90796
2003,97877;1,90722
2001,92761;1,90655
1999,87645;1,90647
1997,8253;1,90714
1995,77414;1,90799
1993,72299;1,90786
1991,67183;1,90733
1989,62068;1,90789
1987,56952;1,90889
1985,51837;1,9096
1983,46721;1,91027
1981,41606;1,91098
1979,3649;1,91143
1977,31375;1,91151
1975,26259;1,91172
1973,21144;1,91214
1971,16028;1,91274
1969,10912;1,91346
1967,05797;1,91397
1965,00681;1,91519
1962,95566;1,91742
1960,9045;1,91902
1958,85335;1,91922
1956,80219;1,91843
1954,75104;1,91716
1952,69988;1,91613
1950,64873;1,91588
1948,59757;1,91625
1946,54642;1,91665
1944,49526;1,91653
1942,44411;1,91583
1940,39295;1,91547
1938,34179;1,91598
1936,29064;1,91749
1934,23948;1,9188
1932,18833;1,9184
1930,13717;1,9172
1928,08602;1,91682
1926,03486;1,91735
1923,98371;1,91808
1921,93255;1,9193
1919,8814;1,92056
1917,83024;1,92118
1915,77909;1,92202
1913,72793;1,92261
1911,67678;1,92277
1909,62562;1,92305
1907,57446;1,92332
1905,52331;1,92339
1903,47215;1,92348
1901,421;1,92402
1899,36984;1,92534
1897,31869;1,92689
1895,26753;1,92809
1893,21638;1,92904
1891,16522;1,92936
1889,11407;1,92932
1887,06291;1,92987
1885,01176;1,93072
1882,9606;1,93191
1880,90945;1,93314
1878,85829;1,93391
1876,80713;1,93478
1874,75598;1,93574
1872,70482;1,93619
1870,65367;1,936
1868,60251;1,93584
1866,55136;1,93688
1864,5002;1,93906
1862,44905;1,94132
1860,39789;1,94286
1858,34674;1,94381
1856,29558;1,94462
1854,24443;1,94528
1852,19327;1,94597
1850,14212;1,94742
1848,09096;1,94971
1846,0398;1,95151
1843,98865;1,9528
1841,93749;1,95546
1839,88634;1,95855
1837,83518;1,96138
1835,78403;1,96522
1833,73287;1,96952
1831,68172;1,97265
1829,63056;1,97575
1827,57941;1,97998
1825,52825;1,98358
1823,4771;1,98711
1821,42594;1,99182
1819,37478;1,9964
1817,32363;1,99939
1815,27247;2,00095
1813,22132;2,00247
1811,17016;2,00552
1809,11901;2,0109
1807,06785;2,0182
1805,0167;2,02651
1802,96554;2,03521
1800,91439;2,04425
1798,86323;2,05262
1796,81208;2,05859
1794,76092;2,0618
1792,70977;2,0629
1790,65861;2,06271
1788,60745;2,06133
1786,5563;2,05898
1784,50514;2,05705
1782,45399;2,0562
1780,40283;2,05644
1778,35168;2,05872
1776,30052;2,06244
1774,24937;2,06647
1772,19821;2,07259
1770,14706;2,08325
1768,0959;2,09772
1766,04475;2,11514
1763,99359;2,13591
1761,94244;2,16309
1759,89128;2,19682
1757,84012;2,23326
1755,78897;2,27043
1753,73781;2,30405
1751,68666;2,33186
1749,6355;2,3541
1747,58435;2,36828
1745,53319;2,37278
1743,48204;2,36909
1741,43088;2,36067
1739,37973;2,35186
1737,32857;2,34399
1735,27742;2,33183
1733,22626;2,31678
1731,17511;2,30661
1729,12395;2,29799
1727,07279;2,28748
1725,02164;2,27597
1722,97048;2,26518
1720,91933;2,2558
1718,86817;2,2452
1716,81702;2,23366
1714,76586;2,22617
1712,71471;2,22371
1710,66355;2,22342
1708,6124;2,22394
1706,56124;2,22658
1704,51009;2,2329
1702,45893;2,24152
1700,40778;2,25244
1698,35662;2,26627
1696,30546;2,27958
1694,25431;2,29345
1692,20315;2,30609
1690,152;2,31405
1688,10084;2,3176
1686,04969;2,31852
1683,99853;2,32227
1681,94738;2,33232
1679,89622;2,34185
1677,84507;2,34725
1675,79391;2,35078
1673,74276;2,35566
1671,6916;2,35919
1669,64045;2,36055
1667,58929;2,36489
1665,53813;2,37011
1663,48698;2,37127
1661,43582;2,36924
1659,38467;2,36606
1657,33351;2,3621
1655,28236;2,3572
1653,2312;2,35339
1651,18005;2,35395
1649,12889;2,35163
1647,07774;2,34363
1645,02658;2,33833
1642,97543;2,33742
1640,92427;2,33588
1638,87312;2,33201
1636,82196;2,32573
1634,7708;2,32012
1632,71965;2,31847
1630,66849;2,31678
1628,61734;2,31294
1626,56618;2,30862
1624,51503;2,30281
1622,46387;2,29557
1620,41272;2,28933
1618,36156;2,28073
1616,31041;2,26915
1614,25925;2,26125
1612,2081;2,25638
1610,15694;2,25021
1608,10579;2,24269
1606,05463;2,23599
1604,00347;2,23127
1601,95232;2,22832
1599,90116;2,22647
1597,85001;2,22479
1595,79885;2,22298
1593,7477;2,22195
1591,69654;2,22247
1589,64539;2,22368
1587,59423;2,22445
1585,54308;2,22506
1583,49192;2,22602
1581,44077;2,22704
1579,38961;2,22792
1577,33846;2,22861
1575,2873;2,2306
1573,23614;2,23405
1571,18499;2,23589
1569,13383;2,23747
1567,08268;2,24171
1565,03152;2,24655
1562,98037;2,24937
1560,92921;2,24892
1558,87806;2,24991
1556,8269;2,25712
1554,77575;2,2618
1552,72459;2,26132
1550,67344;2,25903
1548,62228;2,25753
1546,57113;2,25623
1544,51997;2,25332
1542,46881;2,24874
1540,41766;2,24244
1538,3665;2,23878
1536,31535;2,23856
1534,26419;2,23586
1532,21304;2,23201
1530,16188;2,22952
1528,11073;2,22459
1526,05957;2,21743
1524,00842;2,21126
1521,95726;2,20649
1519,90611;2,20593
1517,85495;2,20731
1515,80379;2,20582
1513,75264;2,20234
1511,70148;2,1979
1509,65033;2,1915
1507,59917;2,18291
1505,54802;2,17784
1503,49686;2,17815
1501,44571;2,1786
1499,39455;2,17807
1497,3434;2,17779
1495,29224;2,17875
1493,24109;2,18012
1491,18993;2,1798
1489,13878;2,17903
1487,08762;2,18054
1485,03646;2,18427
1482,98531;2,18796
1480,93415;2,19092
1478,883;2,19471
1476,83184;2,20014
1474,78069;2,2081
1472,72953;2,22062
1470,67838;2,23598
1468,62722;2,24698
1466,57607;2,2503
1464,52491;2,24984
1462,47376;2,25037
1460,4226;2,24987
1458,37145;2,24535
1456,32029;2,24067
1454,26913;2,24012
1452,21798;2,23995
1450,16682;2,23704
1448,11567;2,23241
1446,06451;2,22948
1444,01336;2,22908
1441,9622;2,22899
1439,91105;2,22689
1437,85989;2,22099
1435,80874;2,21447
1433,75758;2,2115
1431,70643;2,20924
1429,65527;2,20577
1427,60412;2,20298
1425,55296;2,20154
1423,5018;2,20124
1421,45065;2,20121
1419,39949;2,19994
1417,34834;2,19923
1415,29718;2,19982
1413,24603;2,19935
1411,19487;2,19816
1409,14372;2,19855
1407,09256;2,20079
1405,04141;2,20436
1402,99025;2,20912
1400,9391;2,21308
1398,88794;2,21563
1396,83679;2,21762
1394,78563;2,21848
1392,73447;2,21981
1390,68332;2,22262
1388,63216;2,22539
1386,58101;2,22864
1384,52985;2,23336
1382,4787;2,23778
1380,42754;2,23964
1378,37639;2,23857
1376,32523;2,2363
1374,27408;2,23513
1372,22292;2,23559
1370,17177;2,2356
1368,12061;2,23441
1366,06946;2,23294
1364,0183;2,23096
1361,96714;2,22922
1359,91599;2,22917
1357,86483;2,22995
1355,81368;2,2296
1353,76252;2,22841
1351,71137;2,2285
1349,66021;2,22948
1347,60906;2,22923
1345,5579;2,22783
1343,50675;2,22623
1341,45559;2,22506
1339,40444;2,22563
1337,35328;2,22754
1335,30213;2,22812
1333,25097;2,22747
1331,19981;2,22746
1329,14866;2,22765
1327,0975;2,2272
1325,04635;2,22791
1322,99519;2,23034
1320,94404;2,23201
1318,89288;2,23231
1316,84173;2,23366
1314,79057;2,23658
1312,73942;2,23839
1310,68826;2,238
1308,63711;2,23668
1306,58595;2,23591
1304,5348;2,2369
1302,48364;2,23876
1300,43248;2,23907
1298,38133;2,23743
1296,33017;2,23613
1294,27902;2,23706
1292,22786;2,23908
1290,17671;2,24064
1288,12555;2,24179
1286,0744;2,2433
1284,02324;2,24591
1281,97209;2,24884
1279,92093;2,25042
1277,86978;2,2509
1275,81862;2,25209
1273,76747;2,2543
1271,71631;2,25591
1269,66515;2,25721
1267,614;2,26005
1265,56284;2,26337
1263,51169;2,265
1261,46053;2,26565
1259,40938;2,26762
1257,35822;2,27146
1255,30707;2,27541
1253,25591;2,27721
1251,20476;2,27724
1249,1536;2,27845
1247,10245;2,28084
1245,05129;2,28137
1243,00013;2,27942
1240,94898;2,2776
1238,89782;2,27748
1236,84667;2,27765
1234,79551;2,27636
1232,74436;2,27436
1230,6932;2,27337
1228,64205;2,27281
1226,59089;2,27152
1224,53974;2,26951
1222,48858;2,26701
1220,43743;2,26348
1218,38627;2,25912
1216,33512;2,25631
1214,28396;2,25585
1212,2328;2,25661
1210,18165;2,25692
1208,13049;2,25486
1206,07934;2,25198
1204,02818;2,2516
1201,97703;2,25375
1199,92587;2,25651
1197,87472;2,25964
1195,82356;2,26242
1193,77241;2,26352
1191,72125;2,26373
1189,6701;2,26412
1187,61894;2,26515
1185,56779;2,26752
1183,51663;2,26931
1181,46547;2,26935
1179,41432;2,27103
1177,36316;2,27497
1175,31201;2,27762
1173,26085;2,27763
1171,2097;2,27539
1169,15854;2,27256
1167,10739;2,27098
1165,05623;2,26921
1163,00508;2,26742
1160,95392;2,26704
1158,90277;2,26635
1156,85161;2,26371
1154,80046;2,26048
1152,7493;2,25852
1150,69814;2,25741
1148,64699;2,25722
1146,59583;2,25911
1144,54468;2,261
1142,49352;2,25911
1140,44237;2,25468
1138,39121;2,25185
1136,34006;2,25148
1134,2889;2,25164
1132,23775;2,25088
1130,18659;2,24941
1128,13544;2,24901
1126,08428;2,25237
1124,03313;2,257
1121,98197;2,25807
1119,93081;2,25798
1117,87966;2,26053
1115,8285;2,26369
1113,77735;2,26465
1111,72619;2,26471
1109,67504;2,26612
1107,62388;2,26734
1105,57273;2,26596
1103,52157;2,26463
1101,47042;2,26609
1099,41926;2,26682
1097,36811;2,26564
1095,31695;2,26536
1093,2658;2,26466
1091,21464;2,2626
1089,16348;2,2596
1087,11233;2,25676
1085,06117;2,25632
1083,01002;2,25527
1080,95886;2,25087
1078,90771;2,24654
1076,85655;2,24368
1074,8054;2,24176
1072,75424;2,24118
1070,70309;2,24084
1068,65193;2,24062
1066,60078;2,24096
1064,54962;2,24127
1062,49847;2,2409
1060,44731;2,23845
1058,39615;2,23493
1056,345;2,2332
1054,29384;2,23323
1052,24269;2,2324
1050,19153;2,22949
1048,14038;2,22477
1046,08922;2,22034
1044,03807;2,21907
1041,98691;2,21848
1039,93576;2,21518
1037,8846;2,21018
1035,83345;2,20541
1033,78229;2,20263
1031,73114;2,2034
1029,67998;2,20583
1027,62882;2,20606
1025,57767;2,20531
1023,52651;2,20471
1021,47536;2,20241
1019,4242;2,20092
1017,37305;2,20191
1015,32189;2,20339
1013,27074;2,20441
1011,21958;2,2047
1009,16843;2,20341
1007,11727;2,20015
1005,06612;2,19827
1003,01496;2,19923
1000,96381;2,20006
998,91265;2,20019
996,86149;2,20011
994,81034;2,19937
992,75918;2,1981
990,70803;2,19756
988,65687;2,19907
986,60572;2,20144
984,55456;2,20292
982,50341;2,2033
980,45225;2,20305
978,4011;2,20389
976,34994;2,20641
974,29879;2,20954
972,24763;2,21128
970,19647;2,20829
968,14532;2,20204
966,09416;2,19784
964,04301;2,19592
961,99185;2,19228
959,9407;2,18685
957,88954;2,18293
955,83839;2,18106
953,78723;2,18006
951,73608;2,17827
949,68492;2,17405
947,63377;2,16879
945,58261;2,16515
943,53146;2,16448
941,4803;2,16514
939,42914;2,16421
937,37799;2,16393
935,32683;2,16598
933,27568;2,16829
931,22452;2,17125
929,17337;2,17437
927,12221;2,17354
925,07106;2,16848
923,0199;2,16587
920,96875;2,16684
918,91759;2,16542
916,86644;2,16183
914,81528;2,15925
912,76413;2,15642
910,71297;2,1536
908,66181;2,1528
906,61066;2,15194
904,5595;2,14926
902,50835;2,1467
900,45719;2,14357
898,40604;2,13798
896,35488;2,13352
894,30373;2,13279
892,25257;2,13211
890,20142;2,12952
888,15026;2,13014
886,09911;2,13904
884,04795;2,1526
881,9968;2,16299
879,94564;2,16864
877,89448;2,17053
875,84333;2,16833
873,79217;2,16646
871,74102;2,17105
869,68986;2,18243
867,63871;2,19223
865,58755;2,19314
863,5364;2,1899
861,48524;2,18752
859,43409;2,18545
857,38293;2,18612
855,33178;2,1916
853,28062;2,19801
851,22947;2,20212
849,17831;2,20305
847,12715;2,19836
845,076;2,19052
843,02484;2,18601
840,97369;2,18526
838,92253;2,18654
836,87138;2,18993
834,82022;2,19273
832,76907;2,19412
830,71791;2,19681
828,66676;2,19883
826,6156;2,19807
824,56445;2,19619
822,51329;2,19437
820,46214;2,19455
818,41098;2,19642
816,35982;2,19706
814,30867;2,19697
812,25751;2,19717
810,20636;2,1969
808,1552;2,19474
806,10405;2,19112
804,05289;2,19102
802,00174;2,19658
799,95058;2,20257
797,89943;2,20225
795,84827;2,19507
793,79712;2,18784
791,74596;2,18706
789,69481;2,19294
787,64365;2,19952
785,59249;2,20176
783,54134;2,20247
781,49018;2,2039
779,43903;2,203
777,38787;2,20251
775,33672;2,206
773,28556;2,20733
771,23441;2,2043
769,18325;2,20323
767,1321;2,20614
765,08094;2,20943
763,02979;2,21023
760,97863;2,20976
758,92748;2,20856
756,87632;2,20399
754,82516;2,19739
752,77401;2,19597
750,72285;2,20015
748,6717;2,20341
746,62054;2,20617
744,56939;2,21098
742,51823;2,21549
740,46708;2,21954
738,41592;2,22371
736,36477;2,22544
734,31361;2,22557
732,26246;2,22485
730,2113;2,22147
728,16015;2,21809
726,10899;2,21691
724,05783;2,2158
722,00668;2,21442
719,95552;2,21501
717,90437;2,21653
715,85321;2,21356
713,80206;2,20691
711,7509;2,20412
709,69975;2,20589
707,64859;2,2071
705,59744;2,2067
703,54628;2,20695
701,49513;2,20593
699,44397;2,19988
697,39281;2,19574
695,34166;2,2009
693,2905;2,20737
691,23935;2,20547
689,18819;2,19827
687,13704;2,19366
685,08588;2,19343
683,03473;2,19361
680,98357;2,19211
678,93242;2,19271
676,88126;2,19776
674,83011;2,20079
672,77895;2,19433
670,7278;2,18284
668,67664;2,17835
666,62548;2,18385
664,57433;2,18984
662,52317;2,19153
660,47202;2,19012
658,42086;2,19033
656,36971;2,19356
654,31855;2,19423
652,2674;2,1926
650,21624;2,19427
648,16509;2,19738
646,11393;2,19494
644,06278;2,1884
642,01162;2,18612
639,96047;2,19
637,90931;2,19497
635,85815;2,19671
633,807;2,19542
631,75584;2,1938
629,70469;2,19331
627,65353;2,1924
625,60238;2,18912
623,55122;2,18652
621,50007;2,18355
619,44891;2,17806
617,39776;2,17507
615,3466;2,17607
613,29545;2,17666
611,24429;2,17514
609,19314;2,17522
607,14198;2,1786
605,09082;2,18
603,03967;2,17919
600,98851;2,17963
598,93736;2,17889
596,8862;2,17592
594,83505;2,17423
592,78389;2,1745
590,73274;2,17428
588,68158;2,17313
586,63043;2,17061
584,57927;2,16651
582,52812;2,16364
580,47696;2,16602
578,42581;2,17332
576,37465;2,17763
574,32349;2,17581
572,27234;2,17503
570,22118;2,1765
568,17003;2,17537
566,11887;2,1747
564,06772;2,1734
562,01656;2,16801
559,96541;2,16517
557,91425;2,16622
555,8631;2,16551
553,81194;2,16687
551,76079;2,17334
549,70963;2,17878
547,65848;2,17882
545,60732;2,17269
543,55616;2,1651
541,50501;2,16289
539,45385;2,16567
537,4027;2,16887
535,35154;2,16888
533,30039;2,16551
531,24923;2,16569
529,19808;2,17055
527,14692;2,16992
525,09577;2,16212
523,04461;2,15573
520,99346;2,15408
518,9423;2,15652
516,89115;2,16268
514,83999;2,16978
512,78883;2,17152
510,73768;2,16739
508,68652;2,16336
506,63537;2,16231
504,58421;2,16508
502,53306;2,16783
500,4819;2,1651
498,43075;2,16332
496,37959;2,16788
494,32844;2,17374
492,27728;2,17528
490,22613;2,16835
488,17497;2,15474
486,12382;2,14602
484,07266;2,14716
482,0215;2,14992
479,97035;2,15282
477,91919;2,15479
475,86804;2,14676
473,81688;2,13097
471,76573;2,12336
469,71457;2,13189
467,66342;2,14288
465,61226;2,13946
463,56111;2,12596
461,50995;2,12074
459,4588;2,12682
457,40764;2,13233
455,35649;2,13198
453,30533;2,12951
451,25417;2,12771
449,20302;2,12366
447,15186;2,11829
445,10071;2,11429
443,04955;2,11164
440,9984;2,11435
438,94724;2,12059
436,89609;2,12064
434,84493;2,11472
432,79378;2,11564
430,74262;2,12301
428,69147;2,12485
426,64031;2,13033
424,58916;2,14947
422,538;2,16339
420,48684;2,14786
418,43569;2,11653
416,38453;2,1085
414,33338;2,12016
412,28222;2,13282
410,23107;2,13941
408,17991;2,13752
406,12876;2,11861
404,0776;2,08866
402,02645;2,07747
399,97529;2,09299
