3997,70175;1,80789
3995,6506;1,8075
3993,59944;1,80657
3991,54829;1,80639
3989,49713;1,80662
3987,44598;1,80633
3985,39482;1,80592
3983,34367;1,80585
3981,29251;1,80602
3979,24136;1,80582
3977,1902;1,8047
3975,13905;1,80432
3973,08789;1,80588
3971,03673;1,80668
3968,98558;1,80531
3966,93442;1,8047
3964,88327;1,80651
3962,83211;1,80875
3960,78096;1,80942
3958,7298;1,80876
3956,67865;1,80851
3954,62749;1,81005
3952,57634;1,81231
3950,52518;1,81291
3948,47403;1,81164
3946,42287;1,81036
3944,37172;1,80929
3942,32056;1,80737
3940,2694;1,80555
3938,21825;1,80528
3936,16709;1,80568
3934,11594;1,80464
3932,06478;1,80218
3930,01363;1,80002
3927,96247;1,79812
3925,91132;1,79491
3923,86016;1,79076
3921,80901;1,78759
3919,75785;1,78576
3917,7067;1,78387
3915,65554;1,78164
3913,60439;1,78003
3911,55323;1,77837
3909,50207;1,77602
3907,45092;1,77445
3905,39976;1,77407
3903,34861;1,77298
3901,29745;1,77023
3899,2463;1,76692
3897,19514;1,76532
3895,14399;1,76634
3893,09283;1,76774
3891,04168;1,7673
3888,99052;1,76644
3886,93937;1,76567
3884,88821;1,76422
3882,83706;1,76271
3880,7859;1,76102
3878,73474;1,75978
3876,68359;1,75966
3874,63243;1,7601
3872,58128;1,76028
3870,53012;1,75897
3868,47897;1,75758
3866,42781;1,75719
3864,37666;1,75715
3862,3255;1,7573
3860,27435;1,75658
3858,22319;1,75514
3856,17204;1,75433
3854,12088;1,75385
3852,06973;1,75283
3850,01857;1,75178
3847,96741;1,75178
3845,91626;1,75307
3843,8651;1,75467
3841,81395;1,75577
3839,76279;1,75579
3837,71164;1,75474
3835,66048;1,75378
3833,60933;1,75364
3831,55817;1,75395
3829,50702;1,75412
3827,45586;1,75384
3825,40471;1,75449
3823,35355;1,7563
3821,3024;1,75692
3819,25124;1,75644
3817,20008;1,75625
3815,14893;1,75719
3813,09777;1,75906
3811,04662;1,76044
3808,99546;1,7601
3806,94431;1,75857
3804,89315;1,75947
3802,842;1,76223
3800,79084;1,76376
3798,73969;1,76425
3796,68853;1,76427
3794,63738;1,76441
3792,58622;1,7651
3790,53506;1,76639
3788,48391;1,76838
3786,43275;1,77052
3784,3816;1,77187
3782,33044;1,77263
3780,27929;1,77388
3778,22813;1,7761
3776,17698;1,77779
3774,12582;1,77792
3772,07467;1,77735
3770,02351;1,777
3767,97236;1,77779
3765,9212;1,77985
3763,87005;1,78244
3761,81889;1,78426
3759,76773;1,7851
3757,71658;1,78671
3755,66542;1,78978
3753,61427;1,79199
3751,56311;1,79157
3749,51196;1,79165
3747,4608;1,79497
3745,40965;1,79827
3743,35849;1,80096
3741,30734;1,80547
3739,25618;1,81166
3737,20503;1,81729
3735,15387;1,81934
3733,10272;1,81824
3731,05156;1,81823
3729,0004;1,82096
3726,94925;1,82499
3724,89809;1,83008
3722,84694;1,8354
3720,79578;1,83974
3718,74463;1,84337
3716,69347;1,84638
3714,64232;1,84876
3712,59116;1,85252
3710,54001;1,85945
3708,48885;1,86715
3706,4377;1,874
3704,38654;1,88249
3702,33539;1,89432
3700,28423;1,90726
3698,23307;1,91768
3696,18192;1,92489
3694,13076;1,93085
3692,07961;1,93728
3690,02845;1,94414
3687,9773;1,95059
3685,92614;1,95686
3683,87499;1,96401
3681,82383;1,973
3679,77268;1,98294
3677,72152;1,99172
3675,67037;1,99914
3673,61921;2,00852
3671,56806;2,02176
3669,5169;2,03842
3667,46574;2,05435
3665,41459;2,06706
3663,36343;2,07934
3661,31228;2,09266
3659,26112;2,10603
3657,20997;2,11947
3655,15881;2,13481
3653,10766;2,15324
3651,0565;2,17504
3649,00535;2,1965
3646,95419;2,21022
3644,90304;2,21716
3642,85188;2,22332
3640,80073;2,23288
3638,74957;2,2457
3636,69841;2,25851
3634,64726;2,26943
3632,5961;2,27985
3630,54495;2,28946
3628,49379;2,29682
3626,44264;2,30411
3624,39148;2,31282
3622,34033;2,32407
3620,28917;2,33857
3618,23802;2,35306
3616,18686;2,3634
3614,13571;2,36977
3612,08455;2,37632
3610,0334;2,38459
3607,98224;2,39181
3605,93108;2,39894
3603,87993;2,40734
3601,82877;2,41603
3599,77762;2,42848
3597,72646;2,44606
3595,67531;2,45739
3593,62415;2,45526
3591,573;2,45095
3589,52184;2,45299
3587,47069;2,45788
3585,41953;2,46412
3583,36838;2,47349
3581,31722;2,48465
3579,26607;2,49557
3577,21491;2,50361
3575,16375;2,50613
3573,1126;2,50524
3571,06144;2,50712
3569,01029;2,51483
3566,95913;2,52568
3564,90798;2,53297
3562,85682;2,53173
3560,80567;2,52868
3558,75451;2,53317
3556,70336;2,54173
3554,6522;2,54742
3552,60105;2,55349
3550,54989;2,56304
3548,49874;2,56903
3546,44758;2,56741
3544,39642;2,56734
3542,34527;2,57385
3540,29411;2,57768
3538,24296;2,57538
3536,1918;2,57359
3534,14065;2,57406
3532,08949;2,57557
3530,03834;2,58
3527,98718;2,58534
3525,93603;2,58702
3523,88487;2,587
3521,83372;2,58895
3519,78256;2,5912
3517,73141;2,59312
3515,68025;2,59611
3513,62909;2,59792
3511,57794;2,59602
3509,52678;2,59242
3507,47563;2,59241
3505,42447;2,59656
3503,37332;2,60015
3501,32216;2,60106
3499,27101;2,59911
3497,21985;2,59655
3495,1687;2,59614
3493,11754;2,59613
3491,06639;2,59751
3489,01523;2,6018
3486,96407;2,60511
3484,91292;2,60652
3482,86176;2,60658
3480,81061;2,60168
3478,75945;2,59655
3476,7083;2,59944
3474,65714;2,60414
3472,60599;2,60468
3470,55483;2,60443
3468,50368;2,60379
3466,45252;2,60183
3464,40137;2,59795
3462,35021;2,5924
3460,29906;2,59142
3458,2479;2,5969
3456,19674;2,60355
3454,14559;2,60702
3452,09443;2,60578
3450,04328;2,60462
3447,99212;2,60711
3445,94097;2,61115
3443,88981;2,61165
3441,83866;2,60755
3439,7875;2,60698
3437,73635;2,60925
3435,68519;2,60505
3433,63404;2,59869
3431,58288;2,59737
3429,53173;2,59751
3427,48057;2,59727
3425,42941;2,59636
3423,37826;2,59173
3421,3271;2,5892
3419,27595;2,59123
3417,22479;2,5889
3415,17364;2,58547
3413,12248;2,58825
3411,07133;2,59036
3409,02017;2,58574
3406,96902;2,57967
3404,91786;2,57596
3402,86671;2,57224
3400,81555;2,56975
3398,7644;2,57413
3396,71324;2,57892
3394,66208;2,5735
3392,61093;2,56723
3390,55977;2,57044
3388,50862;2,577
3386,45746;2,58155
3384,40631;2,58151
3382,35515;2,57447
3380,304;2,56522
3378,25284;2,55961
3376,20169;2,5566
3374,15053;2,55634
3372,09938;2,56043
3370,04822;2,56354
3367,99707;2,56222
3365,94591;2,56194
3363,89475;2,56219
3361,8436;2,55741
3359,79244;2,55354
3357,74129;2,55495
3355,69013;2,55711
3353,63898;2,55735
3351,58782;2,55134
3349,53667;2,54184
3347,48551;2,53998
3345,43436;2,54579
3343,3832;2,55144
3341,33205;2,55349
3339,28089;2,55278
3337,22974;2,55006
3335,17858;2,54558
3333,12742;2,54098
3331,07627;2,53656
3329,02511;2,53444
3326,97396;2,53468
3324,9228;2,53095
3322,87165;2,52783
3320,82049;2,53287
3318,76934;2,5388
3316,71818;2,53988
3314,66703;2,53952
3312,61587;2,53905
3310,56472;2,53822
3308,51356;2,53624
3306,46241;2,53318
3304,41125;2,53478
3302,36009;2,54163
3300,30894;2,5441
3298,25778;2,53867
3296,20663;2,53125
3294,15547;2,52548
3292,10432;2,5191
3290,05316;2,51428
3288,00201;2,51547
3285,95085;2,51943
3283,8997;2,52444
3281,84854;2,53128
3279,79739;2,53697
3277,74623;2,53928
3275,69508;2,53528
3273,64392;2,52637
3271,59276;2,52146
3269,54161;2,52106
3267,49045;2,51888
3265,4393;2,51593
3263,38814;2,51588
3261,33699;2,51598
3259,28583;2,51169
3257,23468;2,50559
3255,18352;2,5028
3253,13237;2,50453
3251,08121;2,50771
3249,03006;2,50781
3246,9789;2,50721
3244,92775;2,50898
3242,87659;2,51012
3240,82543;2,50901
3238,77428;2,50796
3236,72312;2,50693
3234,67197;2,50412
3232,62081;2,49985
3230,56966;2,49551
3228,5185;2,49341
3226,46735;2,49203
3224,41619;2,48858
3222,36504;2,48691
3220,31388;2,48769
3218,26273;2,48792
3216,21157;2,49124
3214,16041;2,49754
3212,10926;2,4975
3210,0581;2,48979
3208,00695;2,48582
3205,95579;2,49035
3203,90464;2,49386
3201,85348;2,49104
3199,80233;2,48822
3197,75117;2,48641
3195,70002;2,48324
3193,64886;2,48367
3191,59771;2,48738
3189,54655;2,48795
3187,4954;2,48548
3185,44424;2,48232
3183,39308;2,47898
3181,34193;2,4773
3179,29077;2,47774
3177,23962;2,47795
3175,18846;2,47785
3173,13731;2,47792
3171,08615;2,47703
3169,035;2,47483
3166,98384;2,47374
3164,93269;2,47532
3162,88153;2,47466
3160,83038;2,46972
3158,77922;2,4672
3156,72807;2,47218
3154,67691;2,47804
3152,62575;2,47504
3150,5746;2,46764
3148,52344;2,46435
3146,47229;2,46424
3144,42113;2,46265
3142,36998;2,461
3140,31882;2,46155
3138,26767;2,46126
3136,21651;2,46009
3134,16536;2,4603
3132,1142;2,45955
3130,06305;2,45771
3128,01189;2,45643
3125,96074;2,45278
3123,90958;2,44884
3121,85842;2,44998
3119,80727;2,45251
3117,75611;2,44991
3115,70496;2,44497
3113,6538;2,44326
3111,60265;2,44372
3109,55149;2,44309
3107,50034;2,44105
3105,44918;2,4394
3103,39803;2,43802
3101,34687;2,43655
3099,29572;2,43519
3097,24456;2,43387
3095,19341;2,43536
3093,14225;2,4382
3091,09109;2,4367
3089,03994;2,43188
3086,98878;2,42851
3084,93763;2,42676
3082,88647;2,42506
3080,83532;2,42308
3078,78416;2,4208
3076,73301;2,42029
3074,68185;2,422
3072,6307;2,42159
3070,57954;2,41845
3068,52839;2,41615
3066,47723;2,41384
3064,42608;2,41196
3062,37492;2,41197
3060,32376;2,41101
3058,27261;2,40778
3056,22145;2,40399
3054,1703;2,40134
3052,11914;2,39899
3050,06799;2,39593
3048,01683;2,39325
3045,96568;2,39157
3043,91452;2,39122
3041,86337;2,39168
3039,81221;2,39119
3037,76106;2,38936
3035,7099;2,38807
3033,65875;2,38763
3031,60759;2,38587
3029,55643;2,38276
3027,50528;2,3818
3025,45412;2,38212
3023,40297;2,37821
3021,35181;2,37228
3019,30066;2,37276
3017,2495;2,37824
3015,19835;2,37926
3013,14719;2,37558
3011,09604;2,37318
3009,04488;2,37217
3006,99373;2,37146
3004,94257;2,37259
3002,89142;2,37344
3000,84026;2,37182
2998,7891;2,37197
2996,73795;2,37539
2994,68679;2,37679
2992,63564;2,37438
2990,58448;2,37293
2988,53333;2,37725
2986,48217;2,3844
2984,43102;2,38874
2982,37986;2,39091
2980,32871;2,39193
2978,27755;2,39191
2976,2264;2,39234
2974,17524;2,39372
2972,12409;2,39754
2970,07293;2,40207
2968,02177;2,40429
2965,97062;2,40586
2963,91946;2,40779
2961,86831;2,40958
2959,81715;2,41185
2957,766;2,4173
2955,71484;2,42479
2953,66369;2,42835
2951,61253;2,42792
2949,56138;2,42679
2947,51022;2,4274
2945,45907;2,43182
2943,40791;2,43823
2941,35675;2,44166
2939,3056;2,4395
2937,25444;2,43513
2935,20329;2,43445
2933,15213;2,43903
2931,10098;2,44228
2929,04982;2,44117
2926,99867;2,44128
2924,94751;2,4409
2922,89636;2,43739
2920,8452;2,43604
2918,79405;2,4361
2916,74289;2,43291
2914,69174;2,42781
2912,64058;2,42294
2910,58942;2,42113
2908,53827;2,42337
2906,48711;2,42604
2904,43596;2,42622
2902,3848;2,42368
2900,33365;2,42115
2898,28249;2,42081
2896,23134;2,42091
2894,18018;2,42004
2892,12903;2,41904
2890,07787;2,4175
2888,02672;2,41553
2885,97556;2,41512
2883,92441;2,4153
2881,87325;2,41476
2879,82209;2,41591
2877,77094;2,41615
2875,71978;2,41137
2873,66863;2,4049
2871,61747;2,39945
2869,56632;2,39585
2867,51516;2,39507
2865,46401;2,39386
2863,41285;2,38956
2861,3617;2,38578
2859,31054;2,38249
2857,25939;2,37611
2855,20823;2,3697
2853,15708;2,36625
2851,10592;2,36519
2849,05476;2,36453
2847,00361;2,36198
2844,95245;2,3575
2842,9013;2,35291
2840,85014;2,35025
2838,79899;2,34803
2836,74783;2,3446
2834,69668;2,34168
2832,64552;2,33893
2830,59437;2,33551
2828,54321;2,33206
2826,49206;2,32665
2824,4409;2,31964
2822,38975;2,31456
2820,33859;2,31197
2818,28743;2,31138
2816,23628;2,31162
2814,18512;2,31004
2812,13397;2,30621
2810,08281;2,30159
2808,03166;2,29719
2805,9805;2,29456
2803,92935;2,29279
2801,87819;2,28975
2799,82704;2,28739
2797,77588;2,28648
2795,72473;2,28428
2793,67357;2,28162
2791,62242;2,28068
2789,57126;2,27967
2787,5201;2,27695
2785,46895;2,27461
2783,41779;2,27458
2781,36664;2,27492
2779,31548;2,27454
2777,26433;2,27341
2775,21317;2,27081
2773,16202;2,26814
2771,11086;2,26616
2769,05971;2,26325
2767,00855;2,25878
2764,9574;2,25648
2762,90624;2,258
2760,85509;2,2592
2758,80393;2,25827
2756,75277;2,25695
2754,70162;2,25498
2752,65046;2,25118
2750,59931;2,24778
2748,54815;2,24671
2746,497;2,24617
2744,44584;2,24469
2742,39469;2,24254
2740,34353;2,24095
2738,29238;2,24054
2736,24122;2,23974
2734,19007;2,23909
2732,13891;2,24022
2730,08776;2,2418
2728,0366;2,24215
2725,98544;2,24094
2723,93429;2,23716
2721,88313;2,23143
2719,83198;2,22775
2717,78082;2,22775
2715,72967;2,22937
2713,67851;2,22984
2711,62736;2,22752
2709,5762;2,22451
2707,52505;2,2241
2705,47389;2,22566
2703,42274;2,22609
2701,37158;2,22403
2699,32043;2,22099
2697,26927;2,2195
2695,21811;2,21868
2693,16696;2,21746
2691,1158;2,21694
2689,06465;2,21592
2687,01349;2,21338
2684,96234;2,20993
2682,91118;2,20725
2680,86003;2,20609
2678,80887;2,2045
2676,75772;2,20198
2674,70656;2,20023
2672,65541;2,1986
2670,60425;2,19516
2668,55309;2,19221
2666,50194;2,19168
2664,45078;2,19038
2662,39963;2,18661
2660,34847;2,18399
2658,29732;2,18386
2656,24616;2,18316
2654,19501;2,18186
2652,14385;2,18147
2650,0927;2,18065
2648,04154;2,17823
2645,99039;2,17551
2643,93923;2,17386
2641,88808;2,17366
2639,83692;2,17386
2637,78576;2,17315
2635,73461;2,17299
2633,68345;2,1736
2631,6323;2,1734
2629,58114;2,17318
2627,52999;2,1732
2625,47883;2,17292
2623,42768;2,17309
2621,37652;2,17246
2619,32537;2,16955
2617,27421;2,16722
2615,22306;2,16814
2613,1719;2,17022
2611,12075;2,16997
2609,06959;2,16709
2607,01843;2,16448
2604,96728;2,16453
2602,91612;2,1651
2600,86497;2,16424
2598,81381;2,16352
2596,76266;2,16327
2594,7115;2,16315
2592,66035;2,16304
2590,60919;2,163
2588,55804;2,16253
2586,50688;2,16103
2584,45573;2,1602
2582,40457;2,16058
2580,35342;2,16073
2578,30226;2,16114
2576,2511;2,1625
2574,19995;2,16357
2572,14879;2,16305
2570,09764;2,16098
2568,04648;2,15907
2565,99533;2,15894
2563,94417;2,15952
2561,89302;2,15879
2559,84186;2,15854
2557,79071;2,15989
2555,73955;2,16051
2553,6884;2,16072
2551,63724;2,16168
2549,58609;2,16277
2547,53493;2,16361
2545,48377;2,16429
2543,43262;2,1649
2541,38146;2,16569
2539,33031;2,16693
2537,27915;2,16837
2535,228;2,17005
2533,17684;2,17213
2531,12569;2,17424
2529,07453;2,17559
2527,02338;2,17667
2524,97222;2,17858
2522,92107;2,18107
2520,86991;2,1824
2518,81876;2,18127
2516,7676;2,17964
2514,71644;2,17764
2512,66529;2,1737
2510,61413;2,17074
2508,56298;2,16927
2506,51182;2,16628
2504,46067;2,16234
2502,40951;2,15842
2500,35836;2,15371
2498,3072;2,14916
2496,25605;2,14499
2494,20489;2,13926
2492,15374;2,13216
2490,10258;2,12649
2488,05143;2,12287
2486,00027;2,1201
2483,94911;2,11792
2481,89796;2,11524
2479,8468;2,11204
2477,79565;2,10861
2475,74449;2,10343
2473,69334;2,09833
2471,64218;2,09561
2469,59103;2,09317
2467,53987;2,08895
2465,48872;2,08448
2463,43756;2,08127
2461,38641;2,07791
2459,33525;2,07389
2457,2841;2,07075
2455,23294;2,06896
2453,18178;2,06742
2451,13063;2,06461
2449,07947;2,06127
2447,02832;2,05901
2444,97716;2,05763
2442,92601;2,05696
2440,87485;2,05619
2438,8237;2,05428
2436,77254;2,05237
2434,72139;2,051
2432,67023;2,04864
2430,61908;2,04534
2428,56792;2,04218
2426,51677;2,03956
2424,46561;2,03832
2422,41445;2,03804
2420,3633;2,03698
2418,31214;2,03546
2416,26099;2,03461
2414,20983;2,03351
2412,15868;2,03158
2410,10752;2,02949
2408,05637;2,02792
2406,00521;2,02781
2403,95406;2,02817
2401,9029;2,02758
2399,85175;2,02704
2397,80059;2,02715
2395,74944;2,02699
2393,69828;2,02576
2391,64712;2,02445
2389,59597;2,0238
2387,54481;2,02264
2385,49366;2,0209
2383,4425;2,02049
2381,39135;2,02204
2379,34019;2,02424
2377,28904;2,02579
2375,23788;2,02652
2373,18673;2,02781
2371,13557;2,0301
2369,08442;2,03138
2367,03326;2,03082
2364,9821;2,02954
2362,93095;2,02937
2360,87979;2,03152
2358,82864;2,03275
2356,77748;2,03086
2354,72633;2,02916
2352,67517;2,03013
2350,62402;2,03305
2348,57286;2,03414
2346,52171;2,03124
2344,47055;2,02871
2342,4194;2,03022
2340,36824;2,03275
2338,31709;2,03346
2336,26593;2,03172
2334,21477;2,02866
2332,16362;2,0271
2330,11246;2,02783
2328,06131;2,02861
2326,01015;2,02809
2323,959;2,02806
2321,90784;2,02963
2319,85669;2,03053
2317,80553;2,02972
2315,75438;2,02909
2313,70322;2,02892
2311,65207;2,02793
2309,60091;2,02637
2307,54976;2,02523
2305,4986;2,02472
2303,44744;2,02487
2301,39629;2,02564
2299,34513;2,02651
2297,29398;2,02741
2295,24282;2,02853
2293,19167;2,02955
2291,14051;2,03032
2289,08936;2,03036
2287,0382;2,02943
2284,98705;2,02856
2282,93589;2,02835
2280,88474;2,02842
2278,83358;2,029
2276,78243;2,03013
2274,73127;2,03113
2272,68011;2,03183
2270,62896;2,0326
2268,5778;2,03396
2266,52665;2,03602
2264,47549;2,03801
2262,42434;2,03903
2260,37318;2,03934
2258,32203;2,0399
2256,27087;2,04109
2254,21972;2,04265
2252,16856;2,04401
2250,11741;2,04492
2248,06625;2,04524
2246,0151;2,04516
2243,96394;2,04601
2241,91278;2,04814
2239,86163;2,05031
2237,81047;2,05149
2235,75932;2,05154
2233,70816;2,05179
2231,65701;2,05371
2229,60585;2,05626
2227,5547;2,05778
2225,50354;2,05924
2223,45239;2,06184
2221,40123;2,0644
2219,35008;2,06582
2217,29892;2,06628
2215,24777;2,06647
2213,19661;2,06728
2211,14545;2,0685
2209,0943;2,06999
2207,04314;2,07156
2204,99199;2,07204
2202,94083;2,07222
2200,88968;2,07316
2198,83852;2,07401
2196,78737;2,07483
2194,73621;2,07625
2192,68506;2,07809
2190,6339;2,07994
2188,58275;2,08154
2186,53159;2,08298
2184,48044;2,08435
2182,42928;2,0856
2180,37812;2,08685
2178,32697;2,08801
2176,27581;2,08913
2174,22466;2,09053
2172,1735;2,09178
2170,12235;2,09373
2168,07119;2,09681
2166,02004;2,09868
2163,96888;2,09902
2161,91773;2,09934
2159,86657;2,09967
2157,81542;2,10027
2155,76426;2,10228
2153,71311;2,10556
2151,66195;2,10797
2149,61079;2,1081
2147,55964;2,107
2145,50848;2,10673
2143,45733;2,10754
2141,40617;2,10799
2139,35502;2,10815
2137,30386;2,10859
2135,25271;2,10816
2133,20155;2,10695
2131,1504;2,10585
2129,09924;2,1043
2127,04809;2,10327
2124,99693;2,10312
2122,94578;2,1019
2120,89462;2,09979
2118,84346;2,09815
2116,79231;2,09767
2114,74115;2,09791
2112,69;2,09704
2110,63884;2,09528
2108,58769;2,09482
2106,53653;2,09542
2104,48538;2,09499
2102,43422;2,093
2100,38307;2,09085
2098,33191;2,08983
2096,28076;2,08988
2094,2296;2,08994
2092,17844;2,08933
2090,12729;2,08802
2088,07613;2,08672
2086,02498;2,08653
2083,97382;2,08726
2081,92267;2,08808
2079,87151;2,08816
2077,82036;2,08645
2075,7692;2,08371
2073,71805;2,08158
2071,66689;2,08122
2069,61574;2,08272
2067,56458;2,08414
2065,51343;2,08376
2063,46227;2,08209
2061,41111;2,08082
2059,35996;2,08106
2057,3088;2,08195
2055,25765;2,0817
2053,20649;2,08007
2051,15534;2,07871
2049,10418;2,07869
2047,05303;2,07897
2045,00187;2,07836
2042,95072;2,07728
2040,89956;2,07597
2038,84841;2,07417
2036,79725;2,07255
2034,7461;2,07154
2032,69494;2,0703
2030,64378;2,06857
2028,59263;2,06725
2026,54147;2,0668
2024,49032;2,06718
2022,43916;2,06736
2020,38801;2,06603
2018,33685;2,06424
2016,2857;2,06312
2014,23454;2,06222
2012,18339;2,06208
2010,13223;2,06278
2008,08108;2,06264
2006,02992;2,0615
2003,97877;2,06068
2001,92761;2,05996
1999,87645;2,05901
1997,8253;2,05918
1995,77414;2,06007
1993,72299;2,0594
1991,67183;2,05756
1989,62068;2,05675
1987,56952;2,05685
1985,51837;2,05672
1983,46721;2,0563
1981,41606;2,05585
1979,3649;2,0553
1977,31375;2,05501
1975,26259;2,05483
1973,21144;2,0543
1971,16028;2,05386
1969,10912;2,05339
1967,05797;2,05267
1965,00681;2,05282
1962,95566;2,05429
1960,9045;2,05592
1958,85335;2,05619
1956,80219;2,05485
1954,75104;2,05301
1952,69988;2,05111
1950,64873;2,04901
1948,59757;2,04781
1946,54642;2,04872
1944,49526;2,04993
1942,44411;2,04897
1940,39295;2,04728
1938,34179;2,04649
1936,29064;2,04645
1934,23948;2,04687
1932,18833;2,04686
1930,13717;2,04616
1928,08602;2,04561
1926,03486;2,04484
1923,98371;2,04329
1921,93255;2,04259
1919,8814;2,04288
1917,83024;2,0427
1915,77909;2,04307
1913,72793;2,04419
1911,67678;2,0448
1909,62562;2,04431
1907,57446;2,04345
1905,52331;2,0436
1903,47215;2,04446
1901,421;2,04485
1899,36984;2,04552
1897,31869;2,04741
1895,26753;2,04926
1893,21638;2,04993
1891,16522;2,05005
1889,11407;2,05095
1887,06291;2,05263
1885,01176;2,05395
1882,9606;2,05507
1880,90945;2,05604
1878,85829;2,05665
1876,80713;2,05689
1874,75598;2,05651
1872,70482;2,0562
1870,65367;2,05645
1868,60251;2,05703
1866,55136;2,05789
1864,5002;2,05868
1862,44905;2,05955
1860,39789;2,06118
1858,34674;2,06339
1856,29558;2,06522
1854,24443;2,06657
1852,19327;2,06803
1850,14212;2,06968
1848,09096;2,07108
1846,0398;2,07195
1843,98865;2,07313
1841,93749;2,07577
1839,88634;2,07847
1837,83518;2,08024
1835,78403;2,08236
1833,73287;2,08656
1831,68172;2,0929
1829,63056;2,09965
1827,57941;2,10476
1825,52825;2,10823
1823,4771;2,11202
1821,42594;2,11625
1819,37478;2,11983
1817,32363;2,12267
1815,27247;2,12536
1813,22132;2,12789
1811,17016;2,12994
1809,11901;2,13205
1807,06785;2,13507
1805,0167;2,14042
1802,96554;2,14889
1800,91439;2,15851
1798,86323;2,16611
1796,81208;2,17109
1794,76092;2,17382
1792,70977;2,17256
1790,65861;2,16759
1788,60745;2,16186
1786,5563;2,15572
1784,50514;2,14934
1782,45399;2,14465
1780,40283;2,14245
1778,35168;2,14178
1776,30052;2,14157
1774,24937;2,14101
1772,19821;2,13972
1770,14706;2,13958
1768,0959;2,14206
1766,04475;2,1464
1763,99359;2,14965
1761,94244;2,15022
1759,89128;2,15075
1757,84012;2,15266
1755,78897;2,15562
1753,73781;2,1595
1751,68666;2,16363
1749,6355;2,16753
1747,58435;2,17054
1745,53319;2,17328
1743,48204;2,17731
1741,43088;2,18152
1739,37973;2,18488
1737,32857;2,18904
1735,27742;2,19284
1733,22626;2,19581
1731,17511;2,1996
1729,12395;2,20427
1727,07279;2,20959
1725,02164;2,21417
1722,97048;2,21793
1720,91933;2,22236
1718,86817;2,22831
1716,81702;2,236
1714,76586;2,24343
1712,71471;2,25008
1710,66355;2,25784
1708,6124;2,26624
1706,56124;2,27408
1704,51009;2,28327
1702,45893;2,29576
1700,40778;2,31229
1698,35662;2,32888
1696,30546;2,34005
1694,25431;2,35067
1692,20315;2,36209
1690,152;2,37149
1688,10084;2,37973
1686,04969;2,38958
1683,99853;2,40298
1681,94738;2,4161
1679,89622;2,42425
1677,84507;2,43003
1675,79391;2,4371
1673,74276;2,44537
1671,6916;2,4522
1669,64045;2,45726
1667,58929;2,46184
1665,53813;2,46643
1663,48698;2,47076
1661,43582;2,47439
1659,38467;2,47739
1657,33351;2,48042
1655,28236;2,48181
1653,2312;2,4819
1651,18005;2,48818
1649,12889;2,49627
1647,07774;2,49735
1645,02658;2,49306
1642,97543;2,48979
1640,92427;2,48978
1638,87312;2,49161
1636,82196;2,49145
1634,7708;2,49038
1632,71965;2,49247
1630,66849;2,49532
1628,61734;2,49626
1626,56618;2,49443
1624,51503;2,4909
1622,46387;2,49055
1620,41272;2,49316
1618,36156;2,49383
1616,31041;2,49553
1614,25925;2,49991
1612,2081;2,50121
1610,15694;2,49843
1608,10579;2,49241
1606,05463;2,48457
1604,00347;2,47865
1601,95232;2,47517
1599,90116;2,47234
1597,85001;2,46944
1595,79885;2,46499
1593,7477;2,45857
1591,69654;2,45134
1589,64539;2,44299
1587,59423;2,43217
1585,54308;2,41826
1583,49192;2,40407
1581,44077;2,39268
1579,38961;2,38186
1577,33846;2,36761
1575,2873;2,35339
1573,23614;2,34382
1571,18499;2,33408
1569,13383;2,32231
1567,08268;2,31347
1565,03152;2,30941
1562,98037;2,30732
1560,92921;2,3008
1558,87806;2,28865
1556,8269;2,28057
1554,77575;2,27484
1552,72459;2,26857
1550,67344;2,26441
1548,62228;2,26365
1546,57113;2,26622
1544,51997;2,27096
1542,46881;2,273
1540,41766;2,2671
1538,3665;2,26132
1536,31535;2,26141
1534,26419;2,26166
1532,21304;2,26214
1530,16188;2,26508
1528,11073;2,26853
1526,05957;2,2725
1524,00842;2,27656
1521,95726;2,27911
1519,90611;2,28246
1517,85495;2,28546
1515,80379;2,28691
1513,75264;2,28938
1511,70148;2,29282
1509,65033;2,29579
1507,59917;2,30007
1505,54802;2,30868
1503,49686;2,31569
1501,44571;2,31835
1499,39455;2,32165
1497,3434;2,32899
1495,29224;2,33762
1493,24109;2,34391
1491,18993;2,34888
1489,13878;2,35479
1487,08762;2,36157
1485,03646;2,36944
1482,98531;2,37821
1480,93415;2,38674
1478,883;2,39398
1476,83184;2,39942
1474,78069;2,40513
1472,72953;2,41514
1470,67838;2,42802
1468,62722;2,43686
1466,57607;2,44154
1464,52491;2,44716
1462,47376;2,45525
1460,4226;2,46192
1458,37145;2,46459
1456,32029;2,46554
1454,26913;2,46667
1452,21798;2,46804
1450,16682;2,47074
1448,11567;2,47313
1446,06451;2,47347
1444,01336;2,47279
1441,9622;2,47366
1439,91105;2,4776
1437,85989;2,4816
1435,80874;2,48294
1433,75758;2,48394
1431,70643;2,4861
1429,65527;2,48714
1427,60412;2,48544
1425,55296;2,48269
1423,5018;2,48208
1421,45065;2,48503
1419,39949;2,48924
1417,34834;2,49225
1415,29718;2,49205
1413,24603;2,48806
1411,19487;2,48274
1409,14372;2,47887
1407,09256;2,47719
1405,04141;2,4784
1402,99025;2,48291
1400,9391;2,48774
1398,88794;2,49113
1396,83679;2,4945
1394,78563;2,49558
1392,73447;2,49249
1390,68332;2,49006
1388,63216;2,49007
1386,58101;2,49003
1384,52985;2,49149
1382,4787;2,49604
1380,42754;2,50047
1378,37639;2,50241
1376,32523;2,50366
1374,27408;2,50607
1372,22292;2,50756
1370,17177;2,50606
1368,12061;2,50414
1366,06946;2,50385
1364,0183;2,50414
1361,96714;2,50404
1359,91599;2,50316
1357,86483;2,50274
1355,81368;2,50383
1353,76252;2,50365
1351,71137;2,50047
1349,66021;2,49741
1347,60906;2,49645
1345,5579;2,49632
1343,50675;2,49682
1341,45559;2,49891
1339,40444;2,50258
1337,35328;2,50598
1335,30213;2,50564
1333,25097;2,50128
1331,19981;2,49783
1329,14866;2,49955
1327,0975;2,50426
1325,04635;2,50627
1322,99519;2,50374
1320,94404;2,50008
1318,89288;2,49922
1316,84173;2,50171
1314,79057;2,50396
1312,73942;2,50281
1310,68826;2,50045
1308,63711;2,50012
1306,58595;2,50091
1304,5348;2,50108
1302,48364;2,5021
1300,43248;2,50448
1298,38133;2,50464
1296,33017;2,50111
1294,27902;2,49661
1292,22786;2,49552
1290,17671;2,49995
1288,12555;2,50439
1286,0744;2,50481
1284,02324;2,50442
1281,97209;2,50361
1279,92093;2,50193
1277,86978;2,50131
1275,81862;2,50112
1273,76747;2,50079
1271,71631;2,49988
1269,66515;2,49737
1267,614;2,4965
1265,56284;2,49983
1263,51169;2,50207
1261,46053;2,49964
1259,40938;2,49695
1257,35822;2,49689
1255,30707;2,49725
1253,25591;2,49736
1251,20476;2,49907
1249,1536;2,5
1247,10245;2,49852
1245,05129;2,49844
1243,00013;2,50109
1240,94898;2,50392
1238,89782;2,50435
1236,84667;2,50309
1234,79551;2,50388
1232,74436;2,50524
1230,6932;2,5024
1228,64205;2,49888
1226,59089;2,49835
1224,53974;2,49703
1222,48858;2,49578
1220,43743;2,49658
1218,38627;2,4956
1216,33512;2,49509
1214,28396;2,49774
1212,2328;2,49898
1210,18165;2,49842
1208,13049;2,49763
1206,07934;2,49573
1204,02818;2,49396
1201,97703;2,49448
1199,92587;2,49659
1197,87472;2,49675
1195,82356;2,49408
1193,77241;2,49295
1191,72125;2,49797
1189,6701;2,50951
1187,61894;2,524
1185,56779;2,53462
1183,51663;2,53828
1181,46547;2,54122
1179,41432;2,54916
1177,36316;2,56215
1175,31201;2,57654
1173,26085;2,58755
1171,2097;2,59545
1169,15854;2,60181
1167,10739;2,60515
1165,05623;2,60567
1163,00508;2,60588
1160,95392;2,6109
1158,90277;2,62139
1156,85161;2,62792
1154,80046;2,62305
1152,7493;2,6149
1150,69814;2,612
1148,64699;2,61246
1146,59583;2,61417
1144,54468;2,61262
1142,49352;2,60793
1140,44237;2,60519
1138,39121;2,60106
1136,34006;2,59799
1134,2889;2,6011
1132,23775;2,60609
1130,18659;2,60833
1128,13544;2,60273
1126,08428;2,59072
1124,03313;2,58427
1121,98197;2,58523
1119,93081;2,58673
1117,87966;2,58745
1115,8285;2,58762
1113,77735;2,58882
1111,72619;2,59266
1109,67504;2,59325
1107,62388;2,58794
1105,57273;2,58186
1103,52157;2,57474
1101,47042;2,5629
1099,41926;2,54834
1097,36811;2,54075
1095,31695;2,54077
1093,2658;2,53328
1091,21464;2,51519
1089,16348;2,49791
1087,11233;2,48381
1085,06117;2,46874
1083,01002;2,45317
1080,95886;2,44022
1078,90771;2,42914
1076,85655;2,41824
1074,8054;2,40987
1072,75424;2,4042
1070,70309;2,39895
1068,65193;2,39572
1066,60078;2,39374
1064,54962;2,39052
1062,49847;2,38711
1060,44731;2,38503
1058,39615;2,38653
1056,345;2,38932
1054,29384;2,38731
1052,24269;2,38078
1050,19153;2,37338
1048,14038;2,36763
1046,08922;2,36455
1044,03807;2,36298
1041,98691;2,35991
1039,93576;2,3541
1037,8846;2,34647
1035,83345;2,33882
1033,78229;2,33467
1031,73114;2,33437
1029,67998;2,3346
1027,62882;2,33351
1025,57767;2,33112
1023,52651;2,32916
1021,47536;2,32971
1019,4242;2,33009
1017,37305;2,32727
1015,32189;2,32374
1013,27074;2,32315
1011,21958;2,32659
1009,16843;2,33106
1007,11727;2,33339
1005,06612;2,33422
1003,01496;2,33474
1000,96381;2,33719
998,91265;2,34313
996,86149;2,35098
994,81034;2,35885
992,75918;2,36386
990,70803;2,36617
988,65687;2,36872
986,60572;2,37121
984,55456;2,37275
982,50341;2,37402
980,45225;2,37605
978,4011;2,37736
976,34994;2,375
974,29879;2,36914
972,24763;2,36359
970,19647;2,36044
968,14532;2,35831
966,09416;2,35708
964,04301;2,35857
961,99185;2,36076
959,9407;2,35945
957,88954;2,35806
955,83839;2,35962
953,78723;2,35942
951,73608;2,35642
949,68492;2,355
947,63377;2,35717
945,58261;2,36157
943,53146;2,36377
941,4803;2,36217
939,42914;2,36197
937,37799;2,36461
935,32683;2,36534
933,27568;2,3619
931,22452;2,359
929,17337;2,36205
927,12221;2,36858
925,07106;2,37318
923,0199;2,37527
920,96875;2,37811
918,91759;2,38248
916,86644;2,38646
914,81528;2,38717
912,76413;2,38336
910,71297;2,37937
908,66181;2,38031
906,61066;2,38677
904,5595;2,39236
902,50835;2,39145
900,45719;2,38628
898,40604;2,381
896,35488;2,38126
894,30373;2,38888
892,25257;2,39277
890,20142;2,38633
888,15026;2,37934
886,09911;2,37928
884,04795;2,3865
881,9968;2,39592
879,94564;2,40168
877,89448;2,40614
875,84333;2,41104
873,79217;2,41426
871,74102;2,41815
869,68986;2,42587
867,63871;2,43336
865,58755;2,43643
863,5364;2,43743
861,48524;2,43866
859,43409;2,43795
857,38293;2,43443
855,33178;2,43217
853,28062;2,43495
851,22947;2,44301
849,17831;2,44938
847,12715;2,44608
845,076;2,43871
843,02484;2,43899
840,97369;2,44748
838,92253;2,45251
836,87138;2,45032
834,82022;2,44992
832,76907;2,4518
830,71791;2,45313
828,66676;2,45955
826,6156;2,46714
824,56445;2,4668
822,51329;2,46377
820,46214;2,46657
818,41098;2,47303
816,35982;2,47353
814,30867;2,47224
812,25751;2,48253
810,20636;2,49318
808,1552;2,48925
806,10405;2,48334
804,05289;2,48359
802,00174;2,48338
799,95058;2,48042
797,89943;2,47723
795,84827;2,47606
793,79712;2,4747
791,74596;2,47043
789,69481;2,4671
787,64365;2,4684
785,59249;2,47161
783,54134;2,4723
781,49018;2,46848
779,43903;2,46145
777,38787;2,46042
775,33672;2,46569
773,28556;2,46348
771,23441;2,46237
769,18325;2,47163
767,1321;2,47589
765,08094;2,47076
763,02979;2,46623
760,97863;2,46385
758,92748;2,45741
756,87632;2,45088
754,82516;2,45593
752,77401;2,46752
750,72285;2,46793
748,6717;2,45933
746,62054;2,45718
744,56939;2,46547
742,51823;2,4778
740,46708;2,48299
738,41592;2,48093
736,36477;2,47944
734,31361;2,48193
732,26246;2,48487
730,2113;2,48425
728,16015;2,48466
726,10899;2,48547
724,05783;2,48099
722,00668;2,4776
719,95552;2,47877
717,90437;2,47446
715,85321;2,45966
713,80206;2,44611
711,7509;2,4427
709,69975;2,44381
707,64859;2,44553
705,59744;2,44891
703,54628;2,45044
701,49513;2,45039
699,44397;2,4546
697,39281;2,46024
695,34166;2,4587
693,2905;2,45582
691,23935;2,46235
689,18819;2,47221
687,13704;2,47403
685,08588;2,46671
683,03473;2,45849
680,98357;2,45484
678,93242;2,45327
676,88126;2,45543
674,83011;2,46543
672,77895;2,47717
670,7278;2,47747
668,67664;2,46486
666,62548;2,45113
664,57433;2,43912
662,52317;2,4276
660,47202;2,42307
658,42086;2,42561
656,36971;2,42835
654,31855;2,43066
652,2674;2,43575
650,21624;2,44168
648,16509;2,44254
646,11393;2,435
644,06278;2,42666
642,01162;2,42732
639,96047;2,43163
637,90931;2,43054
635,85815;2,42846
633,807;2,42964
631,75584;2,43155
629,70469;2,43388
627,65353;2,4357
625,60238;2,43276
623,55122;2,4231
621,50007;2,41041
619,44891;2,40276
617,39776;2,40094
615,3466;2,40265
613,29545;2,41061
611,24429;2,41499
609,19314;2,40717
607,14198;2,4005
605,09082;2,39945
603,03967;2,39806
600,98851;2,40049
598,93736;2,40677
596,8862;2,40688
594,83505;2,40034
592,78389;2,39682
590,73274;2,40033
588,68158;2,40945
586,63043;2,4111
584,57927;2,39396
582,52812;2,37369
580,47696;2,36166
578,42581;2,35337
576,37465;2,3564
574,32349;2,37531
572,27234;2,39788
570,22118;2,40858
568,17003;2,40399
566,11887;2,40379
564,06772;2,41145
562,01656;2,40867
559,96541;2,40512
557,91425;2,41304
555,8631;2,41484
553,81194;2,40462
551,76079;2,39361
549,70963;2,38605
547,65848;2,38443
545,60732;2,38686
543,55616;2,38603
541,50501;2,38371
539,45385;2,37502
537,4027;2,36386
535,35154;2,36446
533,30039;2,36448
531,24923;2,35409
529,19808;2,35007
527,14692;2,36202
525,09577;2,37128
523,04461;2,36286
520,99346;2,35125
518,9423;2,34769
516,89115;2,35283
514,83999;2,36425
512,78883;2,37279
510,73768;2,3705
508,68652;2,36188
506,63537;2,35833
504,58421;2,36082
502,53306;2,36504
500,4819;2,37071
498,43075;2,37653
496,37959;2,37819
494,32844;2,3743
492,27728;2,37074
490,22613;2,37126
488,17497;2,36762
486,12382;2,35844
484,07266;2,36127
482,0215;2,38478
479,97035;2,40282
477,91919;2,38402
475,86804;2,34727
473,81688;2,33762
471,76573;2,35777
469,71457;2,37114
467,66342;2,37349
465,61226;2,38181
463,56111;2,38204
461,50995;2,36739
459,4588;2,36658
457,40764;2,38061
455,35649;2,37785
453,30533;2,36651
451,25417;2,36186
449,20302;2,3513
447,15186;2,3361
445,10071;2,33421
443,04955;2,34791
440,9984;2,36341
438,94724;2,3643
436,89609;2,3521
434,84493;2,349
432,79378;2,36828
430,74262;2,38795
428,69147;2,37078
426,64031;2,34196
424,58916;2,35185
422,538;2,37809
420,48684;2,38078
418,43569;2,36983
416,38453;2,34794
414,33338;2,33028
412,28222;2,32232
410,23107;2,31583
408,17991;2,30197
406,12876;2,27332
404,0776;2,24729
402,02645;2,24185
399,97529;2,24571
