3997,70175;1,75278
3995,6506;1,75192
3993,59944;1,75218
3991,54829;1,75293
3989,49713;1,75385
3987,44598;1,75466
3985,39482;1,75532
3983,34367;1,75678
3981,29251;1,75836
3979,24136;1,75853
3977,1902;1,75817
3975,13905;1,75902
3973,08789;1,76109
3971,03673;1,76307
3968,98558;1,76396
3966,93442;1,76469
3964,88327;1,76655
3962,83211;1,76896
3960,78096;1,7709
3958,7298;1,77274
3956,67865;1,77504
3954,62749;1,77724
3952,57634;1,77867
3950,52518;1,77974
3948,47403;1,78072
3946,42287;1,78176
3944,37172;1,78287
3942,32056;1,78298
3940,2694;1,78124
3938,21825;1,77854
3936,16709;1,77665
3934,11594;1,77508
3932,06478;1,77217
3930,01363;1,76857
3927,96247;1,76562
3925,91132;1,76303
3923,86016;1,76037
3921,80901;1,75798
3919,75785;1,75581
3917,7067;1,75264
3915,65554;1,74873
3913,60439;1,74617
3911,55323;1,74474
3909,50207;1,74279
3907,45092;1,73981
3905,39976;1,73547
3903,34861;1,73064
3901,29745;1,72789
3899,2463;1,72729
3897,19514;1,72756
3895,14399;1,72858
3893,09283;1,729
3891,04168;1,72776
3888,99052;1,72692
3886,93937;1,72624
3884,88821;1,72465
3882,83706;1,7237
3880,7859;1,72335
3878,73474;1,72366
3876,68359;1,72388
3874,63243;1,72226
3872,58128;1,72071
3870,53012;1,7202
3868,47897;1,72054
3866,42781;1,72137
3864,37666;1,72082
3862,3255;1,71918
3860,27435;1,7178
3858,22319;1,71728
3856,17204;1,71674
3854,12088;1,71331
3852,06973;1,70924
3850,01857;1,70918
3847,96741;1,71092
3845,91626;1,71215
3843,8651;1,71321
3841,81395;1,71411
3839,76279;1,71348
3837,71164;1,712
3835,66048;1,71214
3833,60933;1,71305
3831,55817;1,71285
3829,50702;1,71208
3827,45586;1,711
3825,40471;1,71016
3823,35355;1,70972
3821,3024;1,70912
3819,25124;1,71076
3817,20008;1,71275
3815,14893;1,71236
3813,09777;1,71281
3811,04662;1,71529
3808,99546;1,71679
3806,94431;1,71564
3804,89315;1,71485
3802,842;1,71479
3800,79084;1,71488
3798,73969;1,71721
3796,68853;1,72023
3794,63738;1,72247
3792,58622;1,72434
3790,53506;1,72595
3788,48391;1,72705
3786,43275;1,72689
3784,3816;1,72583
3782,33044;1,72581
3780,27929;1,72659
3778,22813;1,72706
3776,17698;1,72793
3774,12582;1,72944
3772,07467;1,73017
3770,02351;1,72987
3767,97236;1,73063
3765,9212;1,73184
3763,87005;1,73215
3761,81889;1,73211
3759,76773;1,73202
3757,71658;1,73299
3755,66542;1,73597
3753,61427;1,73872
3751,56311;1,73803
3749,51196;1,73606
3747,4608;1,73775
3745,40965;1,74108
3743,35849;1,74373
3741,30734;1,74645
3739,25618;1,74858
3737,20503;1,74905
3735,15387;1,74946
3733,10272;1,75228
3731,05156;1,75627
3729,0004;1,76073
3726,94925;1,76576
3724,89809;1,77019
3722,84694;1,7731
3720,79578;1,77572
3718,74463;1,77933
3716,69347;1,78401
3714,64232;1,78835
3712,59116;1,79105
3710,54001;1,79391
3708,48885;1,79905
3706,4377;1,80602
3704,38654;1,81553
3702,33539;1,82941
3700,28423;1,84748
3698,23307;1,86494
3696,18192;1,87654
3694,13076;1,8816
3692,07961;1,88226
3690,02845;1,87964
3687,9773;1,87685
3685,92614;1,87877
3683,87499;1,88385
3681,82383;1,88878
3679,77268;1,89366
3677,72152;1,8993
3675,67037;1,90555
3673,61921;1,91404
3671,56806;1,92402
3669,5169;1,93438
3667,46574;1,94558
3665,41459;1,95677
3663,36343;1,96732
3661,31228;1,97685
3659,26112;1,98592
3657,20997;1,99569
3655,15881;2,00648
3653,10766;2,01733
3651,0565;2,02858
3649,00535;2,04236
3646,95419;2,05716
3644,90304;2,06909
3642,85188;2,0775
3640,80073;2,08392
3638,74957;2,08944
3636,69841;2,09456
3634,64726;2,09993
3632,5961;2,10539
3630,54495;2,10858
3628,49379;2,10946
3626,44264;2,11364
3624,39148;2,12288
3622,34033;2,13312
3620,28917;2,14076
3618,23802;2,14728
3616,18686;2,15499
3614,13571;2,16287
3612,08455;2,17039
3610,0334;2,17714
3607,98224;2,18287
3605,93108;2,18887
3603,87993;2,1953
3601,82877;2,20154
3599,77762;2,20738
3597,72646;2,21149
3595,67531;2,21415
3593,62415;2,21944
3591,573;2,22732
3589,52184;2,23338
3587,47069;2,2381
3585,41953;2,24453
3583,36838;2,24966
3581,31722;2,25149
3579,26607;2,25563
3577,21491;2,26405
3575,16375;2,26965
3573,1126;2,2707
3571,06144;2,27416
3569,01029;2,28243
3566,95913;2,29034
3564,90798;2,29515
3562,85682;2,3
3560,80567;2,30554
3558,75451;2,30959
3556,70336;2,31172
3554,6522;2,31294
3552,60105;2,31518
3550,54989;2,3199
3548,49874;2,32524
3546,44758;2,32931
3544,39642;2,33256
3542,34527;2,33617
3540,29411;2,34091
3538,24296;2,34495
3536,1918;2,34748
3534,14065;2,35136
3532,08949;2,35581
3530,03834;2,35758
3527,98718;2,35839
3525,93603;2,36112
3523,88487;2,36551
3521,83372;2,37034
3519,78256;2,3729
3517,73141;2,37401
3515,68025;2,37975
3513,62909;2,39102
3511,57794;2,39908
3509,52678;2,39709
3507,47563;2,39044
3505,42447;2,38795
3503,37332;2,39115
3501,32216;2,39615
3499,27101;2,40058
3497,21985;2,40396
3495,1687;2,40613
3493,11754;2,40945
3491,06639;2,41542
3489,01523;2,42103
3486,96407;2,42399
3484,91292;2,42522
3482,86176;2,42389
3480,81061;2,41937
3478,75945;2,41765
3476,7083;2,42328
3474,65714;2,42878
3472,60599;2,428
3470,55483;2,42721
3468,50368;2,42966
3466,45252;2,43156
3464,40137;2,43271
3462,35021;2,43342
3460,29906;2,43413
3458,2479;2,43802
3456,19674;2,44176
3454,14559;2,44117
3452,09443;2,44256
3450,04328;2,44781
3447,99212;2,4495
3445,94097;2,44842
3443,88981;2,44889
3441,83866;2,45095
3439,7875;2,45336
3437,73635;2,45335
3435,68519;2,45159
3433,63404;2,45166
3431,58288;2,45233
3429,53173;2,44997
3427,48057;2,44778
3425,42941;2,44651
3423,37826;2,44564
3421,3271;2,45106
3419,27595;2,46104
3417,22479;2,4653
3415,17364;2,46218
3413,12248;2,46006
3411,07133;2,46132
3409,02017;2,46383
3406,96902;2,46751
3404,91786;2,46862
3402,86671;2,46644
3400,81555;2,4674
3398,7644;2,4735
3396,71324;2,47656
3394,66208;2,47183
3392,61093;2,46478
3390,55977;2,45912
3388,50862;2,45734
3386,45746;2,46241
3384,40631;2,46759
3382,35515;2,46723
3380,304;2,46675
3378,25284;2,46968
3376,20169;2,47591
3374,15053;2,48266
3372,09938;2,48224
3370,04822;2,47569
3367,99707;2,47261
3365,94591;2,47738
3363,89475;2,48603
3361,8436;2,4909
3359,79244;2,48981
3357,74129;2,48894
3355,69013;2,49267
3353,63898;2,49742
3351,58782;2,49874
3349,53667;2,49651
3347,48551;2,49469
3345,43436;2,49415
3343,3832;2,49167
3341,33205;2,49003
3339,28089;2,49228
3337,22974;2,49694
3335,17858;2,50361
3333,12742;2,50891
3331,07627;2,50788
3329,02511;2,5006
3326,97396;2,49346
3324,9228;2,49238
3322,87165;2,49538
3320,82049;2,49817
3318,76934;2,49821
3316,71818;2,49605
3314,66703;2,49556
3312,61587;2,49706
3310,56472;2,49682
3308,51356;2,49667
3306,46241;2,50174
3304,41125;2,50933
3302,36009;2,51281
3300,30894;2,50938
3298,25778;2,50354
3296,20663;2,50159
3294,15547;2,50135
3292,10432;2,50024
3290,05316;2,50091
3288,00201;2,50391
3285,95085;2,50698
3283,8997;2,50813
3281,84854;2,50728
3279,79739;2,50767
3277,74623;2,50847
3275,69508;2,50325
3273,64392;2,49565
3271,59276;2,49586
3269,54161;2,50053
3267,49045;2,49937
3265,4393;2,49177
3263,38814;2,48603
3261,33699;2,48531
3259,28583;2,48474
3257,23468;2,48241
3255,18352;2,47797
3253,13237;2,47251
3251,08121;2,4698
3249,03006;2,47088
3246,9789;2,47369
3244,92775;2,47613
3242,87659;2,47582
3240,82543;2,47087
3238,77428;2,46626
3236,72312;2,46532
3234,67197;2,46448
3232,62081;2,4623
3230,56966;2,459
3228,5185;2,45318
3226,46735;2,44787
3224,41619;2,44755
3222,36504;2,44795
3220,31388;2,44533
3218,26273;2,44514
3216,21157;2,4466
3214,16041;2,4456
3212,10926;2,44703
3210,0581;2,44994
3208,00695;2,44732
3205,95579;2,43881
3203,90464;2,43122
3201,85348;2,43187
3199,80233;2,43756
3197,75117;2,43828
3195,70002;2,43254
3193,64886;2,42757
3191,59771;2,42558
3189,54655;2,42403
3187,4954;2,4215
3185,44424;2,41853
3183,39308;2,41779
3181,34193;2,41847
3179,29077;2,41675
3177,23962;2,41169
3175,18846;2,40766
3173,13731;2,40747
3171,08615;2,40572
3169,035;2,40107
3166,98384;2,39907
3164,93269;2,39809
3162,88153;2,39454
3160,83038;2,39056
3158,77922;2,38717
3156,72807;2,38418
3154,67691;2,38365
3152,62575;2,38425
3150,5746;2,38218
3148,52344;2,37803
3146,47229;2,3745
3144,42113;2,37374
3142,36998;2,3735
3140,31882;2,36964
3138,26767;2,36581
3136,21651;2,36507
3134,16536;2,36242
3132,1142;2,35757
3130,06305;2,35436
3128,01189;2,35159
3125,96074;2,34935
3123,90958;2,35091
3121,85842;2,35389
3119,80727;2,3518
3117,75611;2,3462
3115,70496;2,34266
3113,6538;2,34128
3111,60265;2,34128
3109,55149;2,34394
3107,50034;2,34721
3105,44918;2,34805
3103,39803;2,3473
3101,34687;2,34679
3099,29572;2,34756
3097,24456;2,34807
3095,19341;2,34696
3093,14225;2,34579
3091,09109;2,34528
3089,03994;2,34489
3086,98878;2,34535
3084,93763;2,34684
3082,88647;2,34874
3080,83532;2,35189
3078,78416;2,35329
3076,73301;2,34986
3074,68185;2,34585
3072,6307;2,34531
3070,57954;2,34668
3068,52839;2,34833
3066,47723;2,349
3064,42608;2,34788
3062,37492;2,34713
3060,32376;2,34542
3058,27261;2,34218
3056,22145;2,34016
3054,1703;2,33836
3052,11914;2,33546
3050,06799;2,33117
3048,01683;2,32513
3045,96568;2,32175
3043,91452;2,32298
3041,86337;2,32294
3039,81221;2,32031
3037,76106;2,31877
3035,7099;2,31865
3033,65875;2,31791
3031,60759;2,31502
3029,55643;2,31136
3027,50528;2,30965
3025,45412;2,31
3023,40297;2,30974
3021,35181;2,30748
3019,30066;2,30525
3017,2495;2,30544
3015,19835;2,30697
3013,14719;2,30547
3011,09604;2,301
3009,04488;2,29902
3006,99373;2,30032
3004,94257;2,30189
3002,89142;2,30336
3000,84026;2,30512
2998,7891;2,30646
2996,73795;2,30744
2994,68679;2,31036
2992,63564;2,315
2990,58448;2,31918
2988,53333;2,32298
2986,48217;2,32721
2984,43102;2,33316
2982,37986;2,33972
2980,32871;2,34425
2978,27755;2,34799
2976,2264;2,35231
2974,17524;2,35567
2972,12409;2,36055
2970,07293;2,36796
2968,02177;2,37265
2965,97062;2,37418
2963,91946;2,37456
2961,86831;2,37496
2959,81715;2,37543
2957,766;2,3725
2955,71484;2,36638
2953,66369;2,36148
2951,61253;2,36056
2949,56138;2,36082
2947,51022;2,35723
2945,45907;2,35152
2943,40791;2,3474
2941,35675;2,3454
2939,3056;2,34491
2937,25444;2,34532
2935,20329;2,34818
2933,15213;2,35199
2931,10098;2,35223
2929,04982;2,34946
2926,99867;2,34676
2924,94751;2,34337
2922,89636;2,33899
2920,8452;2,33617
2918,79405;2,33357
2916,74289;2,32979
2914,69174;2,32592
2912,64058;2,32013
2910,58942;2,31207
2908,53827;2,30635
2906,48711;2,30344
2904,43596;2,30028
2902,3848;2,29776
2900,33365;2,29624
2898,28249;2,2947
2896,23134;2,29321
2894,18018;2,29169
2892,12903;2,2907
2890,07787;2,29138
2888,02672;2,29283
2885,97556;2,29306
2883,92441;2,29346
2881,87325;2,29582
2879,82209;2,2991
2877,77094;2,30078
2875,71978;2,29946
2873,66863;2,29747
2871,61747;2,29699
2869,56632;2,29658
2867,51516;2,29415
2865,46401;2,28901
2863,41285;2,28096
2861,3617;2,27304
2859,31054;2,26941
2857,25939;2,26817
2855,20823;2,2651
2853,15708;2,26014
2851,10592;2,25485
2849,05476;2,24858
2847,00361;2,24048
2844,95245;2,23218
2842,9013;2,2263
2840,85014;2,2211
2838,79899;2,21319
2836,74783;2,20561
2834,69668;2,20081
2832,64552;2,19769
2830,59437;2,19537
2828,54321;2,19205
2826,49206;2,1876
2824,4409;2,18361
2822,38975;2,1815
2820,33859;2,18118
2818,28743;2,18014
2816,23628;2,17663
2814,18512;2,17228
2812,13397;2,16968
2810,08281;2,16869
2808,03166;2,16767
2805,9805;2,16625
2803,92935;2,16479
2801,87819;2,16179
2799,82704;2,1566
2797,77588;2,15238
2795,72473;2,15045
2793,67357;2,14876
2791,62242;2,14622
2789,57126;2,14305
2787,5201;2,14166
2785,46895;2,14232
2783,41779;2,13984
2781,36664;2,13392
2779,31548;2,12951
2777,26433;2,12784
2775,21317;2,12765
2773,16202;2,12716
2771,11086;2,1251
2769,05971;2,12267
2767,00855;2,12045
2764,9574;2,11809
2762,90624;2,11637
2760,85509;2,11496
2758,80393;2,11322
2756,75277;2,11104
2754,70162;2,10845
2752,65046;2,10662
2750,59931;2,10675
2748,54815;2,10816
2746,497;2,10846
2744,44584;2,10643
2742,39469;2,1031
2740,34353;2,10013
2738,29238;2,09773
2736,24122;2,0956
2734,19007;2,09437
2732,13891;2,09422
2730,08776;2,09451
2728,0366;2,09349
2725,98544;2,09072
2723,93429;2,08816
2721,88313;2,08674
2719,83198;2,08585
2717,78082;2,08474
2715,72967;2,08291
2713,67851;2,08048
2711,62736;2,07849
2709,5762;2,078
2707,52505;2,07862
2705,47389;2,07859
2703,42274;2,07701
2701,37158;2,07556
2699,32043;2,07599
2697,26927;2,07665
2695,21811;2,07611
2693,16696;2,07582
2691,1158;2,07637
2689,06465;2,07671
2687,01349;2,07559
2684,96234;2,07342
2682,91118;2,07201
2680,86003;2,07094
2678,80887;2,06999
2676,75772;2,07096
2674,70656;2,07262
2672,65541;2,07273
2670,60425;2,07267
2668,55309;2,07291
2666,50194;2,07215
2664,45078;2,07099
2662,39963;2,07098
2660,34847;2,07175
2658,29732;2,07195
2656,24616;2,07204
2654,19501;2,07245
2652,14385;2,07271
2650,0927;2,07288
2648,04154;2,074
2645,99039;2,07632
2643,93923;2,07772
2641,88808;2,07873
2639,83692;2,0812
2637,78576;2,08414
2635,73461;2,08784
2633,68345;2,09292
2631,6323;2,09767
2629,58114;2,10148
2627,52999;2,10494
2625,47883;2,10742
2623,42768;2,10861
2621,37652;2,10931
2619,32537;2,11051
2617,27421;2,11249
2615,22306;2,11472
2613,1719;2,11602
2611,12075;2,11577
2609,06959;2,11643
2607,01843;2,11897
2604,96728;2,12066
2602,91612;2,12091
2600,86497;2,12195
2598,81381;2,1241
2596,76266;2,12583
2594,7115;2,12692
2592,66035;2,12797
2590,60919;2,12951
2588,55804;2,13014
2586,50688;2,12854
2584,45573;2,12704
2582,40457;2,1279
2580,35342;2,12964
2578,30226;2,12998
2576,2511;2,12979
2574,19995;2,13038
2572,14879;2,13066
2570,09764;2,12972
2568,04648;2,1288
2565,99533;2,12944
2563,94417;2,13135
2561,89302;2,13322
2559,84186;2,13499
2557,79071;2,13732
2555,73955;2,13978
2553,6884;2,14089
2551,63724;2,14015
2549,58609;2,14056
2547,53493;2,14283
2545,48377;2,14376
2543,43262;2,14345
2541,38146;2,14527
2539,33031;2,14953
2537,27915;2,15328
2535,228;2,15697
2533,17684;2,16164
2531,12569;2,16601
2529,07453;2,17038
2527,02338;2,17496
2524,97222;2,17856
2522,92107;2,1804
2520,86991;2,18102
2518,81876;2,18207
2516,7676;2,18347
2514,71644;2,18393
2512,66529;2,1838
2510,61413;2,18358
2508,56298;2,18232
2506,51182;2,17887
2504,46067;2,17289
2502,40951;2,16561
2500,35836;2,15858
2498,3072;2,15191
2496,25605;2,14516
2494,20489;2,13813
2492,15374;2,13066
2490,10258;2,12319
2488,05143;2,11706
2486,00027;2,11292
2483,94911;2,10882
2481,89796;2,1027
2479,8468;2,09598
2477,79565;2,09129
2475,74449;2,08731
2473,69334;2,08147
2471,64218;2,07498
2469,59103;2,06932
2467,53987;2,06489
2465,48872;2,06156
2463,43756;2,05793
2461,38641;2,054
2459,33525;2,05102
2457,2841;2,04905
2455,23294;2,04709
2453,18178;2,04378
2451,13063;2,03913
2449,07947;2,03528
2447,02832;2,03346
2444,97716;2,03223
2442,92601;2,03048
2440,87485;2,02819
2438,8237;2,02514
2436,77254;2,02244
2434,72139;2,02078
2432,67023;2,01871
2430,61908;2,01621
2428,56792;2,01422
2426,51677;2,01231
2424,46561;2,01076
2422,41445;2,00994
2420,3633;2,00915
2418,31214;2,00849
2416,26099;2,00764
2414,20983;2,00615
2412,15868;2,00553
2410,10752;2,00544
2408,05637;2,00408
2406,00521;2,00249
2403,95406;2,00177
2401,9029;2,00098
2399,85175;1,99984
2397,80059;1,99879
2395,74944;1,99788
2393,69828;1,99739
2391,64712;1,99715
2389,59597;1,99632
2387,54481;1,99519
2385,49366;1,99468
2383,4425;1,99448
2381,39135;1,99421
2379,34019;1,99437
2377,28904;1,99567
2375,23788;1,99825
2373,18673;2,00067
2371,13557;2,00081
2369,08442;1,99846
2367,03326;1,99554
2364,9821;1,99425
2362,93095;1,99556
2360,87979;1,99866
2358,82864;2,00121
2356,77748;2,00131
2354,72633;1,99899
2352,67517;1,99782
2350,62402;2,00022
2348,57286;2,00125
2346,52171;1,99783
2344,47055;1,99542
2342,4194;1,99737
2340,36824;1,99953
2338,31709;1,9996
2336,26593;1,99827
2334,21477;1,99699
2332,16362;1,99711
2330,11246;1,99779
2328,06131;1,99742
2326,01015;1,99657
2323,959;1,99621
2321,90784;1,99566
2319,85669;1,9947
2317,80553;1,99414
2315,75438;1,99426
2313,70322;1,99471
2311,65207;1,99542
2309,60091;1,99679
2307,54976;1,99814
2305,4986;1,99828
2303,44744;1,99731
2301,39629;1,99603
2299,34513;1,9949
2297,29398;1,99392
2295,24282;1,99296
2293,19167;1,99192
2291,14051;1,99104
2289,08936;1,99093
2287,0382;1,99129
2284,98705;1,99145
2282,93589;1,99189
2280,88474;1,99318
2278,83358;1,9946
2276,78243;1,99537
2274,73127;1,9956
2272,68011;1,99532
2270,62896;1,99496
2268,5778;1,99549
2266,52665;1,99672
2264,47549;1,99737
2262,42434;1,99734
2260,37318;1,99786
2258,32203;1,99931
2256,27087;2,00053
2254,21972;2,00078
2252,16856;2,0011
2250,11741;2,00194
2248,06625;2,0028
2246,0151;2,00358
2243,96394;2,00393
2241,91278;2,00402
2239,86163;2,00463
2237,81047;2,00573
2235,75932;2,0075
2233,70816;2,00978
2231,65701;2,01157
2229,60585;2,01331
2227,5547;2,01539
2225,50354;2,0164
2223,45239;2,01599
2221,40123;2,01582
2219,35008;2,0168
2217,29892;2,01822
2215,24777;2,01944
2213,19661;2,02062
2211,14545;2,02145
2209,0943;2,02155
2207,04314;2,02089
2204,99199;2,01997
2202,94083;2,02053
2200,88968;2,02227
2198,83852;2,02271
2196,78737;2,02166
2194,73621;2,02105
2192,68506;2,02196
2190,6339;2,02313
2188,58275;2,02389
2186,53159;2,025
2184,48044;2,02605
2182,42928;2,02685
2180,37812;2,02759
2178,32697;2,02799
2176,27581;2,02867
2174,22466;2,03029
2172,1735;2,03203
2170,12235;2,0332
2168,07119;2,03423
2166,02004;2,03553
2163,96888;2,03788
2161,91773;2,04066
2159,86657;2,04277
2157,81542;2,04472
2155,76426;2,04687
2153,71311;2,0495
2151,66195;2,05258
2149,61079;2,05565
2147,55964;2,05803
2145,50848;2,05847
2143,45733;2,05782
2141,40617;2,05838
2139,35502;2,05983
2137,30386;2,06012
2135,25271;2,0589
2133,20155;2,05729
2131,1504;2,05568
2129,09924;2,05353
2127,04809;2,05055
2124,99693;2,04774
2122,94578;2,04563
2120,89462;2,04285
2118,84346;2,03911
2116,79231;2,03585
2114,74115;2,03407
2112,69;2,03321
2110,63884;2,03225
2108,58769;2,0311
2106,53653;2,02996
2104,48538;2,02951
2102,43422;2,02953
2100,38307;2,0289
2098,33191;2,02863
2096,28076;2,02902
2094,2296;2,02881
2092,17844;2,02782
2090,12729;2,02714
2088,07613;2,02733
2086,02498;2,0277
2083,97382;2,02834
2081,92267;2,0297
2079,87151;2,03047
2077,82036;2,03017
2075,7692;2,02982
2073,71805;2,02959
2071,66689;2,02926
2069,61574;2,02901
2067,56458;2,02869
2065,51343;2,02829
2063,46227;2,02859
2061,41111;2,02903
2059,35996;2,0288
2057,3088;2,0287
2055,25765;2,02945
2053,20649;2,03047
2051,15534;2,03093
2049,10418;2,03084
2047,05303;2,03056
2045,00187;2,03053
2042,95072;2,03062
2040,89956;2,03044
2038,84841;2,03047
2036,79725;2,03126
2034,7461;2,03264
2032,69494;2,03364
2030,64378;2,03354
2028,59263;2,03285
2026,54147;2,03203
2024,49032;2,0311
2022,43916;2,03061
2020,38801;2,03092
2018,33685;2,03145
2016,2857;2,03189
2014,23454;2,0322
2012,18339;2,03234
2010,13223;2,03242
2008,08108;2,03288
2006,02992;2,034
2003,97877;2,03453
2001,92761;2,03399
1999,87645;2,03373
1997,8253;2,03374
1995,77414;2,03364
1993,72299;2,03375
1991,67183;2,03387
1989,62068;2,03412
1987,56952;2,0347
1985,51837;2,03534
1983,46721;2,03567
1981,41606;2,03551
1979,3649;2,0348
1977,31375;2,03464
1975,26259;2,03603
1973,21144;2,03786
1971,16028;2,0389
1969,10912;2,03905
1967,05797;2,03978
1965,00681;2,04275
1962,95566;2,04609
1960,9045;2,04717
1958,85335;2,04608
1956,80219;2,04396
1954,75104;2,04167
1952,69988;2,04017
1950,64873;2,03934
1948,59757;2,0384
1946,54642;2,03826
1944,49526;2,03991
1942,44411;2,04195
1940,39295;2,04318
1938,34179;2,0431
1936,29064;2,04194
1934,23948;2,04156
1932,18833;2,04298
1930,13717;2,04486
1928,08602;2,04554
1926,03486;2,0452
1923,98371;2,04491
1921,93255;2,04534
1919,8814;2,04633
1917,83024;2,04728
1915,77909;2,04824
1913,72793;2,04879
1911,67678;2,04898
1909,62562;2,04996
1907,57446;2,05193
1905,52331;2,05302
1903,47215;2,05295
1901,421;2,05342
1899,36984;2,05408
1897,31869;2,05343
1895,26753;2,05203
1893,21638;2,05205
1891,16522;2,05359
1889,11407;2,05541
1887,06291;2,05708
1885,01176;2,05849
1882,9606;2,06035
1880,90945;2,06206
1878,85829;2,06248
1876,80713;2,06298
1874,75598;2,06462
1872,70482;2,06635
1870,65367;2,06671
1868,60251;2,06618
1866,55136;2,06719
1864,5002;2,0695
1862,44905;2,07111
1860,39789;2,07226
1858,34674;2,07413
1856,29558;2,07624
1854,24443;2,07771
1852,19327;2,07876
1850,14212;2,08006
1848,09096;2,08183
1846,0398;2,08291
1843,98865;2,08272
1841,93749;2,08415
1839,88634;2,08814
1837,83518;2,09295
1835,78403;2,09742
1833,73287;2,10082
1831,68172;2,10311
1829,63056;2,10617
1827,57941;2,11105
1825,52825;2,11614
1823,4771;2,12148
1821,42594;2,12673
1819,37478;2,13063
1817,32363;2,13397
1815,27247;2,13777
1813,22132;2,14129
1811,17016;2,14432
1809,11901;2,14892
1807,06785;2,15665
1805,0167;2,16696
1802,96554;2,17839
1800,91439;2,18975
1798,86323;2,20026
1796,81208;2,20855
1794,76092;2,21253
1792,70977;2,21079
1790,65861;2,20497
1788,60745;2,19702
1786,5563;2,18687
1784,50514;2,17666
1782,45399;2,16947
1780,40283;2,1658
1778,35168;2,16459
1776,30052;2,16355
1774,24937;2,16038
1772,19821;2,15619
1770,14706;2,1554
1768,0959;2,15772
1766,04475;2,15998
1763,99359;2,16119
1761,94244;2,1633
1759,89128;2,16805
1757,84012;2,17254
1755,78897;2,17555
1753,73781;2,17789
1751,68666;2,17976
1749,6355;2,18427
1747,58435;2,19199
1745,53319;2,19793
1743,48204;2,20019
1741,43088;2,20103
1739,37973;2,20286
1737,32857;2,20604
1735,27742;2,2075
1733,22626;2,20873
1731,17511;2,21375
1729,12395;2,22059
1727,07279;2,22716
1725,02164;2,23208
1722,97048;2,23551
1720,91933;2,23816
1718,86817;2,24064
1716,81702;2,24703
1714,76586;2,25895
1712,71471;2,27274
1710,66355;2,28631
1708,6124;2,2988
1706,56124;2,31191
1704,51009;2,33016
1702,45893;2,35364
1700,40778;2,37964
1698,35662;2,40571
1696,30546;2,43213
1694,25431;2,4614
1692,20315;2,48793
1690,152;2,51019
1688,10084;2,52962
1686,04969;2,54296
1683,99853;2,55143
1681,94738;2,56185
1679,89622;2,57407
1677,84507;2,58539
1675,79391;2,59536
1673,74276;2,60587
1671,6916;2,61546
1669,64045;2,62234
1667,58929;2,6295
1665,53813;2,63608
1663,48698;2,6388
1661,43582;2,63834
1659,38467;2,63593
1657,33351;2,62999
1655,28236;2,61866
1653,2312;2,60666
1651,18005;2,60635
1649,12889;2,61146
1647,07774;2,61147
1645,02658;2,60841
1642,97543;2,60545
1640,92427;2,60369
1638,87312;2,60299
1636,82196;2,59683
1634,7708;2,58469
1632,71965;2,57695
1630,66849;2,5716
1628,61734;2,56083
1626,56618;2,54589
1624,51503;2,53338
1622,46387;2,52606
1620,41272;2,52058
1618,36156;2,51011
1616,31041;2,49549
1614,25925;2,48517
1612,2081;2,47844
1610,15694;2,46985
1608,10579;2,45828
1606,05463;2,44616
1604,00347;2,43587
1601,95232;2,42768
1599,90116;2,42108
1597,85001;2,41603
1595,79885;2,41237
1593,7477;2,40959
1591,69654;2,40747
1589,64539;2,40691
1587,59423;2,40777
1585,54308;2,40755
1583,49192;2,40584
1581,44077;2,40517
1579,38961;2,4061
1577,33846;2,40708
1575,2873;2,41014
1573,23614;2,41526
1571,18499;2,41647
1569,13383;2,41468
1567,08268;2,41545
1565,03152;2,41779
1562,98037;2,41827
1560,92921;2,41475
1558,87806;2,4131
1556,8269;2,42172
1554,77575;2,4278
1552,72459;2,42535
1550,67344;2,42158
1548,62228;2,4215
1546,57113;2,42356
1544,51997;2,42655
1542,46881;2,42934
1540,41766;2,42707
1538,3665;2,42363
1536,31535;2,42339
1534,26419;2,42226
1532,21304;2,42124
1530,16188;2,42088
1528,11073;2,41571
1526,05957;2,40706
1524,00842;2,40217
1521,95726;2,40102
1519,90611;2,4013
1517,85495;2,39983
1515,80379;2,39422
1513,75264;2,38881
1511,70148;2,38642
1509,65033;2,38256
1507,59917;2,37325
1505,54802;2,36768
1503,49686;2,36964
1501,44571;2,36972
1499,39455;2,36506
1497,3434;2,35848
1495,29224;2,35375
1493,24109;2,35098
1491,18993;2,3469
1489,13878;2,3442
1487,08762;2,34741
1485,03646;2,35377
1482,98531;2,35929
1480,93415;2,36401
1478,883;2,36913
1476,83184;2,37372
1474,78069;2,37832
1472,72953;2,38649
1470,67838;2,39881
1468,62722;2,40978
1466,57607;2,41606
1464,52491;2,41996
1462,47376;2,42438
1460,4226;2,42694
1458,37145;2,42834
1456,32029;2,43621
1454,26913;2,44755
1452,21798;2,45412
1450,16682;2,45749
1448,11567;2,45951
1446,06451;2,4591
1444,01336;2,45646
1441,9622;2,45373
1439,91105;2,45241
1437,85989;2,44989
1435,80874;2,44528
1433,75758;2,44234
1431,70643;2,44121
1429,65527;2,44031
1427,60412;2,43926
1425,55296;2,4382
1423,5018;2,43915
1421,45065;2,44223
1419,39949;2,44342
1417,34834;2,44273
1415,29718;2,44334
1413,24603;2,44524
1411,19487;2,44769
1409,14372;2,45022
1407,09256;2,45373
1405,04141;2,46113
1402,99025;2,47076
1400,9391;2,47486
1398,88794;2,47204
1396,83679;2,47114
1394,78563;2,47784
1392,73447;2,48791
1390,68332;2,49296
1388,63216;2,48943
1386,58101;2,48187
1384,52985;2,47743
1382,4787;2,47776
1380,42754;2,48037
1378,37639;2,48158
1376,32523;2,4787
1374,27408;2,4736
1372,22292;2,47135
1370,17177;2,47207
1368,12061;2,47142
1366,06946;2,4679
1364,0183;2,46306
1361,96714;2,45876
1359,91599;2,45582
1357,86483;2,4539
1355,81368;2,45251
1353,76252;2,45145
1351,71137;2,4514
1349,66021;2,45224
1347,60906;2,45329
1345,5579;2,4545
1343,50675;2,45549
1341,45559;2,45517
1339,40444;2,45347
1337,35328;2,45209
1335,30213;2,45153
1333,25097;2,45017
1331,19981;2,44738
1329,14866;2,44455
1327,0975;2,44324
1325,04635;2,44382
1322,99519;2,44556
1320,94404;2,44814
1318,89288;2,45092
1316,84173;2,4516
1314,79057;2,44967
1312,73942;2,44758
1310,68826;2,44634
1308,63711;2,44415
1306,58595;2,44078
1304,5348;2,43835
1302,48364;2,43722
1300,43248;2,43643
1298,38133;2,43708
1296,33017;2,43995
1294,27902;2,44243
1292,22786;2,44253
1290,17671;2,44129
1288,12555;2,44048
1286,0744;2,43972
1284,02324;2,4383
1281,97209;2,43788
1279,92093;2,43873
1277,86978;2,43947
1275,81862;2,43993
1273,76747;2,44044
1271,71631;2,44156
1269,66515;2,4431
1267,614;2,44287
1265,56284;2,44054
1263,51169;2,44023
1261,46053;2,44352
1259,40938;2,44622
1257,35822;2,44772
1255,30707;2,4495
1253,25591;2,44944
1251,20476;2,44947
1249,1536;2,4534
1247,10245;2,45689
1245,05129;2,45622
1243,00013;2,45618
1240,94898;2,45808
1238,89782;2,45835
1236,84667;2,45718
1234,79551;2,45582
1232,74436;2,45404
1230,6932;2,45008
1228,64205;2,44446
1226,59089;2,44135
1224,53974;2,4402
1222,48858;2,43815
1220,43743;2,43607
1218,38627;2,43503
1216,33512;2,43443
1214,28396;2,43404
1212,2328;2,43443
1210,18165;2,43445
1208,13049;2,43518
1206,07934;2,43845
1204,02818;2,44132
1201,97703;2,44045
1199,92587;2,43643
1197,87472;2,433
1195,82356;2,43212
1193,77241;2,43346
1191,72125;2,43603
1189,6701;2,43814
1187,61894;2,43864
1185,56779;2,43861
1183,51663;2,43931
1181,46547;2,44046
1179,41432;2,44154
1177,36316;2,44191
1175,31201;2,4439
1173,26085;2,44949
1171,2097;2,45429
1169,15854;2,45417
1167,10739;2,45216
1165,05623;2,45304
1163,00508;2,45479
1160,95392;2,45481
1158,90277;2,45695
1156,85161;2,4607
1154,80046;2,46011
1152,7493;2,4546
1150,69814;2,449
1148,64699;2,44582
1146,59583;2,44186
1144,54468;2,43714
1142,49352;2,43862
1140,44237;2,44508
1138,39121;2,44677
1136,34006;2,44532
1134,2889;2,44635
1132,23775;2,44769
1130,18659;2,44845
1128,13544;2,44971
1126,08428;2,45181
1124,03313;2,45297
1121,98197;2,45152
1119,93081;2,4518
1117,87966;2,45576
1115,8285;2,45731
1113,77735;2,45642
1111,72619;2,45695
1109,67504;2,45667
1107,62388;2,45741
1105,57273;2,4612
1103,52157;2,46376
1101,47042;2,46411
1099,41926;2,46349
1097,36811;2,46236
1095,31695;2,4624
1093,2658;2,46235
1091,21464;2,46107
1089,16348;2,4619
1087,11233;2,46441
1085,06117;2,46221
1083,01002;2,45688
1080,95886;2,45444
1078,90771;2,4524
1076,85655;2,44776
1074,8054;2,44442
1072,75424;2,44534
1070,70309;2,44548
1068,65193;2,44185
1066,60078;2,43732
1064,54962;2,43235
1062,49847;2,43174
1060,44731;2,4366
1058,39615;2,43904
1056,345;2,4379
1054,29384;2,43546
1052,24269;2,43065
1050,19153;2,42377
1048,14038;2,41808
1046,08922;2,41607
1044,03807;2,41903
1041,98691;2,42564
1039,93576;2,42759
1037,8846;2,42422
1035,83345;2,42037
1033,78229;2,41643
1031,73114;2,4189
1029,67998;2,42649
1027,62882;2,42901
1025,57767;2,42756
1023,52651;2,42537
1021,47536;2,42234
1019,4242;2,4217
1017,37305;2,42388
1015,32189;2,42511
1013,27074;2,42464
1011,21958;2,42345
1009,16843;2,42229
1007,11727;2,42283
1005,06612;2,42602
1003,01496;2,42917
1000,96381;2,42801
998,91265;2,42322
996,86149;2,42138
994,81034;2,42323
992,75918;2,42215
990,70803;2,41835
988,65687;2,41638
986,60572;2,4132
984,55456;2,40635
982,50341;2,40223
980,45225;2,40242
978,4011;2,40007
976,34994;2,39603
974,29879;2,39603
972,24763;2,39682
970,19647;2,39206
968,14532;2,38304
966,09416;2,37453
964,04301;2,37027
961,99185;2,37196
959,9407;2,37501
957,88954;2,37437
955,83839;2,37316
953,78723;2,37571
951,73608;2,38014
949,68492;2,38087
947,63377;2,37756
945,58261;2,37611
943,53146;2,37693
941,4803;2,37518
939,42914;2,37226
937,37799;2,37167
935,32683;2,37374
933,27568;2,37788
931,22452;2,38141
929,17337;2,38028
927,12221;2,37629
925,07106;2,37502
923,0199;2,37537
920,96875;2,37293
918,91759;2,36722
916,86644;2,36513
914,81528;2,36803
912,76413;2,36571
910,71297;2,35958
908,66181;2,35792
906,61066;2,35805
904,5595;2,35535
902,50835;2,34999
900,45719;2,34257
898,40604;2,33558
896,35488;2,33017
894,30373;2,32384
892,25257;2,3168
890,20142;2,30779
888,15026;2,30287
886,09911;2,31813
884,04795;2,35235
881,9968;2,38693
879,94564;2,41578
877,89448;2,44305
875,84333;2,46402
873,79217;2,47505
871,74102;2,48538
869,68986;2,49903
867,63871;2,50123
865,58755;2,48735
863,5364;2,47516
861,48524;2,46953
859,43409;2,46291
857,38293;2,45824
855,33178;2,4613
853,28062;2,46366
851,22947;2,46271
849,17831;2,46992
847,12715;2,47691
845,076;2,46645
843,02484;2,4476
840,97369;2,4359
838,92253;2,4322
836,87138;2,43375
834,82022;2,44014
832,76907;2,44698
830,71791;2,44981
828,66676;2,45174
826,6156;2,45644
824,56445;2,4605
822,51329;2,45859
820,46214;2,45333
818,41098;2,45218
816,35982;2,45715
814,30867;2,46273
812,25751;2,46421
810,20636;2,46451
808,1552;2,4681
806,10405;2,47565
804,05289;2,4791
802,00174;2,47375
799,95058;2,47012
797,89943;2,47428
795,84827;2,48221
793,79712;2,48816
791,74596;2,48866
789,69481;2,48672
787,64365;2,48258
785,59249;2,47684
783,54134;2,47488
781,49018;2,47642
779,43903;2,4809
777,38787;2,48815
775,33672;2,49424
773,28556;2,49285
771,23441;2,48425
769,18325;2,47952
767,1321;2,4822
765,08094;2,48637
763,02979;2,49276
760,97863;2,50033
758,92748;2,4984
756,87632;2,4887
754,82516;2,48703
752,77401;2,49104
750,72285;2,48901
748,6717;2,49006
746,62054;2,49864
744,56939;2,5047
742,51823;2,51078
740,46708;2,51737
738,41592;2,51352
736,36477;2,5036
734,31361;2,50272
732,26246;2,51267
730,2113;2,5249
728,16015;2,53388
726,10899;2,5355
724,05783;2,53261
722,00668;2,53337
719,95552;2,53964
717,90437;2,54738
715,85321;2,55478
713,80206;2,56311
711,7509;2,56713
709,69975;2,55808
707,64859;2,54683
705,59744;2,55028
703,54628;2,56163
701,49513;2,56355
699,44397;2,55349
697,39281;2,54479
695,34166;2,54454
693,2905;2,5452
691,23935;2,548
689,18819;2,5553
687,13704;2,5573
685,08588;2,551
683,03473;2,53977
680,98357;2,52811
678,93242;2,52392
676,88126;2,52681
674,83011;2,53128
672,77895;2,54051
670,7278;2,55614
668,67664;2,5686
666,62548;2,56895
664,57433;2,55681
662,52317;2,5385
660,47202;2,52473
658,42086;2,5196
656,36971;2,52172
654,31855;2,52873
652,2674;2,53651
650,21624;2,54397
648,16509;2,54652
646,11393;2,53788
644,06278;2,52922
642,01162;2,53737
639,96047;2,55337
637,90931;2,55146
635,85815;2,53417
633,807;2,52468
631,75584;2,52498
629,70469;2,52584
627,65353;2,52927
625,60238;2,53645
623,55122;2,54249
621,50007;2,54203
619,44891;2,53497
617,39776;2,53909
615,3466;2,55359
613,29545;2,55637
611,24429;2,55744
609,19314;2,56981
607,14198;2,56998
605,09082;2,55655
603,03967;2,55116
600,98851;2,54629
598,93736;2,53715
596,8862;2,53542
594,83505;2,5332
592,78389;2,52378
590,73274;2,52563
588,68158;2,54155
586,63043;2,55641
584,57927;2,56373
582,52812;2,55659
580,47696;2,5392
578,42581;2,53543
576,37465;2,55315
574,32349;2,58134
572,27234;2,59776
570,22118;2,585
568,17003;2,56267
566,11887;2,5497
564,06772;2,53838
562,01656;2,53181
559,96541;2,54004
557,91425;2,55545
555,8631;2,5696
553,81194;2,57923
551,76079;2,58086
549,70963;2,57431
547,65848;2,55984
545,60732;2,54966
543,55616;2,55152
541,50501;2,54893
539,45385;2,53756
537,4027;2,53188
535,35154;2,53519
533,30039;2,5468
531,24923;2,55828
529,19808;2,56289
527,14692;2,56764
525,09577;2,56695
523,04461;2,55778
520,99346;2,54146
518,9423;2,52033
516,89115;2,51733
514,83999;2,53353
512,78883;2,54681
510,73768;2,54425
508,68652;2,52766
506,63537;2,51262
504,58421;2,51838
502,53306;2,54673
500,4819;2,5724
498,43075;2,56358
496,37959;2,52057
494,32844;2,49685
492,27728;2,52006
490,22613;2,54445
488,17497;2,54881
486,12382;2,55454
484,07266;2,54679
482,0215;2,5146
479,97035;2,48371
477,91919;2,46879
475,86804;2,47254
473,81688;2,48916
471,76573;2,51319
469,71457;2,54361
467,66342;2,58321
465,61226;2,61295
463,56111;2,58817
461,50995;2,53361
459,4588;2,49495
457,40764;2,48388
455,35649;2,49898
453,30533;2,50956
451,25417;2,49091
449,20302;2,45833
447,15186;2,45036
445,10071;2,48979
443,04955;2,54014
440,9984;2,52665
438,94724;2,47012
436,89609;2,45651
434,84493;2,49715
432,79378;2,51939
430,74262;2,47961
428,69147;2,4253
426,64031;2,39961
424,58916;2,41148
422,538;2,44839
420,48684;2,47502
418,43569;2,49024
416,38453;2,52619
414,33338;2,56563
412,28222;2,58118
410,23107;2,55787
408,17991;2,52316
406,12876;2,51405
404,0776;2,51418
402,02645;2,50128
399,97529;2,47246
