3997.70175;1.76259
3995.65060;1.76339
"3993.59944 3991.54829";"1.76422 1.76474"
3989,49713;1,76585
3987,44598;1,76916
3985,39482;1,77351
3983,34367;1,77666
3981,29251;1,77881
3979,24136;1,78116
3977,1902;1,7842
3975,13905;1,78744
3973,08789;1,78999
3971,03673;1,79202
3968,98558;1,79337
3966,93442;1,79323
3964,88327;1,79246
3962,83211;1,79145
3960,78096;1,78909
3958,7298;1,78662
3956,67865;1,78639
3954,62749;1,78802
3952,57634;1,78984
3950,52518;1,79135
3948,47403;1,79211
3946,42287;1,79169
3944,37172;1,79104
3942,32056;1,79076
3940,2694;1,79061
3938,21825;1,79022
3936,16709;1,78979
3934,11594;1,78969
3932,06478;1,78917
3930,01363;1,78871
3927,96247;1,78973
3925,91132;1,79107
3923,86016;1,79149
3921,80901;1,7925
3919,75785;1,79484
3917,7067;1,79658
3915,65554;1,79646
3913,60439;1,79593
3911,55323;1,79607
3909,50207;1,79663
3907,45092;1,79833
3905,39976;1,80217
3903,34861;1,8077
3901,29745;1,81364
3899,2463;1,81887
3897,19514;1,8238
3895,14399;1,83106
3893,09283;1,84119
3891,04168;1,85082
3888,99052;1,85875
3886,93937;1,86578
3884,88821;1,8713
3882,83706;1,87714
3880,7859;1,88326
3878,73474;1,88636
3876,68359;1,88671
3874,63243;1,8844
3872,58128;1,87882
3870,53012;1,8685
3868,47897;1,85401
3866,42781;1,84133
3864,37666;1,83138
3862,3255;1,8242
3860,27435;1,82201
3858,22319;1,82338
3856,17204;1,82515
3854,12088;1,82443
3852,06973;1,82306
3850,01857;1,82541
3847,96741;1,82945
3845,91626;1,83191
3843,8651;1,83265
3841,81395;1,8331
3839,76279;1,83453
3837,71164;1,83691
3835,66048;1,84014
3833,60933;1,84371
3831,55817;1,84547
3829,50702;1,84432
3827,45586;1,84043
3825,40471;1,83516
3823,35355;1,8307
3821,3024;1,82427
3819,25124;1,81542
3817,20008;1,80766
3815,14893;1,8004
3813,09777;1,79536
3811,04662;1,79339
3808,99546;1,79178
3806,94431;1,78868
3804,89315;1,78632
3802,842;1,78602
3800,79084;1,78513
3798,73969;1,78449
3796,68853;1,7849
3794,63738;1,7853
3792,58622;1,78594
3790,53506;1,78569
3788,48391;1,78381
3786,43275;1,78116
3784,3816;1,77821
3782,33044;1,77671
3780,27929;1,7773
3778,22813;1,77775
3776,17698;1,77761
3774,12582;1,7783
3772,07467;1,78001
3770,02351;1,78113
3767,97236;1,78129
3765,9212;1,78103
3763,87005;1,78116
3761,81889;1,78356
3759,76773;1,78678
3757,71658;1,78795
3755,66542;1,78777
3753,61427;1,78779
3751,56311;1,78782
3749,51196;1,78843
3747,4608;1,79257
3745,40965;1,79972
3743,35849;1,80404
3741,30734;1,80575
3739,25618;1,80927
3737,20503;1,81274
3735,15387;1,81373
3733,10272;1,8144
3731,05156;1,81504
3729,0004;1,81558
3726,94925;1,81707
3724,89809;1,81931
3722,84694;1,82159
3720,79578;1,82349
3718,74463;1,82558
3716,69347;1,82891
3714,64232;1,83389
3712,59116;1,83904
3710,54001;1,84257
3708,48885;1,84543
3706,4377;1,84966
3704,38654;1,85659
3702,33539;1,86542
3700,28423;1,87532
3698,23307;1,88603
3696,18192;1,8948
3694,13076;1,89948
3692,07961;1,90121
3690,02845;1,90143
3687,9773;1,90175
3685,92614;1,90337
3683,87499;1,90685
3681,82383;1,91339
3679,77268;1,92341
3677,72152;1,93599
3675,67037;1,94772
3673,61921;1,95643
3671,56806;1,96548
3669,5169;1,97575
3667,46574;1,98627
3665,41459;1,99803
3663,36343;2,01004
3661,31228;2,01995
3659,26112;2,02859
3657,20997;2,0377
3655,15881;2,04611
3653,10766;2,05371
3651,0565;2,06387
3649,00535;2,08079
3646,95419;2,10221
3644,90304;2,11885
3642,85188;2,12904
3640,80073;2,13669
3638,74957;2,14255
3636,69841;2,14548
3634,64726;2,14735
3632,5961;2,15281
3630,54495;2,16333
3628,49379;2,17306
3626,44264;2,1789
3624,39148;2,18555
3622,34033;2,19377
3620,28917;2,20012
3618,23802;2,20414
3616,18686;2,20971
3614,13571;2,21712
3612,08455;2,22351
3610,0334;2,22916
3607,98224;2,23526
3605,93108;2,24315
3603,87993;2,25321
3601,82877;2,26259
3599,77762;2,26935
3597,72646;2,27498
3595,67531;2,28115
3593,62415;2,28796
3591,573;2,29586
3589,52184;2,30625
3587,47069;2,31895
3585,41953;2,33139
3583,36838;2,34101
3581,31722;2,34784
3579,26607;2,35394
3577,21491;2,36258
3575,16375;2,37563
3573,1126;2,39003
3571,06144;2,40117
3569,01029;2,40677
3566,95913;2,40729
3564,90798;2,40774
3562,85682;2,41137
3560,80567;2,41691
3558,75451;2,42472
3556,70336;2,43402
3554,6522;2,44148
3552,60105;2,44688
3550,54989;2,45307
3548,49874;2,46193
3546,44758;2,4723
3544,39642;2,47968
3542,34527;2,48238
3540,29411;2,48644
3538,24296;2,49648
3536,1918;2,50923
3534,14065;2,521
3532,08949;2,53221
3530,03834;2,54288
3527,98718;2,55381
3525,93603;2,5674
3523,88487;2,57914
3521,83372;2,58295
3519,78256;2,58297
3517,73141;2,58533
3515,68025;2,59274
3513,62909;2,60785
3511,57794;2,62888
3509,52678;2,64776
3507,47563;2,65968
3505,42447;2,6717
3503,37332;2,68865
3501,32216;2,7023
3499,27101;2,71222
3497,21985;2,72609
3495,1687;2,74242
3493,11754;2,7591
3491,06639;2,77035
3489,01523;2,76528
3486,96407;2,75659
3484,91292;2,76521
3482,86176;2,78406
3480,81061;2,79681
3478,75945;2,80194
3476,7083;2,80463
3474,65714;2,80952
3472,60599;2,81214
3470,55483;2,80739
3468,50368;2,80881
3466,45252;2,82174
3464,40137;2,82839
3462,35021;2,81968
3460,29906;2,81181
3458,2479;2,81938
3456,19674;2,83043
3454,14559;2,83202
3452,09443;2,83235
3450,04328;2,84066
3447,99212;2,84806
3445,94097;2,85323
3443,88981;2,86158
3441,83866;2,85364
3439,7875;2,8219
3437,73635;2,77627
3435,68519;2,71435
3433,63404;2,65081
3431,58288;2,61197
3429,53173;2,60594
3427,48057;2,62266
3425,42941;2,64329
3423,37826;2,65677
3421,3271;2,66843
3419,27595;2,68594
3417,22479;2,70734
3415,17364;2,72349
3413,12248;2,73
3411,07133;2,73018
3409,02017;2,73184
3406,96902;2,73205
3404,91786;2,72398
3402,86671;2,71818
3400,81555;2,71848
3398,7644;2,71716
3396,71324;2,71513
3394,66208;2,71543
3392,61093;2,71451
3390,55977;2,71161
3388,50862;2,71476
3386,45746;2,72503
3384,40631;2,73168
3382,35515;2,7272
3380,304;2,721
3378,25284;2,72338
3376,20169;2,72654
3374,15053;2,72534
3372,09938;2,72737
3370,04822;2,73966
3367,99707;2,75725
3365,94591;2,76776
3363,89475;2,76939
3361,8436;2,76636
3359,79244;2,76157
3357,74129;2,75582
3355,69013;2,74505
3353,63898;2,7322
3351,58782;2,72413
3349,53667;2,71949
3347,48551;2,72137
3345,43436;2,73098
3343,3832;2,7356
3341,33205;2,72692
3339,28089;2,71429
3337,22974;2,71104
3335,17858;2,7156
3333,12742;2,71549
3331,07627;2,70517
3329,02511;2,69492
3326,97396;2,69346
3324,9228;2,69414
3322,87165;2,69411
3320,82049;2,69678
3318,76934;2,696
3316,71818;2,68976
3314,66703;2,68483
3312,61587;2,68187
3310,56472;2,67774
3308,51356;2,67227
3306,46241;2,66856
3304,41125;2,66589
3302,36009;2,6621
3300,30894;2,65897
3298,25778;2,65688
3296,20663;2,65597
3294,15547;2,6554
3292,10432;2,6532
3290,05316;2,64852
3288,00201;2,64254
3285,95085;2,64139
3283,8997;2,64586
3281,84854;2,65021
3279,79739;2,65237
3277,74623;2,64966
3275,69508;2,64084
3273,64392;2,62863
3271,59276;2,61342
3269,54161;2,6004
3267,49045;2,59653
3265,4393;2,59752
3263,38814;2,59529
3261,33699;2,59168
3259,28583;2,58828
3257,23468;2,58006
3255,18352;2,57112
3253,13237;2,5669
3251,08121;2,56166
3249,03006;2,55487
3246,9789;2,55222
3244,92775;2,55282
3242,87659;2,5531
3240,82543;2,55081
3238,77428;2,54433
3236,72312;2,53428
3234,67197;2,52539
3232,62081;2,51899
3230,56966;2,51286
3228,5185;2,50824
3226,46735;2,50446
3224,41619;2,49867
3222,36504;2,49273
3220,31388;2,49171
3218,26273;2,49295
3216,21157;2,49017
3214,16041;2,48692
3212,10926;2,48567
3210,0581;2,48129
3208,00695;2,47613
3205,95579;2,47465
3203,90464;2,474
3201,85348;2,47378
3199,80233;2,47485
3197,75117;2,47539
3195,70002;2,47584
3193,64886;2,47816
3191,59771;2,47922
3189,54655;2,47431
3187,4954;2,46621
3185,44424;2,46102
3183,39308;2,46052
3181,34193;2,45956
3179,29077;2,45394
3177,23962;2,44658
3175,18846;2,44048
3173,13731;2,43274
3171,08615;2,42236
3169,035;2,41372
3166,98384;2,40913
3164,93269;2,40649
3162,88153;2,40374
3160,83038;2,40241
3158,77922;2,40289
3156,72807;2,40256
3154,67691;2,39898
3152,62575;2,39406
3150,5746;2,3925
3148,52344;2,3923
3146,47229;2,39099
3144,42113;2,39098
3142,36998;2,38977
3140,31882;2,38516
3138,26767;2,38203
3136,21651;2,38052
3134,16536;2,37628
3132,1142;2,37105
3130,06305;2,36785
3128,01189;2,36726
3125,96074;2,36947
3123,90958;2,3702
3121,85842;2,36583
3119,80727;2,36026
3117,75611;2,35811
3115,70496;2,36049
3113,6538;2,36169
3111,60265;2,355
3109,55149;2,34683
3107,50034;2,34521
3105,44918;2,34726
3103,39803;2,34985
3101,34687;2,35149
3099,29572;2,34979
3097,24456;2,34775
3095,19341;2,34798
3093,14225;2,34908
3091,09109;2,34952
3089,03994;2,34871
3086,98878;2,34689
3084,93763;2,34395
3082,88647;2,34194
3080,83532;2,34366
3078,78416;2,34734
3076,73301;2,34806
3074,68185;2,34389
3072,6307;2,33798
3070,57954;2,33446
3068,52839;2,33428
3066,47723;2,33476
3064,42608;2,33389
3062,37492;2,33229
3060,32376;2,33021
3058,27261;2,32802
3056,22145;2,32821
3054,1703;2,3308
3052,11914;2,33236
3050,06799;2,3311
3048,01683;2,32757
3045,96568;2,32454
3043,91452;2,32421
3041,86337;2,32568
3039,81221;2,32768
3037,76106;2,32965
3035,7099;2,33102
3033,65875;2,33166
3031,60759;2,33299
3029,55643;2,33492
3027,50528;2,33479
3025,45412;2,33348
3023,40297;2,334
3021,35181;2,33623
3019,30066;2,3377
3017,2495;2,33809
3015,19835;2,3405
3013,14719;2,34535
3011,09604;2,34907
3009,04488;2,35074
3006,99373;2,35267
3004,94257;2,35569
3002,89142;2,36003
3000,84026;2,36644
2998,7891;2,37384
2996,73795;2,38051
2994,68679;2,38812
2992,63564;2,39753
2990,58448;2,40621
2988,53333;2,41292
2986,48217;2,41776
2984,43102;2,42361
2982,37986;2,43114
2980,32871;2,43532
2978,27755;2,43741
2976,2264;2,44368
2974,17524;2,45383
2972,12409;2,45948
2970,07293;2,45706
2968,02177;2,45513
2965,97062;2,45793
2963,91946;2,46212
2961,86831;2,46629
2959,81715;2,46789
2957,766;2,46288
2955,71484;2,4535
2953,66369;2,44584
2951,61253;2,44022
2949,56138;2,43512
2947,51022;2,43084
2945,45907;2,42591
2943,40791;2,42229
2941,35675;2,42574
2939,3056;2,43429
2937,25444;2,44001
2935,20329;2,44337
2933,15213;2,44743
2931,10098;2,45051
2929,04982;2,45258
2926,99867;2,45435
2924,94751;2,45511
2922,89636;2,45262
2920,8452;2,44852
2918,79405;2,44661
2916,74289;2,44541
2914,69174;2,4441
2912,64058;2,44591
2910,58942;2,44852
2908,53827;2,44785
2906,48711;2,4449
2904,43596;2,43849
2902,3848;2,42943
2900,33365;2,4219
2898,28249;2,41749
2896,23134;2,4179
2894,18018;2,4243
2892,12903;2,43323
2890,07787;2,43874
2888,02672;2,43865
2885,97556;2,4354
2883,92441;2,43055
2881,87325;2,42547
2879,82209;2,42127
2877,77094;2,41635
2875,71978;2,41015
2873,66863;2,40268
2871,61747;2,39359
2869,56632;2,3839
2867,51516;2,3764
2865,46401;2,37223
2863,41285;2,36626
2861,3617;2,35739
2859,31054;2,35317
2857,25939;2,35362
2855,20823;2,35326
2853,15708;2,35106
2851,10592;2,34545
2849,05476;2,33808
2847,00361;2,33322
2844,95245;2,33156
2842,9013;2,33073
2840,85014;2,33032
2838,79899;2,33378
2836,74783;2,33984
2834,69668;2,34356
2832,64552;2,34344
2830,59437;2,34011
2828,54321;2,33313
2826,49206;2,32028
2824,4409;2,30191
2822,38975;2,28206
2820,33859;2,26251
2818,28743;2,24367
2816,23628;2,22622
2814,18512;2,21
2812,13397;2,19629
2810,08281;2,18509
2808,03166;2,17542
2805,9805;2,16717
2803,92935;2,16005
2801,87819;2,15384
2799,82704;2,14825
2797,77588;2,14368
2795,72473;2,13957
2793,67357;2,13428
2791,62242;2,12876
2789,57126;2,12512
2787,5201;2,12233
2785,46895;2,11819
2783,41779;2,11333
2781,36664;2,10985
2779,31548;2,10747
2777,26433;2,10457
2775,21317;2,10162
2773,16202;2,09948
2771,11086;2,09855
2769,05971;2,09803
2767,00855;2,09513
2764,9574;2,09114
2762,90624;2,09087
2760,85509;2,09241
2758,80393;2,09079
2756,75277;2,08729
2754,70162;2,08473
2752,65046;2,08346
2750,59931;2,08261
2748,54815;2,08117
2746,497;2,07927
2744,44584;2,07723
2742,39469;2,07458
2740,34353;2,07217
2738,29238;2,07185
2736,24122;2,07278
2734,19007;2,0726
2732,13891;2,07125
2730,08776;2,06938
2728,0366;2,0666
2725,98544;2,06389
2723,93429;2,06248
2721,88313;2,0615
2719,83198;2,05985
2717,78082;2,05828
2715,72967;2,05738
2713,67851;2,05631
2711,62736;2,05497
2709,5762;2,05352
2707,52505;2,05154
2705,47389;2,04956
2703,42274;2,04907
2701,37158;2,04918
2699,32043;2,04821
2697,26927;2,0483
2695,21811;2,05002
2693,16696;2,05105
2691,1158;2,05183
2689,06465;2,0529
2687,01349;2,05306
2684,96234;2,05289
2682,91118;2,054
2680,86003;2,05665
2678,80887;2,06125
2676,75772;2,06723
2674,70656;2,0713
2672,65541;2,07348
2670,60425;2,07683
2668,55309;2,08102
2666,50194;2,0849
2664,45078;2,0883
2662,39963;2,09106
2660,34847;2,09373
2658,29732;2,09697
2656,24616;2,10133
2654,19501;2,10633
2652,14385;2,11019
2650,0927;2,11264
2648,04154;2,11618
2645,99039;2,12133
2643,93923;2,12634
2641,88808;2,13085
2639,83692;2,13601
2637,78576;2,14222
2635,73461;2,14785
2633,68345;2,15336
2631,6323;2,15944
2629,58114;2,16522
2627,52999;2,1714
2625,47883;2,17777
2623,42768;2,18467
2621,37652;2,1941
2619,32537;2,20358
2617,27421;2,21068
2615,22306;2,21855
2613,1719;2,22851
2611,12075;2,23867
2609,06959;2,24877
2607,01843;2,26025
2604,96728;2,27202
2602,91612;2,28063
2600,86497;2,28787
2598,81381;2,29583
2596,76266;2,30054
2594,7115;2,30228
2592,66035;2,30404
2590,60919;2,30504
2588,55804;2,30485
2586,50688;2,30263
2584,45573;2,29939
2582,40457;2,29717
2580,35342;2,29673
2578,30226;2,29981
2576,2511;2,30801
2574,19995;2,32156
2572,14879;2,33915
2570,09764;2,35891
2568,04648;2,37787
2565,99533;2,39496
2563,94417;2,41204
2561,89302;2,42902
2559,84186;2,44459
2557,79071;2,45667
2555,73955;2,46295
2553,6884;2,46249
2551,63724;2,45594
2549,58609;2,44571
2547,53493;2,43486
2545,48377;2,4248
2543,43262;2,41567
2541,38146;2,41029
2539,33031;2,41069
2537,27915;2,41342
2535,228;2,41608
2533,17684;2,42006
2531,12569;2,42655
2529,07453;2,43554
2527,02338;2,4453
2524,97222;2,45313
2522,92107;2,45947
2520,86991;2,4669
2518,81876;2,47343
2516,7676;2,4777
2514,71644;2,48361
2512,66529;2,49444
2510,61413;2,50876
2508,56298;2,52207
2506,51182;2,53279
2504,46067;2,54068
2502,40951;2,54466
2500,35836;2,5461
2498,3072;2,54348
2496,25605;2,52736
2494,20489;2,49409
2492,15374;2,45147
2490,10258;2,40769
2488,05143;2,36698
2486,00027;2,33153
2483,94911;2,30102
2481,89796;2,27343
2479,8468;2,25015
2477,79565;2,2315
2475,74449;2,21457
2473,69334;2,19871
2471,64218;2,18442
2469,59103;2,17178
2467,53987;2,1601
2465,48872;2,14769
2463,43756;2,1348
2461,38641;2,12337
2459,33525;2,11348
2457,2841;2,10519
2455,23294;2,09868
2453,18178;2,0922
2451,13063;2,08448
2449,07947;2,07721
2447,02832;2,07187
2444,97716;2,06676
2442,92601;2,06169
2440,87485;2,05742
2438,8237;2,05333
2436,77254;2,05002
2434,72139;2,04848
2432,67023;2,04788
2430,61908;2,04628
2428,56792;2,04276
2426,51677;2,03819
2424,46561;2,03457
2422,41445;2,03222
2420,3633;2,0297
2418,31214;2,02656
2416,26099;2,02376
2414,20983;2,02175
2412,15868;2,01977
2410,10752;2,01742
2408,05637;2,01496
2406,00521;2,01212
2403,95406;2,00922
2401,9029;2,00753
2399,85175;2,00673
2397,80059;2,00568
2395,74944;2,00415
2393,69828;2,00283
2391,64712;2,00215
2389,59597;2,00183
2387,54481;2,00166
2385,49366;2,00249
2383,4425;2,00446
2381,39135;2,00584
2379,34019;2,00605
2377,28904;2,0065
2375,23788;2,00786
2373,18673;2,00965
2371,13557;2,01089
2369,08442;2,01254
2367,03326;2,01634
2364,9821;2,01926
2362,93095;2,01899
2360,87979;2,0188
2358,82864;2,01909
2356,77748;2,01675
2354,72633;2,0129
2352,67517;2,01215
2350,62402;2,01406
2348,57286;2,01343
2346,52171;2,00948
2344,47055;2,00686
2342,4194;2,00722
2340,36824;2,00863
2338,31709;2,01028
2336,26593;2,01059
2334,21477;2,01014
2332,16362;2,01131
2330,11246;2,0132
2328,06131;2,01413
2326,01015;2,01465
2323,959;2,01501
2321,90784;2,01445
2319,85669;2,0136
2317,80553;2,0137
2315,75438;2,01443
2313,70322;2,01442
2311,65207;2,01244
2309,60091;2,00934
2307,54976;2,00822
2305,4986;2,01005
2303,44744;2,01264
2301,39629;2,0141
2299,34513;2,01426
2297,29398;2,01431
2295,24282;2,01575
2293,19167;2,01849
2291,14051;2,02101
2289,08936;2,02202
2287,0382;2,02127
2284,98705;2,01988
2282,93589;2,01911
2280,88474;2,0191
2278,83358;2,01956
2276,78243;2,02042
2274,73127;2,02164
2272,68011;2,0236
2270,62896;2,0268
2268,5778;2,02999
2266,52665;2,03159
2264,47549;2,0324
2262,42434;2,03357
2260,37318;2,03461
2258,32203;2,03449
2256,27087;2,03337
2254,21972;2,0323
2252,16856;2,03145
2250,11741;2,0306
2248,06625;2,03029
2246,0151;2,03078
2243,96394;2,03073
2241,91278;2,03035
2239,86163;2,03148
2237,81047;2,03416
2235,75932;2,03709
2233,70816;2,03968
2231,65701;2,04129
2229,60585;2,04151
2227,5547;2,04073
2225,50354;2,03958
2223,45239;2,03905
2221,40123;2,03933
2219,35008;2,03919
2217,29892;2,03826
2215,24777;2,03829
2213,19661;2,0402
2211,14545;2,04284
2209,0943;2,04491
2207,04314;2,04534
2204,99199;2,044
2202,94083;2,04251
2200,88968;2,04277
2198,83852;2,04423
2196,78737;2,04492
2194,73621;2,04425
2192,68506;2,04338
2190,6339;2,04417
2188,58275;2,04602
2186,53159;2,04728
2184,48044;2,04882
2182,42928;2,05084
2180,37812;2,05227
2178,32697;2,05345
2176,27581;2,05473
2174,22466;2,05558
2172,1735;2,05575
2170,12235;2,05548
2168,07119;2,05494
2166,02004;2,05484
2163,96888;2,05544
2161,91773;2,05596
2159,86657;2,05609
2157,81542;2,05604
2155,76426;2,05638
2153,71311;2,05721
2151,66195;2,05806
2149,61079;2,05847
2147,55964;2,0579
2145,50848;2,05662
2143,45733;2,05531
2141,40617;2,05363
2139,35502;2,05142
2137,30386;2,04977
2135,25271;2,04944
2133,20155;2,04908
2131,1504;2,04724
2129,09924;2,04479
2127,04809;2,04265
2124,99693;2,0412
2122,94578;2,04014
2120,89462;2,03868
2118,84346;2,03745
2116,79231;2,03634
2114,74115;2,03511
2112,69;2,03526
2110,63884;2,03675
2108,58769;2,03826
2106,53653;2,03873
2104,48538;2,03818
2102,43422;2,03771
2100,38307;2,03782
2098,33191;2,03826
2096,28076;2,03873
2094,2296;2,04002
2092,17844;2,04166
2090,12729;2,0421
2088,07613;2,04326
2086,02498;2,04623
2083,97382;2,04862
2081,92267;2,04974
2079,87151;2,05104
2077,82036;2,05167
2075,7692;2,05082
2073,71805;2,0506
2071,66689;2,05205
2069,61574;2,0543
2067,56458;2,05685
2065,51343;2,05898
2063,46227;2,05999
2061,41111;2,06109
2059,35996;2,06382
2057,3088;2,06772
2055,25765;2,07157
2053,20649;2,07507
2051,15534;2,07832
2049,10418;2,08063
2047,05303;2,08213
2045,00187;2,08394
2042,95072;2,08557
2040,89956;2,08606
2038,84841;2,08583
2036,79725;2,08538
2034,7461;2,08437
2032,69494;2,08288
2030,64378;2,08164
2028,59263;2,08154
2026,54147;2,08295
2024,49032;2,08459
2022,43916;2,08534
2020,38801;2,08549
2018,33685;2,08552
2016,2857;2,08637
2014,23454;2,08878
2012,18339;2,09172
2010,13223;2,09455
2008,08108;2,09822
2006,02992;2,10253
2003,97877;2,10584
2001,92761;2,10826
1999,87645;2,11154
1997,8253;2,11568
1995,77414;2,11855
1993,72299;2,11931
1991,67183;2,1204
1989,62068;2,12396
1987,56952;2,12897
1985,51837;2,13383
1983,46721;2,13756
1981,41606;2,14083
1979,3649;2,14552
1977,31375;2,15166
1975,26259;2,15742
1973,21144;2,16129
1971,16028;2,16391
1969,10912;2,16794
1967,05797;2,17465
1965,00681;2,18269
1962,95566;2,19141
1960,9045;2,20102
1958,85335;2,2097
1956,80219;2,21571
1954,75104;2,22033
1952,69988;2,22541
1950,64873;2,23181
1948,59757;2,23954
1946,54642;2,24693
1944,49526;2,25267
1942,44411;2,25766
1940,39295;2,26346
1938,34179;2,27048
1936,29064;2,2783
1934,23948;2,28652
1932,18833;2,29368
1930,13717;2,29878
1928,08602;2,30333
1926,03486;2,30936
1923,98371;2,31839
1921,93255;2,33056
1919,8814;2,34462
1917,83024;2,35896
1915,77909;2,3715
1913,72793;2,38243
1911,67678;2,39317
1909,62562;2,403
1907,57446;2,41251
1905,52331;2,4233
1903,47215;2,43468
1901,421;2,44685
1899,36984;2,45938
1897,31869;2,47135
1895,26753;2,48551
1893,21638;2,50329
1891,16522;2,52188
1889,11407;2,53833
1887,06291;2,55144
1885,01176;2,56156
1882,9606;2,56876
1880,90945;2,57205
1878,85829;2,57122
1876,80713;2,56824
1874,75598;2,56467
1872,70482;2,56115
1870,65367;2,55977
1868,60251;2,56323
1866,55136;2,57181
1864,5002;2,58278
1862,44905;2,59189
1860,39789;2,59718
1858,34674;2,60055
1856,29558;2,60165
1854,24443;2,59801
1852,19327;2,59137
1850,14212;2,58529
1848,09096;2,5797
1846,0398;2,57425
1843,98865;2,57269
1841,93749;2,57809
1839,88634;2,58721
1837,83518;2,59501
1835,78403;2,59952
1833,73287;2,60041
1831,68172;2,59587
1829,63056;2,58553
1827,57941;2,57439
1825,52825;2,56507
1823,4771;2,55351
1821,42594;2,53844
1819,37478;2,52431
1817,32363;2,51367
1815,27247;2,50564
1813,22132;2,49978
1811,17016;2,49617
1809,11901;2,49657
1807,06785;2,50171
1805,0167;2,50755
1802,96554;2,51212
1800,91439;2,51775
1798,86323;2,52382
1796,81208;2,52654
1794,76092;2,52441
1792,70977;2,51931
1790,65861;2,51428
1788,60745;2,51036
1786,5563;2,5049
1784,50514;2,49524
1782,45399;2,48416
1780,40283;2,4763
1778,35168;2,47311
1776,30052;2,47241
1774,24937;2,47042
1772,19821;2,46414
1770,14706;2,45527
1768,0959;2,4481
1766,04475;2,44412
1763,99359;2,44213
1761,94244;2,44081
1759,89128;2,44236
1757,84012;2,44703
1755,78897;2,45099
1753,73781;2,45318
1751,68666;2,45565
1749,6355;2,46065
1747,58435;2,46695
1745,53319;2,47242
1743,48204;2,47943
1741,43088;2,48792
1739,37973;2,49328
1737,32857;2,49507
1735,27742;2,49567
1733,22626;2,49668
1731,17511;2,50181
1729,12395;2,51187
1727,07279;2,52403
1725,02164;2,53479
1722,97048;2,54285
1720,91933;2,55008
1718,86817;2,5589
1716,81702;2,57094
1714,76586;2,58726
1712,71471;2,60635
1710,66355;2,62627
1708,6124;2,64669
1706,56124;2,66587
1704,51009;2,68117
1702,45893;2,69735
1700,40778;2,72197
1698,35662;2,7525
1696,30546;2,78499
1694,25431;2,8193
1692,20315;2,84694
1690,152;2,86276
1688,10084;2,87181
1686,04969;2,88665
1683,99853;2,91277
1681,94738;2,93892
1679,89622;2,96201
1677,84507;2,98937
1675,79391;3,01669
1673,74276;3,03229
1671,6916;3,04166
1669,64045;3,05898
1667,58929;3,07634
1665,53813;3,08632
1663,48698;3,09676
1661,43582;3,10542
1659,38467;3,10825
1657,33351;3,10597
1655,28236;3,09391
1653,2312;3,08047
1651,18005;3,09275
1649,12889;3,11513
1647,07774;3,12187
1645,02658;3,119
1642,97543;3,11814
1640,92427;3,1172
1638,87312;3,12341
1636,82196;3,14743
1634,7708;3,16701
1632,71965;3,15688
1630,66849;3,13433
1628,61734;3,11345
1626,56618;3,09778
1624,51503;3,0903
1622,46387;3,08827
1620,41272;3,0862
1618,36156;3,08123
1616,31041;3,06411
1614,25925;3,03717
1612,2081;3,01805
1610,15694;3,00896
1608,10579;2,99862
1606,05463;2,98097
1604,00347;2,96255
1601,95232;2,94916
1599,90116;2,94022
1597,85001;2,93209
1595,79885;2,9183
1593,7477;2,89752
1591,69654;2,87578
1589,64539;2,85373
1587,59423;2,8255
1585,54308;2,78826
1583,49192;2,74483
1581,44077;2,69947
1579,38961;2,65438
1577,33846;2,60511
1575,2873;2,55662
1573,23614;2,52654
1571,18499;2,50629
1569,13383;2,48191
1567,08268;2,463
1565,03152;2,45542
1562,98037;2,44896
1560,92921;2,43291
1558,87806;2,41204
1556,8269;2,40951
1554,77575;2,41834
1552,72459;2,42189
1550,67344;2,41964
1548,62228;2,41658
1546,57113;2,41469
1544,51997;2,41335
1542,46881;2,41058
1540,41766;2,40358
1538,3665;2,39784
1536,31535;2,39788
1534,26419;2,39772
1532,21304;2,39454
1530,16188;2,39262
1528,11073;2,39255
1526,05957;2,39421
1524,00842;2,39863
1521,95726;2,40092
1519,90611;2,40012
1517,85495;2,40301
1515,80379;2,4102
1513,75264;2,41794
1511,70148;2,42513
1509,65033;2,43188
1507,59917;2,43731
1505,54802;2,4427
1503,49686;2,4506
1501,44571;2,46087
1499,39455;2,47111
1497,3434;2,47744
1495,29224;2,47957
1493,24109;2,48104
1491,18993;2,48268
1489,13878;2,48467
1487,08762;2,4855
1485,03646;2,48036
1482,98531;2,46848
1480,93415;2,45334
1478,883;2,43858
1476,83184;2,42237
1474,78069;2,39608
1472,72953;2,35415
1470,67838;2,3116
1468,62722;2,28455
1466,57607;2,27217
1464,52491;2,27299
1462,47376;2,28617
1460,4226;2,30567
1458,37145;2,32516
1456,32029;2,33848
1454,26913;2,34349
1452,21798;2,34566
1450,16682;2,34834
1448,11567;2,34883
1446,06451;2,34304
1444,01336;2,32929
1441,9622;2,30831
1439,91105;2,28376
1437,85989;2,2574
1435,80874;2,23153
1433,75758;2,21296
1431,70643;2,20063
1429,65527;2,19109
1427,60412;2,18565
1425,55296;2,18394
1423,5018;2,18376
1421,45065;2,18402
1419,39949;2,18469
1417,34834;2,1886
1415,29718;2,19678
1413,24603;2,20623
1411,19487;2,21714
1409,14372;2,23349
1407,09256;2,25778
1405,04141;2,28839
1402,99025;2,31953
1400,9391;2,34766
1398,88794;2,37432
1396,83679;2,39991
1394,78563;2,42357
1392,73447;2,44478
1390,68332;2,46272
1388,63216;2,47803
1386,58101;2,49112
1384,52985;2,49998
1382,4787;2,50399
1380,42754;2,50598
1378,37639;2,5086
1376,32523;2,51071
1374,27408;2,51105
1372,22292;2,51209
1370,17177;2,5147
1368,12061;2,51668
1366,06946;2,51736
1364,0183;2,51777
1361,96714;2,51773
1359,91599;2,51582
1357,86483;2,51191
1355,81368;2,50768
1353,76252;2,5037
1351,71137;2,49972
1349,66021;2,49798
1347,60906;2,49964
1345,5579;2,5007
1343,50675;2,49997
1341,45559;2,50035
1339,40444;2,50015
1337,35328;2,49743
1335,30213;2,49582
1333,25097;2,49786
1331,19981;2,50194
1329,14866;2,50516
1327,0975;2,50557
1325,04635;2,50292
1322,99519;2,49914
1320,94404;2,49561
1318,89288;2,49237
1316,84173;2,48978
1314,79057;2,48724
1312,73942;2,48319
1310,68826;2,47868
1308,63711;2,47689
1306,58595;2,47637
1304,5348;2,47141
1302,48364;2,46242
1300,43248;2,45341
1298,38133;2,44564
1296,33017;2,44137
1294,27902;2,44169
1292,22786;2,44211
1290,17671;2,43815
1288,12555;2,43122
1286,0744;2,42511
1284,02324;2,42256
1281,97209;2,42451
1279,92093;2,4279
1277,86978;2,43013
1275,81862;2,43193
1273,76747;2,43421
1271,71631;2,43719
1269,66515;2,43926
1267,614;2,4399
1265,56284;2,44194
1263,51169;2,44364
1261,46053;2,44161
1259,40938;2,43841
1257,35822;2,43409
1255,30707;2,42877
1253,25591;2,42663
1251,20476;2,42784
1249,1536;2,43045
1247,10245;2,43252
1245,05129;2,43251
1243,00013;2,4333
1240,94898;2,43684
1238,89782;2,44004
1236,84667;2,44035
1234,79551;2,43837
1232,74436;2,43624
1230,6932;2,43187
1228,64205;2,42105
1226,59089;2,41037
1224,53974;2,40723
1222,48858;2,40569
1220,43743;2,40174
1218,38627;2,39986
1216,33512;2,39851
1214,28396;2,39499
1212,2328;2,39273
1210,18165;2,39326
1208,13049;2,39379
1206,07934;2,39049
1204,02818;2,38446
1201,97703;2,3814
1199,92587;2,38368
1197,87472;2,38954
1195,82356;2,39477
1193,77241;2,39722
1191,72125;2,39908
1189,6701;2,40222
1187,61894;2,40457
1185,56779;2,40648
1183,51663;2,41123
1181,46547;2,41499
1179,41432;2,41512
1177,36316;2,41706
1175,31201;2,42218
1173,26085;2,42822
1171,2097;2,43583
1169,15854;2,44272
1167,10739;2,44602
1165,05623;2,44984
1163,00508;2,45663
1160,95392;2,46319
1158,90277;2,46601
1156,85161;2,46315
1154,80046;2,45784
1152,7493;2,4574
1150,69814;2,46215
1148,64699;2,46565
1146,59583;2,46883
1144,54468;2,47455
1142,49352;2,47774
1140,44237;2,47726
1138,39121;2,47863
1136,34006;2,48354
1134,2889;2,48941
1132,23775;2,49392
1130,18659;2,49744
1128,13544;2,5009
1126,08428;2,50466
1124,03313;2,50948
1121,98197;2,51591
1119,93081;2,52342
1117,87966;2,52903
1115,8285;2,53442
1113,77735;2,54335
1111,72619;2,55466
1109,67504;2,56768
1107,62388;2,58378
1105,57273;2,60242
1103,52157;2,61866
1101,47042;2,63694
1099,41926;2,6672
1097,36811;2,69942
1095,31695;2,71627
1093,2658;2,7139
1091,21464;2,69624
1089,16348;2,67164
1087,11233;2,64888
1085,06117;2,63196
1083,01002;2,62085
1080,95886;2,61506
1078,90771;2,60961
1076,85655;2,60055
1074,8054;2,59597
1072,75424;2,60152
1070,70309;2,61044
1068,65193;2,61458
1066,60078;2,61426
1064,54962;2,62099
1062,49847;2,6382
1060,44731;2,65218
1058,39615;2,65817
1056,345;2,65984
1054,29384;2,65885
1052,24269;2,66129
1050,19153;2,6641
1048,14038;2,65879
1046,08922;2,65355
1044,03807;2,65855
1041,98691;2,66694
1039,93576;2,67181
1037,8846;2,6793
1035,83345;2,68822
1033,78229;2,68957
1031,73114;2,68964
1029,67998;2,69635
1027,62882;2,70418
1025,57767;2,71388
1023,52651;2,72509
1021,47536;2,72932
1019,4242;2,73099
1017,37305;2,73397
1015,32189;2,73028
1013,27074;2,72501
1011,21958;2,72928
1009,16843;2,73581
1007,11727;2,73299
1005,06612;2,73307
1003,01496;2,74577
1000,96381;2,75897
998,91265;2,76419
996,86149;2,7666
994,81034;2,77104
992,75918;2,78253
990,70803;2,79797
988,65687;2,80267
986,60572;2,79565
984,55456;2,7895
982,50341;2,78958
980,45225;2,78654
978,4011;2,77433
976,34994;2,76091
974,29879;2,74721
972,24763;2,73806
970,19647;2,74001
968,14532;2,73726
966,09416;2,72109
964,04301;2,70366
961,99185;2,69036
959,9407;2,68186
957,88954;2,67327
955,83839;2,66182
953,78723;2,65687
951,73608;2,66164
949,68492;2,66949
947,63377;2,67832
945,58261;2,68497
943,53146;2,69046
941,4803;2,69971
939,42914;2,70958
937,37799;2,71961
935,32683;2,72432
933,27568;2,7179
931,22452;2,70928
929,17337;2,70735
927,12221;2,71544
925,07106;2,72446
923,0199;2,72121
920,96875;2,71181
918,91759;2,70868
916,86644;2,71364
914,81528;2,71824
912,76413;2,71483
910,71297;2,70993
908,66181;2,71283
906,61066;2,72259
904,5595;2,73052
902,50835;2,72928
900,45719;2,72497
898,40604;2,72814
896,35488;2,72864
894,30373;2,71993
892,25257;2,71523
890,20142;2,71248
888,15026;2,70255
886,09911;2,69602
884,04795;2,70995
881,9968;2,74001
879,94564;2,75295
877,89448;2,7384
875,84333;2,72091
873,79217;2,70879
871,74102;2,70055
869,68986;2,69988
867,63871;2,70842
865,58755;2,71834
863,5364;2,71503
861,48524;2,69941
859,43409;2,68162
857,38293;2,66428
855,33178;2,64589
853,28062;2,63303
851,22947;2,63108
849,17831;2,63006
847,12715;2,62245
845,076;2,61085
843,02484;2,59278
840,97369;2,56929
838,92253;2,55039
836,87138;2,54069
834,82022;2,53956
832,76907;2,54467
830,71791;2,5594
828,66676;2,59285
826,6156;2,63536
824,56445;2,65322
822,51329;2,64626
820,46214;2,64445
818,41098;2,64723
816,35982;2,6414
814,30867;2,63301
812,25751;2,63372
810,20636;2,6344
808,1552;2,63468
806,10405;2,63955
804,05289;2,6387
802,00174;2,64439
799,95058;2,66714
797,89943;2,67973
795,84827;2,67051
793,79712;2,66423
791,74596;2,67331
789,69481;2,67564
787,64365;2,66208
785,59249;2,65835
783,54134;2,68147
781,49018;2,72074
779,43903;2,75451
777,38787;2,76736
775,33672;2,7668
773,28556;2,76217
771,23441;2,74937
769,18325;2,73696
767,1321;2,73846
765,08094;2,74642
763,02979;2,7423
760,97863;2,73339
758,92748;2,73866
756,87632;2,74751
754,82516;2,73991
752,77401;2,72836
750,72285;2,734
748,6717;2,75207
746,62054;2,76082
744,56939;2,75123
742,51823;2,74317
740,46708;2,74188
738,41592;2,72493
736,36477;2,70558
734,31361;2,70414
732,26246;2,70102
730,2113;2,68303
728,16015;2,66562
726,10899;2,65351
724,05783;2,64321
722,00668;2,63441
719,95552;2,62622
717,90437;2,62184
715,85321;2,61631
713,80206;2,60743
711,7509;2,60702
709,69975;2,61475
707,64859;2,61889
705,59744;2,6166
703,54628;2,61762
701,49513;2,62318
699,44397;2,61807
697,39281;2,60031
695,34166;2,58383
693,2905;2,57545
691,23935;2,57348
689,18819;2,57197
687,13704;2,56504
685,08588;2,55669
683,03473;2,55879
680,98357;2,57063
678,93242;2,57809
676,88126;2,5832
674,83011;2,59532
672,77895;2,60062
670,7278;2,58638
668,67664;2,56802
666,62548;2,57185
664,57433;2,59012
662,52317;2,60129
660,47202;2,60439
658,42086;2,60406
656,36971;2,60212
654,31855;2,60373
652,2674;2,61088
650,21624;2,61858
648,16509;2,62646
646,11393;2,63329
644,06278;2,6345
642,01162;2,6329
639,96047;2,63226
637,90931;2,6355
635,85815;2,635
633,807;2,62651
631,75584;2,62285
629,70469;2,63331
627,65353;2,65578
625,60238;2,67033
623,55122;2,64663
621,50007;2,60038
619,44891;2,58319
617,39776;2,60949
615,3466;2,64915
613,29545;2,66198
611,24429;2,65743
609,19314;2,66069
607,14198;2,66967
605,09082;2,67356
603,03967;2,66662
600,98851;2,66309
598,93736;2,66573
596,8862;2,67133
594,83505;2,69697
592,78389;2,74191
590,73274;2,76377
588,68158;2,7518
586,63043;2,74559
584,57927;2,74258
582,52812;2,71853
580,47696;2,68692
578,42581;2,66362
576,37465;2,66501
574,32349;2,70888
572,27234;2,76855
570,22118;2,79906
568,17003;2,8087
566,11887;2,83309
564,06772;2,8597
562,01656;2,86392
559,96541;2,85233
557,91425;2,8331
555,8631;2,80844
553,81194;2,78412
551,76079;2,79339
549,70963;2,83075
547,65848;2,8596
545,60732;2,88382
543,55616;2,93162
541,50501;2,96414
539,45385;2,94106
537,4027;2,8931
535,35154;2,83526
533,30039;2,81227
531,24923;2,8568
529,19808;2,90577
527,14692;2,88936
525,09577;2,86162
523,04461;2,87077
520,99346;2,91794
518,9423;2,95956
516,89115;2,92294
514,83999;2,8392
512,78883;2,79499
510,73768;2,79738
508,68652;2,8025
506,63537;2,78344
504,58421;2,74914
502,53306;2,7077
500,4819;2,66689
498,43075;2,65155
496,37959;2,69097
494,32844;2,75725
492,27728;2,77223
490,22613;2,71996
488,17497;2,66774
486,12382;2,66718
484,07266;2,7072
482,0215;2,73143
479,97035;2,72418
477,91919;2,73626
475,86804;2,79027
473,81688;2,83163
471,76573;2,78537
469,71457;2,68507
467,66342;2,59605
465,61226;2,53519
463,56111;2,50871
461,50995;2,51688
459,4588;2,53874
457,40764;2,55558
455,35649;2,55952
453,30533;2,55229
451,25417;2,56481
449,20302;2,59765
447,15186;2,60251
445,10071;2,59034
443,04955;2,61203
440,9984;2,6721
438,94724;2,74624
436,89609;2,78545
434,84493;2,76792
432,79378;2,74706
430,74262;2,74615
428,69147;2,72666
426,64031;2,68929
424,58916;2,68372
422,538;2,6966
420,48684;2,67293
418,43569;2,6676
416,38453;2,72881
414,33338;2,7708
412,28222;2,71346
410,23107;2,59926
408,17991;2,51751
406,12876;2,50093
404,0776;2,4949
402,02645;2,44639
399,97529;2,39254
