3997.70175;1.90985
3995.65060;1.90829
"3993.59944 3991.54829";"1.90888 1.91101"
3989,49713;1,91309
3987,44598;1,91517
3985,39482;1,91843
3983,34367;1,92307
3981,29251;1,92764
3979,24136;1,93095
3977,1902;1,9336
3975,13905;1,93678
3973,08789;1,93969
3971,03673;1,94091
3968,98558;1,94069
3966,93442;1,94
3964,88327;1,93961
3962,83211;1,93976
3960,78096;1,93973
3958,7298;1,93869
3956,67865;1,93749
3954,62749;1,93756
3952,57634;1,93856
3950,52518;1,93923
3948,47403;1,93926
3946,42287;1,93914
3944,37172;1,9388
3942,32056;1,93915
3940,2694;1,94048
3938,21825;1,9411
3936,16709;1,94047
3934,11594;1,93845
3932,06478;1,9356
3930,01363;1,93364
3927,96247;1,93334
3925,91132;1,93396
3923,86016;1,93545
3921,80901;1,93638
3919,75785;1,93543
3917,7067;1,93401
3915,65554;1,93285
3913,60439;1,93054
3911,55323;1,92717
3909,50207;1,92591
3907,45092;1,92856
3905,39976;1,9348
3903,34861;1,94294
3901,29745;1,94816
3899,2463;1,95008
3897,19514;1,95487
3895,14399;1,96296
3893,09283;1,97134
3891,04168;1,9806
3888,99052;1,99092
3886,93937;1,99831
3884,88821;2,00573
3882,83706;2,01507
3880,7859;2,02189
3878,73474;2,02665
3876,68359;2,0273
3874,63243;2,0221
3872,58128;2,01317
3870,53012;1,99993
3868,47897;1,98738
3866,42781;1,9753
3864,37666;1,96091
3862,3255;1,95
3860,27435;1,9453
3858,22319;1,94517
3856,17204;1,94633
3854,12088;1,94713
3852,06973;1,95039
3850,01857;1,95334
3847,96741;1,95456
3845,91626;1,95698
3843,8651;1,96205
3841,81395;1,96894
3839,76279;1,97252
3837,71164;1,97106
3835,66048;1,97011
3833,60933;1,96972
3831,55817;1,96726
3829,50702;1,96413
3827,45586;1,96046
3825,40471;1,95769
3823,35355;1,95327
3821,3024;1,94504
3819,25124;1,93886
3817,20008;1,93014
3815,14893;1,91921
3813,09777;1,9136
3811,04662;1,91149
3808,99546;1,90768
3806,94431;1,90294
3804,89315;1,9034
3802,842;1,904
3800,79084;1,90415
3798,73969;1,90649
3796,68853;1,90598
3794,63738;1,90434
3792,58622;1,90315
3790,53506;1,90211
3788,48391;1,90123
3786,43275;1,89938
3784,3816;1,89729
3782,33044;1,89627
3780,27929;1,89495
3778,22813;1,89435
3776,17698;1,8949
3774,12582;1,89533
3772,07467;1,89551
3770,02351;1,89653
3767,97236;1,8993
3765,9212;1,90114
3763,87005;1,90243
3761,81889;1,90275
3759,76773;1,90217
3757,71658;1,90406
3755,66542;1,90823
3753,61427;1,91081
3751,56311;1,9112
3749,51196;1,91466
3747,4608;1,92127
3745,40965;1,92454
3743,35849;1,92953
3741,30734;1,93842
3739,25618;1,94439
3737,20503;1,94655
3735,15387;1,9474
3733,10272;1,94779
3731,05156;1,94874
3729,0004;1,94997
3726,94925;1,94918
3724,89809;1,95022
3722,84694;1,95523
3720,79578;1,95991
3718,74463;1,9621
3716,69347;1,96617
3714,64232;1,97304
3712,59116;1,97876
3710,54001;1,98374
3708,48885;1,99068
3706,4377;1,99935
3704,38654;2,00978
3702,33539;2,02479
3700,28423;2,04584
3698,23307;2,06682
3696,18192;2,08408
3694,13076;2,09754
3692,07961;2,10344
3690,02845;2,10062
3687,9773;2,09646
3685,92614;2,09738
3683,87499;2,10175
3681,82383;2,10988
3679,77268;2,12231
3677,72152;2,13723
3675,67037;2,15521
3673,61921;2,17639
3671,56806;2,19043
3669,5169;2,19922
3667,46574;2,21154
3665,41459;2,22492
3663,36343;2,23867
3661,31228;2,25576
3659,26112;2,27513
3657,20997;2,29207
3655,15881;2,30771
3653,10766;2,32513
3651,0565;2,34578
3649,00535;2,36884
3646,95419;2,3851
3644,90304;2,39503
3642,85188;2,40511
3640,80073;2,41541
3638,74957;2,4239
3636,69841;2,43296
3634,64726;2,44337
3632,5961;2,45262
3630,54495;2,45775
3628,49379;2,46309
3626,44264;2,47459
3624,39148;2,48784
3622,34033;2,49947
3620,28917;2,50602
3618,23802;2,50894
3616,18686;2,5139
3614,13571;2,52295
3612,08455;2,53439
3610,0334;2,54149
3607,98224;2,5457
3605,93108;2,55518
3603,87993;2,56872
3601,82877;2,58198
3599,77762;2,59241
3597,72646;2,59803
3595,67531;2,60495
3593,62415;2,62073
3591,573;2,63531
3589,52184;2,63826
3587,47069;2,63922
3585,41953;2,64552
3583,36838;2,64939
3581,31722;2,65125
3579,26607;2,65895
3577,21491;2,67173
3575,16375;2,68153
3573,1126;2,68777
3571,06144;2,70018
3569,01029;2,71864
3566,95913;2,72779
3564,90798;2,72428
3562,85682;2,72191
3560,80567;2,72218
3558,75451;2,71866
3556,70336;2,71496
3554,6522;2,7179
3552,60105;2,72503
3550,54989;2,72967
3548,49874;2,73383
3546,44758;2,74371
3544,39642;2,75598
3542,34527;2,76236
3540,29411;2,75865
3538,24296;2,74984
3536,1918;2,74498
3534,14065;2,74583
3532,08949;2,75265
3530,03834;2,76797
3527,98718;2,78825
3525,93603;2,80364
3523,88487;2,80528
3521,83372;2,79606
3519,78256;2,78758
3517,73141;2,78742
3515,68025;2,79479
3513,62909;2,80328
3511,57794;2,80773
3509,52678;2,80699
3507,47563;2,80154
3505,42447;2,7947
3503,37332;2,79513
3501,32216;2,807
3499,27101;2,82144
3497,21985;2,82254
3495,1687;2,81037
3493,11754;2,80453
3491,06639;2,80993
3489,01523;2,81609
3486,96407;2,81815
3484,91292;2,81868
3482,86176;2,82128
3480,81061;2,82386
3478,75945;2,82692
3476,7083;2,83706
3474,65714;2,84875
3472,60599;2,84676
3470,55483;2,8359
3468,50368;2,83553
3466,45252;2,84345
3464,40137;2,84302
3462,35021;2,83216
3460,29906;2,82422
3458,2479;2,82743
3456,19674;2,8345
3454,14559;2,83421
3452,09443;2,8305
3450,04328;2,8304
3447,99212;2,83006
3445,94097;2,8214
3443,88981;2,79794
3441,83866;2,77255
3439,7875;2,76253
3437,73635;2,75525
3435,68519;2,73474
3433,63404;2,70911
3431,58288;2,6913
3429,53173;2,6906
3427,48057;2,70296
3425,42941;2,7151
3423,37826;2,73035
3421,3271;2,75029
3419,27595;2,76177
3417,22479;2,76651
3415,17364;2,77314
3413,12248;2,77889
3411,07133;2,77731
3409,02017;2,77532
3406,96902;2,78191
3404,91786;2,78514
3402,86671;2,78262
3400,81555;2,7873
3398,7644;2,79106
3396,71324;2,78748
3394,66208;2,79106
3392,61093;2,80716
3390,55977;2,82101
3388,50862;2,82593
3386,45746;2,82958
3384,40631;2,83058
3382,35515;2,8178
3380,304;2,7951
3378,25284;2,78327
3376,20169;2,7887
3374,15053;2,79297
3372,09938;2,79008
3370,04822;2,79266
3367,99707;2,7966
3365,94591;2,79375
3363,89475;2,79566
3361,8436;2,80889
3359,79244;2,8193
3357,74129;2,81749
3355,69013;2,81402
3353,63898;2,81593
3351,58782;2,81645
3349,53667;2,80955
3347,48551;2,79975
3345,43436;2,7915
3343,3832;2,78659
3341,33205;2,79204
3339,28089;2,80462
3337,22974;2,81008
3335,17858;2,80839
3333,12742;2,80005
3331,07627;2,79108
3329,02511;2,79519
3326,97396;2,80108
3324,9228;2,79627
3322,87165;2,78785
3320,82049;2,78539
3318,76934;2,78983
3316,71818;2,79033
3314,66703;2,78626
3312,61587;2,78599
3310,56472;2,79213
3308,51356;2,80338
3306,46241;2,80997
3304,41125;2,80791
3302,36009;2,80553
3300,30894;2,80531
3298,25778;2,80337
3296,20663;2,79828
3294,15547;2,78945
3292,10432;2,77987
3290,05316;2,77717
3288,00201;2,78253
3285,95085;2,78476
3283,8997;2,77901
3281,84854;2,77604
3279,79739;2,78238
3277,74623;2,78757
3275,69508;2,78179
3273,64392;2,77648
3271,59276;2,77885
3269,54161;2,77876
3267,49045;2,77169
3265,4393;2,75923
3263,38814;2,74696
3261,33699;2,74664
3259,28583;2,75796
3257,23468;2,76548
3255,18352;2,7681
3253,13237;2,77468
3251,08121;2,78085
3249,03006;2,77792
3246,9789;2,76957
3244,92775;2,76544
3242,87659;2,75784
3240,82543;2,74376
3238,77428;2,74211
3236,72312;2,75505
3234,67197;2,76111
3232,62081;2,75266
3230,56966;2,74369
3228,5185;2,73951
3226,46735;2,73656
3224,41619;2,73887
3222,36504;2,74389
3220,31388;2,74187
3218,26273;2,73672
3216,21157;2,73151
3214,16041;2,72769
3212,10926;2,72795
3210,0581;2,72426
3208,00695;2,71646
3205,95579;2,71506
3203,90464;2,7184
3201,85348;2,71676
3199,80233;2,7142
3197,75117;2,71753
3195,70002;2,72195
3193,64886;2,72513
3191,59771;2,72649
3189,54655;2,72516
3187,4954;2,72229
3185,44424;2,71836
3183,39308;2,71772
3181,34193;2,71759
3179,29077;2,71132
3177,23962;2,7038
3175,18846;2,69607
3173,13731;2,68727
3171,08615;2,68627
3169,035;2,6923
3166,98384;2,69145
3164,93269;2,68628
3162,88153;2,69168
3160,83038;2,70073
3158,77922;2,70096
3156,72807;2,70109
3154,67691;2,70607
3152,62575;2,70317
3150,5746;2,69244
3148,52344;2,68775
3146,47229;2,68824
3144,42113;2,68783
3142,36998;2,68646
3140,31882;2,68517
3138,26767;2,68657
3136,21651;2,68868
3134,16536;2,68697
3132,1142;2,68445
3130,06305;2,68525
3128,01189;2,68544
3125,96074;2,68344
3123,90958;2,68128
3121,85842;2,67769
3119,80727;2,67104
3117,75611;2,66387
3115,70496;2,66347
3113,6538;2,66814
3111,60265;2,66894
3109,55149;2,66553
3107,50034;2,6616
3105,44918;2,66125
3103,39803;2,66439
3101,34687;2,66653
3099,29572;2,66363
3097,24456;2,65653
3095,19341;2,65376
3093,14225;2,65707
3091,09109;2,6603
3089,03994;2,66221
3086,98878;2,66269
3084,93763;2,66099
3082,88647;2,662
3080,83532;2,66552
3078,78416;2,66539
3076,73301;2,66371
3074,68185;2,66694
3072,6307;2,67374
3070,57954;2,67677
3068,52839;2,67387
3066,47723;2,66474
3064,42608;2,65359
3062,37492;2,65172
3060,32376;2,65765
3058,27261;2,66175
3056,22145;2,66657
3054,1703;2,67175
3052,11914;2,67008
3050,06799;2,66558
3048,01683;2,66488
3045,96568;2,66572
3043,91452;2,66079
3041,86337;2,65263
3039,81221;2,65064
3037,76106;2,65306
3035,7099;2,65634
3033,65875;2,6616
3031,60759;2,66684
3029,55643;2,66928
3027,50528;2,6679
3025,45412;2,66356
3023,40297;2,66095
3021,35181;2,66431
3019,30066;2,67329
3017,2495;2,68113
3015,19835;2,68341
3013,14719;2,6848
3011,09604;2,68974
3009,04488;2,69763
3006,99373;2,70493
3004,94257;2,70919
3002,89142;2,70918
3000,84026;2,70686
2998,7891;2,70626
2996,73795;2,70564
2994,68679;2,70768
2992,63564;2,71505
2990,58448;2,72009
2988,53333;2,72595
2986,48217;2,73647
2984,43102;2,74146
2982,37986;2,74067
2980,32871;2,74526
2978,27755;2,75528
2976,2264;2,75921
2974,17524;2,75646
2972,12409;2,76066
2970,07293;2,77602
2968,02177;2,78946
2965,97062;2,79138
2963,91946;2,79496
2961,86831;2,80619
2959,81715;2,80798
2957,766;2,80299
2955,71484;2,80644
2953,66369;2,8099
2951,61253;2,80964
2949,56138;2,80928
2947,51022;2,80337
2945,45907;2,79987
2943,40791;2,80658
2941,35675;2,80916
2939,3056;2,80456
2937,25444;2,80866
2935,20329;2,8171
2933,15213;2,81579
2931,10098;2,80459
2929,04982;2,79383
2926,99867;2,79184
2924,94751;2,79063
2922,89636;2,78032
2920,8452;2,76583
2918,79405;2,75328
2916,74289;2,74743
2914,69174;2,74915
2912,64058;2,74749
2910,58942;2,74404
2908,53827;2,74453
2906,48711;2,741
2904,43596;2,73317
2902,3848;2,72941
2900,33365;2,73231
2898,28249;2,73655
2896,23134;2,73886
2894,18018;2,7418
2892,12903;2,7453
2890,07787;2,74469
2888,02672;2,73848
2885,97556;2,73095
2883,92441;2,7265
2881,87325;2,7266
2879,82209;2,73067
2877,77094;2,74191
2875,71978;2,75575
2873,66863;2,76427
2871,61747;2,76403
2869,56632;2,75122
2867,51516;2,73985
2865,46401;2,74172
2863,41285;2,7478
2861,3617;2,75358
2859,31054;2,75834
2857,25939;2,75373
2855,20823;2,74398
2853,15708;2,73966
2851,10592;2,73926
2849,05476;2,73266
2847,00361;2,72314
2844,95245;2,72399
2842,9013;2,72446
2840,85014;2,71166
2838,79899;2,69839
2836,74783;2,6928
2834,69668;2,68894
2832,64552;2,68816
2830,59437;2,69056
2828,54321;2,68307
2826,49206;2,66382
2824,4409;2,64482
2822,38975;2,63163
2820,33859;2,62261
2818,28743;2,61344
2816,23628;2,60031
2814,18512;2,58521
2812,13397;2,57534
2810,08281;2,57116
2808,03166;2,56448
2805,9805;2,55378
2803,92935;2,5448
2801,87819;2,53889
2799,82704;2,53092
2797,77588;2,51912
2795,72473;2,51188
2793,67357;2,51256
2791,62242;2,5122
2789,57126;2,50597
2787,5201;2,49771
2785,46895;2,49161
2783,41779;2,48951
2781,36664;2,48903
2779,31548;2,48621
2777,26433;2,48314
2775,21317;2,48066
2773,16202;2,47413
2771,11086;2,46491
2769,05971;2,46011
2767,00855;2,4601
2764,9574;2,45933
2762,90624;2,45745
2760,85509;2,45529
2758,80393;2,45127
2756,75277;2,44762
2754,70162;2,44489
2752,65046;2,43906
2750,59931;2,43273
2748,54815;2,43195
2746,497;2,43442
2744,44584;2,43606
2742,39469;2,43663
2740,34353;2,43652
2738,29238;2,43577
2736,24122;2,43392
2734,19007;2,4312
2732,13891;2,4279
2730,08776;2,42502
2728,0366;2,42347
2725,98544;2,42227
2723,93429;2,42117
2721,88313;2,41894
2719,83198;2,41388
2717,78082;2,40939
2715,72967;2,40785
2713,67851;2,4076
2711,62736;2,40773
2709,5762;2,40682
2707,52505;2,4039
2705,47389;2,39978
2703,42274;2,39672
2701,37158;2,39689
2699,32043;2,39916
2697,26927;2,40015
2695,21811;2,39828
2693,16696;2,39736
2691,1158;2,40045
2689,06465;2,40153
2687,01349;2,39782
2684,96234;2,39616
2682,91118;2,39768
2680,86003;2,39916
2678,80887;2,40295
2676,75772;2,40905
2674,70656;2,41226
2672,65541;2,41287
2670,60425;2,41504
2668,55309;2,41862
2666,50194;2,41969
2664,45078;2,41817
2662,39963;2,41828
2660,34847;2,42029
2658,29732;2,42295
2656,24616;2,42532
2654,19501;2,42632
2652,14385;2,42685
2650,0927;2,42894
2648,04154;2,43332
2645,99039;2,43797
2643,93923;2,43973
2641,88808;2,43827
2639,83692;2,43861
2637,78576;2,44271
2635,73461;2,44893
2633,68345;2,45872
2631,6323;2,46988
2629,58114;2,4777
2627,52999;2,48442
2625,47883;2,49069
2623,42768;2,4947
2621,37652;2,49939
2619,32537;2,50395
2617,27421;2,50683
2615,22306;2,51083
2613,1719;2,51954
2611,12075;2,53258
2609,06959;2,5433
2607,01843;2,54977
2604,96728;2,55728
2602,91612;2,56747
2600,86497;2,57511
2598,81381;2,5772
2596,76266;2,57652
2594,7115;2,57737
2592,66035;2,57915
2590,60919;2,57731
2588,55804;2,5736
2586,50688;2,57457
2584,45573;2,57916
2582,40457;2,57942
2580,35342;2,57354
2578,30226;2,57012
2576,2511;2,57698
2574,19995;2,59078
2572,14879;2,60546
2570,09764;2,61945
2568,04648;2,63087
2565,99533;2,63775
2563,94417;2,64195
2561,89302;2,64536
2559,84186;2,64508
2557,79071;2,64615
2555,73955;2,65381
2553,6884;2,65862
2551,63724;2,65557
2549,58609;2,64973
2547,53493;2,64519
2545,48377;2,64253
2543,43262;2,64095
2541,38146;2,64106
2539,33031;2,64006
2537,27915;2,63627
2535,228;2,63854
2533,17684;2,64929
2531,12569;2,65688
2529,07453;2,65642
2527,02338;2,65687
2524,97222;2,66427
2522,92107;2,67241
2520,86991;2,67731
2518,81876;2,68027
2516,7676;2,68168
2514,71644;2,68661
2512,66529;2,69568
2510,61413;2,69858
2508,56298;2,69313
2506,51182;2,69043
2504,46067;2,69412
2502,40951;2,69362
2500,35836;2,6861
2498,3072;2,68244
2496,25605;2,68246
2494,20489;2,67408
2492,15374;2,65628
2490,10258;2,63647
2488,05143;2,61437
2486,00027;2,58824
2483,94911;2,56264
2481,89796;2,54047
2479,8468;2,52006
2477,79565;2,50048
2475,74449;2,48439
2473,69334;2,47136
2471,64218;2,45786
2469,59103;2,44334
2467,53987;2,43041
2465,48872;2,41845
2463,43756;2,40508
2461,38641;2,39339
2459,33525;2,38446
2457,2841;2,37581
2455,23294;2,36708
2453,18178;2,35862
2451,13063;2,35115
2449,07947;2,34516
2447,02832;2,34015
2444,97716;2,3363
2442,92601;2,33319
2440,87485;2,33032
2438,8237;2,32812
2436,77254;2,32437
2434,72139;2,31768
2432,67023;2,31098
2430,61908;2,30665
2428,56792;2,30323
2426,51677;2,30019
2424,46561;2,29896
2422,41445;2,29831
2420,3633;2,2964
2418,31214;2,29194
2416,26099;2,28659
2414,20983;2,28288
2412,15868;2,27994
2410,10752;2,27786
2408,05637;2,27612
2406,00521;2,27242
2403,95406;2,2686
2401,9029;2,26714
2399,85175;2,26607
2397,80059;2,26475
2395,74944;2,26375
2393,69828;2,26302
2391,64712;2,26172
2389,59597;2,25977
2387,54481;2,2583
2385,49366;2,2585
2383,4425;2,26016
2381,39135;2,2614
2379,34019;2,26196
2377,28904;2,26356
2375,23788;2,26595
2373,18673;2,26822
2371,13557;2,27096
2369,08442;2,27332
2367,03326;2,27419
2364,9821;2,27425
2362,93095;2,27336
2360,87979;2,26977
2358,82864;2,2612
2356,77748;2,2513
2354,72633;2,24826
2352,67517;2,25369
2350,62402;2,26144
2348,57286;2,26566
2346,52171;2,26582
2344,47055;2,26602
2342,4194;2,26898
2340,36824;2,2703
2338,31709;2,26628
2336,26593;2,26146
2334,21477;2,26093
2332,16362;2,26248
2330,11246;2,26262
2328,06131;2,26255
2326,01015;2,26401
2323,959;2,26704
2321,90784;2,27072
2319,85669;2,27337
2317,80553;2,27418
2315,75438;2,27416
2313,70322;2,27305
2311,65207;2,27033
2309,60091;2,26891
2307,54976;2,27037
2305,4986;2,2722
2303,44744;2,27317
2301,39629;2,27369
2299,34513;2,27361
2297,29398;2,27355
2295,24282;2,27396
2293,19167;2,27434
2291,14051;2,27497
2289,08936;2,27622
2287,0382;2,27749
2284,98705;2,27697
2282,93589;2,27354
2280,88474;2,26984
2278,83358;2,27015
2276,78243;2,27442
2274,73127;2,27883
2272,68011;2,28175
2270,62896;2,28373
2268,5778;2,28442
2266,52665;2,28348
2264,47549;2,28181
2262,42434;2,28156
2260,37318;2,2841
2258,32203;2,28699
2256,27087;2,28731
2254,21972;2,28651
2252,16856;2,28707
2250,11741;2,28851
2248,06625;2,28921
2246,0151;2,28911
2243,96394;2,28936
2241,91278;2,28897
2239,86163;2,28936
2237,81047;2,29274
2235,75932;2,29546
2233,70816;2,29608
2231,65701;2,29811
2229,60585;2,30055
2227,5547;2,3002
2225,50354;2,30032
2223,45239;2,30342
2221,40123;2,30502
2219,35008;2,30217
2217,29892;2,29872
2215,24777;2,29882
2213,19661;2,30045
2211,14545;2,30121
2209,0943;2,30261
2207,04314;2,30539
2204,99199;2,30718
2202,94083;2,30636
2200,88968;2,30488
2198,83852;2,30475
2196,78737;2,30577
2194,73621;2,30663
2192,68506;2,30739
2190,6339;2,30929
2188,58275;2,3131
2186,53159;2,31834
2184,48044;2,32107
2182,42928;2,3196
2180,37812;2,31935
2178,32697;2,32304
2176,27581;2,32661
2174,22466;2,32691
2172,1735;2,32496
2170,12235;2,32439
2168,07119;2,32655
2166,02004;2,32848
2163,96888;2,32914
2161,91773;2,32981
2159,86657;2,33157
2157,81542;2,33477
2155,76426;2,3381
2153,71311;2,34176
2151,66195;2,34537
2149,61079;2,34806
2147,55964;2,35074
2145,50848;2,35308
2143,45733;2,35439
2141,40617;2,35348
2139,35502;2,3494
2137,30386;2,34381
2135,25271;2,33985
2133,20155;2,33788
2131,1504;2,33504
2129,09924;2,3323
2127,04809;2,33207
2124,99693;2,33125
2122,94578;2,32843
2120,89462;2,32551
2118,84346;2,32209
2116,79231;2,31915
2114,74115;2,31766
2112,69;2,31617
2110,63884;2,31458
2108,58769;2,31288
2106,53653;2,31037
2104,48538;2,30799
2102,43422;2,30787
2100,38307;2,31075
2098,33191;2,31487
2096,28076;2,3177
2094,2296;2,31901
2092,17844;2,32023
2090,12729;2,32119
2088,07613;2,32215
2086,02498;2,32262
2083,97382;2,32095
2081,92267;2,31989
2079,87151;2,32313
2077,82036;2,32811
2075,7692;2,33069
2073,71805;2,33118
2071,66689;2,33096
2069,61574;2,33048
2067,56458;2,33101
2065,51343;2,33325
2063,46227;2,33699
2061,41111;2,34044
2059,35996;2,34189
2057,3088;2,34386
2055,25765;2,34876
2053,20649;2,35342
2051,15534;2,35564
2049,10418;2,3576
2047,05303;2,35935
2045,00187;2,36029
2042,95072;2,36229
2040,89956;2,36545
2038,84841;2,36672
2036,79725;2,36529
2034,7461;2,3646
2032,69494;2,36596
2030,64378;2,36701
2028,59263;2,36649
2026,54147;2,36587
2024,49032;2,36713
2022,43916;2,36894
2020,38801;2,36896
2018,33685;2,36718
2016,2857;2,36608
2014,23454;2,36827
2012,18339;2,37168
2010,13223;2,37474
2008,08108;2,37872
2006,02992;2,38291
2003,97877;2,38605
2001,92761;2,38768
1999,87645;2,38829
1997,8253;2,39031
1995,77414;2,39471
1993,72299;2,39848
1991,67183;2,40061
1989,62068;2,40242
1987,56952;2,40361
1985,51837;2,40582
1983,46721;2,41005
1981,41606;2,41478
1979,3649;2,41806
1977,31375;2,42016
1975,26259;2,42393
1973,21144;2,4309
1971,16028;2,43879
1969,10912;2,44451
1967,05797;2,44935
1965,00681;2,4571
1962,95566;2,46593
1960,9045;2,47185
1958,85335;2,47623
1956,80219;2,48118
1954,75104;2,48495
1952,69988;2,48702
1950,64873;2,49016
1948,59757;2,49479
1946,54642;2,49853
1944,49526;2,50085
1942,44411;2,50417
1940,39295;2,51099
1938,34179;2,51878
1936,29064;2,52393
1934,23948;2,52588
1932,18833;2,529
1930,13717;2,53518
1928,08602;2,54224
1926,03486;2,54861
1923,98371;2,55166
1921,93255;2,55489
1919,8814;2,56249
1917,83024;2,57179
1915,77909;2,5814
1913,72793;2,58966
1911,67678;2,59596
1909,62562;2,60108
1907,57446;2,60635
1905,52331;2,61349
1903,47215;2,62147
1901,421;2,62917
1899,36984;2,63887
1897,31869;2,6503
1895,26753;2,66226
1893,21638;2,67655
1891,16522;2,68975
1889,11407;2,6969
1887,06291;2,7018
1885,01176;2,70896
1882,9606;2,71527
1880,90945;2,71531
1878,85829;2,71037
1876,80713;2,70703
1874,75598;2,70824
1872,70482;2,71239
1870,65367;2,7148
1868,60251;2,71427
1866,55136;2,71688
1864,5002;2,72347
1862,44905;2,72951
1860,39789;2,73197
1858,34674;2,73107
1856,29558;2,73025
1854,24443;2,73136
1852,19327;2,73404
1850,14212;2,73618
1848,09096;2,73401
1846,0398;2,72896
1843,98865;2,7287
1841,93749;2,73594
1839,88634;2,74319
1837,83518;2,74663
1835,78403;2,74736
1833,73287;2,7467
1831,68172;2,74701
1829,63056;2,75181
1827,57941;2,75754
1825,52825;2,75411
1823,4771;2,74272
1821,42594;2,73068
1819,37478;2,7243
1817,32363;2,72847
1815,27247;2,73868
1813,22132;2,74349
1811,17016;2,74207
1809,11901;2,74567
1807,06785;2,75765
1805,0167;2,77124
1802,96554;2,78033
1800,91439;2,78458
1798,86323;2,78898
1796,81208;2,79649
1794,76092;2,80222
1792,70977;2,80001
1790,65861;2,79459
1788,60745;2,79249
1786,5563;2,79117
1784,50514;2,78762
1782,45399;2,78193
1780,40283;2,77846
1778,35168;2,78239
1776,30052;2,79229
1774,24937;2,80275
1772,19821;2,80805
1770,14706;2,80916
1768,0959;2,81594
1766,04475;2,83472
1763,99359;2,85736
1761,94244;2,87725
1759,89128;2,89579
1757,84012;2,91096
1755,78897;2,92273
1753,73781;2,92964
1751,68666;2,92206
1749,6355;2,89843
1747,58435;2,87537
1745,53319;2,86498
1743,48204;2,86208
1741,43088;2,85817
1739,37973;2,85229
1737,32857;2,8493
1735,27742;2,8474
1733,22626;2,84741
1731,17511;2,85338
1729,12395;2,85981
1727,07279;2,85799
1725,02164;2,84823
1722,97048;2,8444
1720,91933;2,85004
1718,86817;2,8533
1716,81702;2,85411
1714,76586;2,85892
1712,71471;2,86247
1710,66355;2,86269
1708,6124;2,86431
1706,56124;2,86951
1704,51009;2,87908
1702,45893;2,89048
1700,40778;2,9051
1698,35662;2,92323
1696,30546;2,92656
1694,25431;2,91968
1692,20315;2,91322
1690,152;2,90911
1688,10084;2,9125
1686,04969;2,91401
1683,99853;2,90517
1681,94738;2,89892
1679,89622;2,89571
1677,84507;2,88926
1675,79391;2,88309
1673,74276;2,88925
1671,6916;2,89832
1669,64045;2,8919
1667,58929;2,8786
1665,53813;2,8692
1663,48698;2,86174
1661,43582;2,85806
1659,38467;2,85968
1657,33351;2,86357
1655,28236;2,85644
1653,2312;2,83372
1651,18005;2,82421
1649,12889;2,82411
1647,07774;2,81959
1645,02658;2,81606
1642,97543;2,81322
1640,92427;2,81052
1638,87312;2,8075
1636,82196;2,7992
1634,7708;2,79136
1632,71965;2,79057
1630,66849;2,78872
1628,61734;2,78128
1626,56618;2,76983
1624,51503;2,75562
1622,46387;2,74536
1620,41272;2,74161
1618,36156;2,73334
1616,31041;2,72302
1614,25925;2,72342
1612,2081;2,72912
1610,15694;2,73035
1608,10579;2,72345
1606,05463;2,71132
1604,00347;2,70048
1601,95232;2,69331
1599,90116;2,68871
1597,85001;2,6865
1595,79885;2,68477
1593,7477;2,67984
1591,69654;2,66924
1589,64539;2,65679
1587,59423;2,64721
1585,54308;2,63498
1583,49192;2,6158
1581,44077;2,59455
1579,38961;2,5737
1577,33846;2,54924
1575,2873;2,52762
1573,23614;2,51858
1571,18499;2,51382
1569,13383;2,51293
1567,08268;2,52069
1565,03152;2,53144
1562,98037;2,54306
1560,92921;2,55197
1558,87806;2,55602
1556,8269;2,55704
1554,77575;2,55425
1552,72459;2,55624
1550,67344;2,56135
1548,62228;2,56299
1546,57113;2,56025
1544,51997;2,55463
1542,46881;2,5486
1540,41766;2,54295
1538,3665;2,54433
1536,31535;2,54835
1534,26419;2,54604
1532,21304;2,54313
1530,16188;2,54344
1528,11073;2,54457
1526,05957;2,5499
1524,00842;2,55756
1521,95726;2,55677
1519,90611;2,54692
1517,85495;2,53462
1515,80379;2,52789
1513,75264;2,52822
1511,70148;2,52888
1509,65033;2,52482
1507,59917;2,51301
1505,54802;2,50781
1503,49686;2,51425
1501,44571;2,51731
1499,39455;2,5146
1497,3434;2,51224
1495,29224;2,51333
1493,24109;2,51383
1491,18993;2,50809
1489,13878;2,49865
1487,08762;2,49161
1485,03646;2,48659
1482,98531;2,47785
1480,93415;2,46542
1478,883;2,45562
1476,83184;2,45015
1474,78069;2,44735
1472,72953;2,44763
1470,67838;2,45258
1468,62722;2,45589
1466,57607;2,45457
1464,52491;2,45521
1462,47376;2,46074
1460,4226;2,46385
1458,37145;2,46223
1456,32029;2,46438
1454,26913;2,4718
1452,21798;2,47669
1450,16682;2,47857
1448,11567;2,47932
1446,06451;2,4779
1444,01336;2,4711
1441,9622;2,46045
1439,91105;2,44933
1437,85989;2,4377
1435,80874;2,43166
1433,75758;2,43091
1431,70643;2,4256
1429,65527;2,41888
1427,60412;2,41572
1425,55296;2,41286
1423,5018;2,41007
1421,45065;2,40506
1419,39949;2,39453
1417,34834;2,38612
1415,29718;2,38131
1413,24603;2,37684
1411,19487;2,37632
1409,14372;2,38272
1407,09256;2,39374
1405,04141;2,40823
1402,99025;2,42618
1400,9391;2,4432
1398,88794;2,45904
1396,83679;2,47668
1394,78563;2,49333
1392,73447;2,50615
1390,68332;2,5152
1388,63216;2,5228
1386,58101;2,53043
1384,52985;2,53519
1382,4787;2,53631
1380,42754;2,538
1378,37639;2,54111
1376,32523;2,54123
1374,27408;2,53715
1372,22292;2,53507
1370,17177;2,53781
1368,12061;2,54255
1366,06946;2,54536
1364,0183;2,54359
1361,96714;2,54005
1359,91599;2,53866
1357,86483;2,53986
1355,81368;2,54355
1353,76252;2,54759
1351,71137;2,54859
1349,66021;2,54827
1347,60906;2,55003
1345,5579;2,55168
1343,50675;2,55144
1341,45559;2,55132
1339,40444;2,55297
1337,35328;2,55656
1335,30213;2,56029
1333,25097;2,56227
1331,19981;2,56222
1329,14866;2,5622
1327,0975;2,56386
1325,04635;2,56582
1322,99519;2,56621
1320,94404;2,56511
1318,89288;2,5642
1316,84173;2,56536
1314,79057;2,56714
1312,73942;2,5684
1310,68826;2,57222
1308,63711;2,57648
1306,58595;2,57693
1304,5348;2,5761
1302,48364;2,575
1300,43248;2,57269
1298,38133;2,57204
1296,33017;2,57403
1294,27902;2,57693
1292,22786;2,58008
1290,17671;2,58182
1288,12555;2,58107
1286,0744;2,57961
1284,02324;2,5787
1281,97209;2,578
1279,92093;2,57934
1277,86978;2,5839
1275,81862;2,58811
1273,76747;2,59037
1271,71631;2,59254
1269,66515;2,59663
1267,614;2,60175
1265,56284;2,60345
1263,51169;2,60297
1261,46053;2,6047
1259,40938;2,60553
1257,35822;2,60171
1255,30707;2,6004
1253,25591;2,60654
1251,20476;2,61107
1249,1536;2,61108
1247,10245;2,61377
1245,05129;2,6174
1243,00013;2,61601
1240,94898;2,61372
1238,89782;2,61432
1236,84667;2,61134
1234,79551;2,60448
1232,74436;2,59976
1230,6932;2,5975
1228,64205;2,59683
1226,59089;2,59554
1224,53974;2,59048
1222,48858;2,58374
1220,43743;2,58252
1218,38627;2,58685
1216,33512;2,58582
1214,28396;2,57895
1212,2328;2,57415
1210,18165;2,57041
1208,13049;2,56892
1206,07934;2,57099
1204,02818;2,57081
1201,97703;2,56865
1199,92587;2,57058
1197,87472;2,57727
1195,82356;2,58197
1193,77241;2,58155
1191,72125;2,58124
1189,6701;2,58461
1187,61894;2,59028
1185,56779;2,59511
1183,51663;2,59869
1181,46547;2,60139
1179,41432;2,60135
1177,36316;2,6015
1175,31201;2,60526
1173,26085;2,60765
1171,2097;2,60612
1169,15854;2,60773
1167,10739;2,61309
1165,05623;2,61637
1163,00508;2,61953
1160,95392;2,62245
1158,90277;2,61989
1156,85161;2,61437
1154,80046;2,61468
1152,7493;2,61919
1150,69814;2,617
1148,64699;2,60862
1146,59583;2,60309
1144,54468;2,60228
1142,49352;2,60264
1140,44237;2,60335
1138,39121;2,60466
1136,34006;2,60363
1134,2889;2,60181
1132,23775;2,60515
1130,18659;2,60853
1128,13544;2,60631
1126,08428;2,60728
1124,03313;2,61461
1121,98197;2,6205
1119,93081;2,62359
1117,87966;2,62704
1115,8285;2,62929
1113,77735;2,62811
1111,72619;2,62544
1109,67504;2,62641
1107,62388;2,63225
1105,57273;2,63743
1103,52157;2,64139
1101,47042;2,64579
1099,41926;2,64452
1097,36811;2,64091
1095,31695;2,64439
1093,2658;2,64636
1091,21464;2,63737
1089,16348;2,62531
1087,11233;2,61829
1085,06117;2,61528
1083,01002;2,61352
1080,95886;2,61353
1078,90771;2,61488
1076,85655;2,61323
1074,8054;2,61044
1072,75424;2,6138
1070,70309;2,62126
1068,65193;2,62299
1066,60078;2,62011
1064,54962;2,62345
1062,49847;2,62943
1060,44731;2,62753
1058,39615;2,62477
1056,345;2,62751
1054,29384;2,62678
1052,24269;2,61963
1050,19153;2,61471
1048,14038;2,61473
1046,08922;2,61706
1044,03807;2,61915
1041,98691;2,62059
1039,93576;2,62557
1037,8846;2,62929
1035,83345;2,62547
1033,78229;2,62233
1031,73114;2,62466
1029,67998;2,6304
1027,62882;2,63543
1025,57767;2,63395
1023,52651;2,63487
1021,47536;2,6452
1019,4242;2,65235
1017,37305;2,65225
1015,32189;2,64782
1013,27074;2,6415
1011,21958;2,64183
1009,16843;2,64561
1007,11727;2,64348
1005,06612;2,63618
1003,01496;2,63283
1000,96381;2,64058
998,91265;2,65222
996,86149;2,65722
994,81034;2,65644
992,75918;2,65496
990,70803;2,65665
988,65687;2,66069
986,60572;2,66294
984,55456;2,66428
982,50341;2,66546
980,45225;2,66392
978,4011;2,66135
976,34994;2,66166
974,29879;2,66007
972,24763;2,655
970,19647;2,65211
968,14532;2,65027
966,09416;2,64766
964,04301;2,64547
961,99185;2,64339
959,9407;2,63735
957,88954;2,62236
955,83839;2,60155
953,78723;2,58761
951,73608;2,58549
949,68492;2,58936
947,63377;2,59564
945,58261;2,6036
943,53146;2,60916
941,4803;2,60851
939,42914;2,6087
937,37799;2,61491
935,32683;2,62022
933,27568;2,62404
931,22452;2,6279
929,17337;2,63032
927,12221;2,6346
925,07106;2,63701
923,0199;2,63255
920,96875;2,62477
918,91759;2,62061
916,86644;2,6226
914,81528;2,62803
912,76413;2,63474
910,71297;2,64032
908,66181;2,64403
906,61066;2,65077
904,5595;2,66313
902,50835;2,67112
900,45719;2,67304
898,40604;2,68038
896,35488;2,6834
894,30373;2,67317
892,25257;2,66615
890,20142;2,6662
888,15026;2,66224
886,09911;2,65522
884,04795;2,65348
881,9968;2,65526
879,94564;2,65869
877,89448;2,66886
875,84333;2,67917
873,79217;2,67826
871,74102;2,67078
869,68986;2,66062
867,63871;2,65137
865,58755;2,64686
863,5364;2,64644
861,48524;2,64803
859,43409;2,64328
857,38293;2,63276
855,33178;2,62201
853,28062;2,61815
851,22947;2,62165
849,17831;2,62324
847,12715;2,61912
845,076;2,60884
843,02484;2,59369
840,97369;2,57575
838,92253;2,55982
836,87138;2,55521
834,82022;2,56219
832,76907;2,56204
830,71791;2,55246
828,66676;2,55805
826,6156;2,5829
824,56445;2,6017
822,51329;2,59808
820,46214;2,58809
818,41098;2,58946
816,35982;2,59362
814,30867;2,58518
812,25751;2,56623
810,20636;2,55095
808,1552;2,55181
806,10405;2,56722
804,05289;2,58464
802,00174;2,58605
799,95058;2,57339
797,89943;2,57263
795,84827;2,5845
793,79712;2,59165
791,74596;2,58936
789,69481;2,58719
787,64365;2,59036
785,59249;2,59738
783,54134;2,61566
781,49018;2,63622
779,43903;2,64168
777,38787;2,63937
775,33672;2,63818
773,28556;2,6385
771,23441;2,63583
769,18325;2,63165
767,1321;2,63022
765,08094;2,62454
763,02979;2,62026
760,97863;2,62721
758,92748;2,63011
756,87632;2,62486
754,82516;2,62977
752,77401;2,63644
750,72285;2,6328
748,6717;2,63433
746,62054;2,64022
744,56939;2,63962
742,51823;2,63645
740,46708;2,63369
738,41592;2,63205
736,36477;2,62829
734,31361;2,62942
732,26246;2,63721
730,2113;2,63777
728,16015;2,62604
726,10899;2,61722
724,05783;2,62011
722,00668;2,62286
719,95552;2,61775
717,90437;2,61004
715,85321;2,6051
713,80206;2,60003
711,7509;2,59335
709,69975;2,59196
707,64859;2,59602
705,59744;2,59921
703,54628;2,60431
701,49513;2,6115
699,44397;2,61387
697,39281;2,61054
695,34166;2,60581
693,2905;2,60364
691,23935;2,60621
689,18819;2,61116
687,13704;2,61467
685,08588;2,61795
683,03473;2,62135
680,98357;2,61937
678,93242;2,6107
676,88126;2,60643
674,83011;2,60811
672,77895;2,6052
670,7278;2,59947
668,67664;2,60369
666,62548;2,62259
664,57433;2,63561
662,52317;2,62878
660,47202;2,62021
658,42086;2,62318
656,36971;2,62561
654,31855;2,62706
652,2674;2,63641
650,21624;2,64154
648,16509;2,63259
646,11393;2,62557
644,06278;2,62766
642,01162;2,62989
639,96047;2,63247
637,90931;2,62885
635,85815;2,61621
633,807;2,61345
631,75584;2,62985
629,70469;2,64389
627,65353;2,63802
625,60238;2,6415
623,55122;2,66345
621,50007;2,67587
619,44891;2,666
617,39776;2,64416
615,3466;2,63637
613,29545;2,65475
611,24429;2,66973
609,19314;2,66529
607,14198;2,65997
605,09082;2,6568
603,03967;2,65845
600,98851;2,66756
598,93736;2,66946
596,8862;2,65485
594,83505;2,63658
592,78389;2,62795
590,73274;2,63553
588,68158;2,65362
586,63043;2,66347
584,57927;2,66441
582,52812;2,66689
580,47696;2,65923
578,42581;2,64272
576,37465;2,63838
574,32349;2,65219
572,27234;2,66971
570,22118;2,66685
568,17003;2,64737
566,11887;2,63374
564,06772;2,62248
562,01656;2,61358
559,96541;2,61872
557,91425;2,63683
555,8631;2,65132
553,81194;2,65691
551,76079;2,66778
549,70963;2,6743
547,65848;2,66897
545,60732;2,66809
543,55616;2,66228
541,50501;2,63764
539,45385;2,62318
537,4027;2,64038
535,35154;2,65778
533,30039;2,66247
531,24923;2,68306
529,19808;2,70024
527,14692;2,69651
525,09577;2,69851
523,04461;2,69689
520,99346;2,67263
518,9423;2,65769
516,89115;2,68031
514,83999;2,70742
512,78883;2,6933
510,73768;2,6587
508,68652;2,63768
506,63537;2,61627
504,58421;2,59073
502,53306;2,58244
500,4819;2,58267
498,43075;2,57345
496,37959;2,56262
494,32844;2,56843
492,27728;2,58249
490,22613;2,58248
488,17497;2,58053
486,12382;2,59583
484,07266;2,62231
482,0215;2,63516
479,97035;2,62634
477,91919;2,61324
475,86804;2,60118
473,81688;2,59313
471,76573;2,60087
469,71457;2,62153
467,66342;2,62798
465,61226;2,61313
463,56111;2,59336
461,50995;2,5515
459,4588;2,4886
457,40764;2,44913
455,35649;2,4542
453,30533;2,4863
451,25417;2,49834
449,20302;2,46035
447,15186;2,42334
445,10071;2,42891
443,04955;2,45109
440,9984;2,46443
438,94724;2,47478
436,89609;2,48797
434,84493;2,4948
432,79378;2,49867
430,74262;2,53669
428,69147;2,59655
426,64031;2,61884
424,58916;2,61154
422,538;2,582
420,48684;2,52297
418,43569;2,49958
416,38453;2,54284
414,33338;2,58271
412,28222;2,6205
410,23107;2,6267
408,17991;2,54382
406,12876;2,44515
404,0776;2,43218
402,02645;2,49869
399,97529;2,60954
