3997.70175;1.73362
3995.65060;1.73461
"3993.59944 3991.54829";"1.73517 1.73596"
3989,49713;1,73671
3987,44598;1,73741
3985,39482;1,73899
3983,34367;1,74155
3981,29251;1,74409
3979,24136;1,74661
3977,1902;1,74966
3975,13905;1,75272
3973,08789;1,75496
3971,03673;1,75651
3968,98558;1,7581
3966,93442;1,7602
3964,88327;1,7633
3962,83211;1,76704
3960,78096;1,7699
3958,7298;1,7717
3956,67865;1,77399
3954,62749;1,77708
3952,57634;1,77927
3950,52518;1,78021
3948,47403;1,78171
3946,42287;1,78385
3944,37172;1,78455
3942,32056;1,78358
3940,2694;1,78233
3938,21825;1,78109
3936,16709;1,77972
3934,11594;1,77787
3932,06478;1,77442
3930,01363;1,76936
3927,96247;1,76378
3925,91132;1,75818
3923,86016;1,75326
3921,80901;1,74956
3919,75785;1,74568
3917,7067;1,74038
3915,65554;1,7348
3913,60439;1,73036
3911,55323;1,72669
3909,50207;1,72283
3907,45092;1,71835
3905,39976;1,71351
3903,34861;1,70989
3901,29745;1,7091
3899,2463;1,71081
3897,19514;1,71398
3895,14399;1,71735
3893,09283;1,71932
3891,04168;1,71979
3888,99052;1,72097
3886,93937;1,72309
3884,88821;1,72405
3882,83706;1,72467
3880,7859;1,72605
3878,73474;1,72742
3876,68359;1,72856
3874,63243;1,72777
3872,58128;1,72354
3870,53012;1,71704
3868,47897;1,71119
3866,42781;1,70747
3864,37666;1,70409
3862,3255;1,70098
3860,27435;1,69919
3858,22319;1,69826
3856,17204;1,6973
3854,12088;1,69524
3852,06973;1,69453
3850,01857;1,69821
3847,96741;1,70283
3845,91626;1,70404
3843,8651;1,70167
3841,81395;1,69916
3839,76279;1,699
3837,71164;1,70022
3835,66048;1,7016
3833,60933;1,70356
3831,55817;1,70588
3829,50702;1,70679
3827,45586;1,70491
3825,40471;1,70138
3823,35355;1,69855
3821,3024;1,69668
3819,25124;1,69602
3817,20008;1,69595
3815,14893;1,69455
3813,09777;1,69341
3811,04662;1,69382
3808,99546;1,69396
3806,94431;1,69226
3804,89315;1,6902
3802,842;1,68921
3800,79084;1,68856
3798,73969;1,68949
3796,68853;1,69234
3794,63738;1,69522
3792,58622;1,69725
3790,53506;1,69848
3788,48391;1,69911
3786,43275;1,69915
3784,3816;1,69863
3782,33044;1,69829
3780,27929;1,69807
3778,22813;1,69787
3776,17698;1,69831
3774,12582;1,69908
3772,07467;1,69994
3770,02351;1,70128
3767,97236;1,70361
3765,9212;1,70615
3763,87005;1,70743
3761,81889;1,70769
3759,76773;1,70749
3757,71658;1,70779
3755,66542;1,70942
3753,61427;1,71084
3751,56311;1,7113
3749,51196;1,71266
3747,4608;1,71621
3745,40965;1,72114
3743,35849;1,72536
3741,30734;1,72896
3739,25618;1,73209
3737,20503;1,73349
3735,15387;1,73491
3733,10272;1,73916
3731,05156;1,74511
3729,0004;1,75024
3726,94925;1,75319
3724,89809;1,75444
3722,84694;1,75686
3720,79578;1,76238
3718,74463;1,77004
3716,69347;1,77769
3714,64232;1,78429
3712,59116;1,79057
3710,54001;1,79804
3708,48885;1,8069
3706,4377;1,81681
3704,38654;1,83077
3702,33539;1,85338
3700,28423;1,88408
3698,23307;1,9151
3696,18192;1,93866
3694,13076;1,95135
3692,07961;1,95334
3690,02845;1,94563
3687,9773;1,93234
3685,92614;1,9222
3683,87499;1,91902
3681,82383;1,92002
3679,77268;1,92214
3677,72152;1,92599
3675,67037;1,93335
3673,61921;1,94354
3671,56806;1,95525
3669,5169;1,96936
3667,46574;1,98548
3665,41459;2,00116
3663,36343;2,01495
3661,31228;2,02678
3659,26112;2,03791
3657,20997;2,04978
3655,15881;2,06303
3653,10766;2,07579
3651,0565;2,08517
3649,00535;2,09511
3646,95419;2,11405
3644,90304;2,13738
3642,85188;2,15555
3640,80073;2,1667
3638,74957;2,17448
3636,69841;2,183
3634,64726;2,19413
3632,5961;2,20467
3630,54495;2,21117
3628,49379;2,21885
3626,44264;2,23335
3624,39148;2,24831
3622,34033;2,25973
3620,28917;2,27174
3618,23802;2,28585
3616,18686;2,29867
3614,13571;2,30892
3612,08455;2,31727
3610,0334;2,32442
3607,98224;2,33211
3605,93108;2,34428
3603,87993;2,36057
3601,82877;2,37474
3599,77762;2,38387
3597,72646;2,38994
3595,67531;2,39561
3593,62415;2,40416
3591,573;2,41468
3589,52184;2,42337
3587,47069;2,42929
3585,41953;2,43625
3583,36838;2,44676
3581,31722;2,45713
3579,26607;2,46577
3577,21491;2,47359
3575,16375;2,47734
3573,1126;2,47417
3571,06144;2,46942
3569,01029;2,47128
3566,95913;2,48249
3564,90798;2,49571
3562,85682;2,50205
3560,80567;2,50553
3558,75451;2,51424
3556,70336;2,52725
3554,6522;2,53842
3552,60105;2,54466
3550,54989;2,54711
3548,49874;2,54969
3546,44758;2,5549
3544,39642;2,56036
3542,34527;2,56405
3540,29411;2,56714
3538,24296;2,5689
3536,1918;2,57001
3534,14065;2,57604
3532,08949;2,58903
3530,03834;2,60289
3527,98718;2,61105
3525,93603;2,61359
3523,88487;2,61323
3521,83372;2,61389
3519,78256;2,62262
3517,73141;2,6409
3515,68025;2,66005
3513,62909;2,6689
3511,57794;2,66165
3509,52678;2,64553
3507,47563;2,64103
3505,42447;2,65466
3503,37332;2,67242
3501,32216;2,68641
3499,27101;2,70038
3497,21985;2,7096
3495,1687;2,70599
3493,11754;2,69689
3491,06639;2,69585
3489,01523;2,70137
3486,96407;2,70339
3484,91292;2,70805
3482,86176;2,72317
3480,81061;2,73481
3478,75945;2,73398
3476,7083;2,73198
3474,65714;2,7363
3472,60599;2,7434
3470,55483;2,74719
3468,50368;2,74197
3466,45252;2,73413
3464,40137;2,74037
3462,35021;2,75775
3460,29906;2,76518
3458,2479;2,75909
3456,19674;2,75465
3454,14559;2,75861
3452,09443;2,76713
3450,04328;2,77423
3447,99212;2,77614
3445,94097;2,77811
3443,88981;2,783
3441,83866;2,77938
3439,7875;2,7682
3437,73635;2,75999
3435,68519;2,74582
3433,63404;2,72461
3431,58288;2,71709
3429,53173;2,72993
3427,48057;2,74716
3425,42941;2,75531
3423,37826;2,75501
3421,3271;2,74963
3419,27595;2,74605
3417,22479;2,74959
3415,17364;2,75753
3413,12248;2,76221
3411,07133;2,75899
3409,02017;2,75194
3406,96902;2,74717
3404,91786;2,74422
3402,86671;2,74733
3400,81555;2,75702
3398,7644;2,75759
3396,71324;2,7444
3394,66208;2,73003
3392,61093;2,72774
3390,55977;2,739
3388,50862;2,74581
3386,45746;2,74144
3384,40631;2,74336
3382,35515;2,75807
3380,304;2,77198
3378,25284;2,77275
3376,20169;2,76675
3374,15053;2,75926
3372,09938;2,75047
3370,04822;2,75367
3367,99707;2,7694
3365,94591;2,77448
3363,89475;2,76465
3361,8436;2,75802
3359,79244;2,75372
3357,74129;2,74313
3355,69013;2,73066
3353,63898;2,72731
3351,58782;2,73583
3349,53667;2,73973
3347,48551;2,73206
3345,43436;2,72701
3343,3832;2,72552
3341,33205;2,71966
3339,28089;2,71471
3337,22974;2,7158
3335,17858;2,72065
3333,12742;2,72483
3331,07627;2,72094
3329,02511;2,71063
3326,97396;2,70599
3324,9228;2,70731
3322,87165;2,70806
3320,82049;2,7082
3318,76934;2,70107
3316,71818;2,69039
3314,66703;2,69271
3312,61587;2,70096
3310,56472;2,69875
3308,51356;2,69129
3306,46241;2,68741
3304,41125;2,68728
3302,36009;2,68704
3300,30894;2,68034
3298,25778;2,66771
3296,20663;2,66026
3294,15547;2,66103
3292,10432;2,66479
3290,05316;2,67098
3288,00201;2,67418
3285,95085;2,66863
3283,8997;2,6639
3281,84854;2,66818
3279,79739;2,67307
3277,74623;2,66864
3275,69508;2,65847
3273,64392;2,64879
3271,59276;2,64018
3269,54161;2,63639
3267,49045;2,64119
3265,4393;2,64759
3263,38814;2,64758
3261,33699;2,64207
3259,28583;2,6372
3257,23468;2,63975
3255,18352;2,64538
3253,13237;2,6436
3251,08121;2,63683
3249,03006;2,62965
3246,9789;2,6205
3244,92775;2,61258
3242,87659;2,61433
3240,82543;2,62688
3238,77428;2,6359
3236,72312;2,63109
3234,67197;2,62294
3232,62081;2,61953
3230,56966;2,61496
3228,5185;2,61211
3226,46735;2,61831
3224,41619;2,62356
3222,36504;2,61915
3220,31388;2,61298
3218,26273;2,60874
3216,21157;2,6037
3214,16041;2,6006
3212,10926;2,59876
3210,0581;2,5968
3208,00695;2,59824
3205,95579;2,60116
3203,90464;2,59977
3201,85348;2,59598
3199,80233;2,5942
3197,75117;2,59219
3195,70002;2,58966
3193,64886;2,58747
3191,59771;2,58406
3189,54655;2,58199
3187,4954;2,57929
3185,44424;2,57071
3183,39308;2,56518
3181,34193;2,56943
3179,29077;2,57399
3177,23962;2,57326
3175,18846;2,57075
3173,13731;2,56477
3171,08615;2,55473
3169,035;2,54907
3166,98384;2,55102
3164,93269;2,55798
3162,88153;2,5646
3160,83038;2,56169
3158,77922;2,55095
3156,72807;2,54337
3154,67691;2,5459
3152,62575;2,55379
3150,5746;2,55463
3148,52344;2,54745
3146,47229;2,54336
3144,42113;2,54407
3142,36998;2,5433
3140,31882;2,5408
3138,26767;2,53657
3136,21651;2,53012
3134,16536;2,52554
3132,1142;2,52318
3130,06305;2,52069
3128,01189;2,52122
3125,96074;2,52413
3123,90958;2,52443
3121,85842;2,52173
3119,80727;2,51872
3117,75611;2,51801
3115,70496;2,51758
3113,6538;2,51371
3111,60265;2,50717
3109,55149;2,50189
3107,50034;2,50055
3105,44918;2,50017
3103,39803;2,49663
3101,34687;2,49339
3099,29572;2,49531
3097,24456;2,49937
3095,19341;2,50034
3093,14225;2,4979
3091,09109;2,49549
3089,03994;2,49487
3086,98878;2,49577
3084,93763;2,49713
3082,88647;2,49568
3080,83532;2,4917
3078,78416;2,48997
3076,73301;2,49012
3074,68185;2,4894
3072,6307;2,48651
3070,57954;2,47981
3068,52839;2,47295
3066,47723;2,47073
3064,42608;2,47282
3062,37492;2,47609
3060,32376;2,47558
3058,27261;2,47025
3056,22145;2,46551
3054,1703;2,46528
3052,11914;2,46857
3050,06799;2,47326
3048,01683;2,47763
3045,96568;2,47917
3043,91452;2,47613
3041,86337;2,47282
3039,81221;2,47525
3037,76106;2,48086
3035,7099;2,4854
3033,65875;2,48873
3031,60759;2,48897
3029,55643;2,48785
3027,50528;2,48895
3025,45412;2,49094
3023,40297;2,49274
3021,35181;2,49233
3019,30066;2,48934
3017,2495;2,49012
3015,19835;2,49678
3013,14719;2,50454
3011,09604;2,5105
3009,04488;2,51501
3006,99373;2,5194
3004,94257;2,52489
3002,89142;2,53043
3000,84026;2,5366
2998,7891;2,54669
2996,73795;2,56134
2994,68679;2,5796
2992,63564;2,59484
2990,58448;2,60158
2988,53333;2,60956
2986,48217;2,62077
2984,43102;2,62371
2982,37986;2,62053
2980,32871;2,62002
2978,27755;2,62106
2976,2264;2,62347
2974,17524;2,62687
2972,12409;2,62297
2970,07293;2,61141
2968,02177;2,60527
2965,97062;2,60607
2963,91946;2,60096
2961,86831;2,59227
2959,81715;2,59142
2957,766;2,59694
2955,71484;2,6042
2953,66369;2,60824
2951,61253;2,60791
2949,56138;2,60887
2947,51022;2,60955
2945,45907;2,60327
2943,40791;2,59181
2941,35675;2,58326
2939,3056;2,57921
2937,25444;2,57634
2935,20329;2,57637
2933,15213;2,58058
2931,10098;2,58326
2929,04982;2,58381
2926,99867;2,58485
2924,94751;2,58472
2922,89636;2,58347
2920,8452;2,58457
2918,79405;2,58985
2916,74289;2,59205
2914,69174;2,58776
2912,64058;2,58298
2910,58942;2,57988
2908,53827;2,58017
2906,48711;2,58372
2904,43596;2,58426
2902,3848;2,58277
2900,33365;2,58477
2898,28249;2,58911
2896,23134;2,59082
2894,18018;2,58831
2892,12903;2,58938
2890,07787;2,59612
2888,02672;2,60256
2885,97556;2,60907
2883,92441;2,61481
2881,87325;2,61534
2879,82209;2,61315
2877,77094;2,61397
2875,71978;2,62045
2873,66863;2,6287
2871,61747;2,62455
2869,56632;2,60693
2867,51516;2,59654
2865,46401;2,59737
2863,41285;2,59639
2861,3617;2,58742
2859,31054;2,57168
2857,25939;2,56072
2855,20823;2,56218
2853,15708;2,56617
2851,10592;2,56139
2849,05476;2,54875
2847,00361;2,53671
2844,95245;2,52695
2842,9013;2,51535
2840,85014;2,50328
2838,79899;2,49229
2836,74783;2,47957
2834,69668;2,46566
2832,64552;2,45225
2830,59437;2,43665
2828,54321;2,42029
2826,49206;2,40801
2824,4409;2,39706
2822,38975;2,3837
2820,33859;2,37032
2818,28743;2,3571
2816,23628;2,3438
2814,18512;2,3338
2812,13397;2,32776
2810,08281;2,32186
2808,03166;2,31409
2805,9805;2,30811
2803,92935;2,30503
2801,87819;2,30067
2799,82704;2,29355
2797,77588;2,28552
2795,72473;2,27918
2793,67357;2,27452
2791,62242;2,2682
2789,57126;2,26016
2787,5201;2,25377
2785,46895;2,24945
2783,41779;2,24503
2781,36664;2,23967
2779,31548;2,23388
2777,26433;2,22882
2775,21317;2,22601
2773,16202;2,22299
2771,11086;2,21739
2769,05971;2,21172
2767,00855;2,20744
2764,9574;2,20382
2762,90624;2,20136
2760,85509;2,20166
2758,80393;2,20329
2756,75277;2,20191
2754,70162;2,19733
2752,65046;2,1932
2750,59931;2,1903
2748,54815;2,18786
2746,497;2,18658
2744,44584;2,18604
2742,39469;2,18527
2740,34353;2,18377
2738,29238;2,18098
2736,24122;2,17801
2734,19007;2,17557
2732,13891;2,17405
2730,08776;2,17428
2728,0366;2,17362
2725,98544;2,17081
2723,93429;2,16918
2721,88313;2,16792
2719,83198;2,16396
2717,78082;2,15988
2715,72967;2,15821
2713,67851;2,15733
2711,62736;2,15637
2709,5762;2,15466
2707,52505;2,15093
2705,47389;2,14783
2703,42274;2,14833
2701,37158;2,15034
2699,32043;2,15059
2697,26927;2,14988
2695,21811;2,1498
2693,16696;2,14953
2691,1158;2,14882
2689,06465;2,14816
2687,01349;2,14769
2684,96234;2,14758
2682,91118;2,14821
2680,86003;2,14902
2678,80887;2,15005
2676,75772;2,15288
2674,70656;2,15592
2672,65541;2,15826
2670,60425;2,16118
2668,55309;2,16408
2666,50194;2,1667
2664,45078;2,16845
2662,39963;2,16885
2660,34847;2,16982
2658,29732;2,17276
2656,24616;2,17728
2654,19501;2,18213
2652,14385;2,18594
2650,0927;2,18955
2648,04154;2,19415
2645,99039;2,19953
2643,93923;2,20639
2641,88808;2,21541
2639,83692;2,22653
2637,78576;2,24098
2635,73461;2,25928
2633,68345;2,27809
2631,6323;2,29431
2629,58114;2,30786
2627,52999;2,31958
2625,47883;2,33231
2623,42768;2,34765
2621,37652;2,36204
2619,32537;2,37312
2617,27421;2,38351
2615,22306;2,39538
2613,1719;2,40755
2611,12075;2,41876
2609,06959;2,43041
2607,01843;2,44295
2604,96728;2,45533
2602,91612;2,46691
2600,86497;2,47615
2598,81381;2,48178
2596,76266;2,48417
2594,7115;2,48517
2592,66035;2,48688
2590,60919;2,48994
2588,55804;2,49296
2586,50688;2,494
2584,45573;2,49369
2582,40457;2,49284
2580,35342;2,49094
2578,30226;2,48945
2576,2511;2,49143
2574,19995;2,49811
2572,14879;2,50824
2570,09764;2,51855
2568,04648;2,52794
2565,99533;2,53843
2563,94417;2,54808
2561,89302;2,55484
2559,84186;2,56132
2557,79071;2,56543
2555,73955;2,56367
2553,6884;2,5619
2551,63724;2,56571
2549,58609;2,5715
2547,53493;2,57621
2545,48377;2,58032
2543,43262;2,58422
2541,38146;2,59063
2539,33031;2,60136
2537,27915;2,61544
2535,228;2,63237
2533,17684;2,64886
2531,12569;2,66082
2529,07453;2,67458
2527,02338;2,69611
2524,97222;2,71883
2522,92107;2,73403
2520,86991;2,73891
2518,81876;2,74
2516,7676;2,74532
2514,71644;2,7551
2512,66529;2,76022
2510,61413;2,75076
2508,56298;2,7356
2506,51182;2,72742
2504,46067;2,72008
2502,40951;2,7059
2500,35836;2,6881
2498,3072;2,67083
2496,25605;2,65199
2494,20489;2,62641
2492,15374;2,59587
2490,10258;2,56558
2488,05143;2,53831
2486,00027;2,51379
2483,94911;2,48908
2481,89796;2,46243
2479,8468;2,43675
2477,79565;2,41518
2475,74449;2,39601
2473,69334;2,37593
2471,64218;2,35478
2469,59103;2,33521
2467,53987;2,31865
2465,48872;2,30341
2463,43756;2,28792
2461,38641;2,27367
2459,33525;2,26143
2457,2841;2,2504
2455,23294;2,24022
2453,18178;2,23078
2451,13063;2,22252
2449,07947;2,21394
2447,02832;2,20388
2444,97716;2,19449
2442,92601;2,18672
2440,87485;2,17974
2438,8237;2,1736
2436,77254;2,16696
2434,72139;2,15957
2432,67023;2,15375
2430,61908;2,14932
2428,56792;2,14563
2426,51677;2,14179
2424,46561;2,13586
2422,41445;2,12914
2420,3633;2,12358
2418,31214;2,1179
2416,26099;2,11172
2414,20983;2,10762
2412,15868;2,10641
2410,10752;2,10537
2408,05637;2,10255
2406,00521;2,09866
2403,95406;2,09404
2401,9029;2,08925
2399,85175;2,08649
2397,80059;2,08588
2395,74944;2,08596
2393,69828;2,08548
2391,64712;2,08359
2389,59597;2,0802
2387,54481;2,07699
2385,49366;2,07562
2383,4425;2,07612
2381,39135;2,07741
2379,34019;2,0787
2377,28904;2,08037
2375,23788;2,08207
2373,18673;2,08244
2371,13557;2,08138
2369,08442;2,08072
2367,03326;2,08227
2364,9821;2,0853
2362,93095;2,08691
2360,87979;2,08451
2358,82864;2,07989
2356,77748;2,07771
2354,72633;2,07831
2352,67517;2,08
2350,62402;2,08306
2348,57286;2,0857
2346,52171;2,08559
2344,47055;2,08383
2342,4194;2,08261
2340,36824;2,08257
2338,31709;2,08239
2336,26593;2,08014
2334,21477;2,07823
2332,16362;2,07972
2330,11246;2,0823
2328,06131;2,08292
2326,01015;2,08203
2323,959;2,08159
2321,90784;2,08277
2319,85669;2,08449
2317,80553;2,0846
2315,75438;2,08252
2313,70322;2,07942
2311,65207;2,07697
2309,60091;2,07625
2307,54976;2,07694
2305,4986;2,07789
2303,44744;2,07836
2301,39629;2,07774
2299,34513;2,07605
2297,29398;2,07494
2295,24282;2,07502
2293,19167;2,07499
2291,14051;2,07416
2289,08936;2,07307
2287,0382;2,07258
2284,98705;2,07333
2282,93589;2,07477
2280,88474;2,07557
2278,83358;2,0757
2276,78243;2,07659
2274,73127;2,07874
2272,68011;2,08097
2270,62896;2,0823
2268,5778;2,08311
2266,52665;2,08411
2264,47549;2,08537
2262,42434;2,08688
2260,37318;2,08881
2258,32203;2,09079
2256,27087;2,09237
2254,21972;2,0937
2252,16856;2,09503
2250,11741;2,09649
2248,06625;2,09861
2246,0151;2,1011
2243,96394;2,10269
2241,91278;2,10455
2239,86163;2,10726
2237,81047;2,11012
2235,75932;2,11391
2233,70816;2,11824
2231,65701;2,12194
2229,60585;2,1255
2227,5547;2,12851
2225,50354;2,12963
2223,45239;2,12963
2221,40123;2,13086
2219,35008;2,13312
2217,29892;2,13417
2215,24777;2,13459
2213,19661;2,13655
2211,14545;2,13876
2209,0943;2,13877
2207,04314;2,13818
2204,99199;2,13941
2202,94083;2,14068
2200,88968;2,13977
2198,83852;2,13848
2196,78737;2,13911
2194,73621;2,14137
2192,68506;2,14402
2190,6339;2,14557
2188,58275;2,14556
2186,53159;2,14536
2184,48044;2,14686
2182,42928;2,1503
2180,37812;2,15365
2178,32697;2,15617
2176,27581;2,15922
2174,22466;2,16221
2172,1735;2,164
2170,12235;2,1663
2168,07119;2,1702
2166,02004;2,17481
2163,96888;2,1805
2161,91773;2,18735
2159,86657;2,1946
2157,81542;2,20405
2155,76426;2,21578
2153,71311;2,22726
2151,66195;2,23766
2149,61079;2,24536
2147,55964;2,25059
2145,50848;2,25472
2143,45733;2,25674
2141,40617;2,25722
2139,35502;2,25729
2137,30386;2,25537
2135,25271;2,24983
2133,20155;2,24213
2131,1504;2,23421
2129,09924;2,22589
2127,04809;2,21604
2124,99693;2,20441
2122,94578;2,19262
2120,89462;2,18254
2118,84346;2,17353
2116,79231;2,16423
2114,74115;2,1559
2112,69;2,14923
2110,63884;2,14397
2108,58769;2,1403
2106,53653;2,13656
2104,48538;2,13271
2102,43422;2,13081
2100,38307;2,12995
2098,33191;2,12897
2096,28076;2,12815
2094,2296;2,12737
2092,17844;2,12719
2090,12729;2,12748
2088,07613;2,12679
2086,02498;2,12541
2083,97382;2,12592
2081,92267;2,12895
2079,87151;2,132
2077,82036;2,13299
2075,7692;2,13311
2073,71805;2,13338
2071,66689;2,13321
2069,61574;2,13359
2067,56458;2,13502
2065,51343;2,13642
2063,46227;2,13741
2061,41111;2,13793
2059,35996;2,13873
2057,3088;2,14083
2055,25765;2,1434
2053,20649;2,14519
2051,15534;2,1457
2049,10418;2,14571
2047,05303;2,14626
2045,00187;2,14719
2042,95072;2,14869
2040,89956;2,15075
2038,84841;2,15235
2036,79725;2,15269
2034,7461;2,15255
2032,69494;2,15326
2030,64378;2,15501
2028,59263;2,15739
2026,54147;2,15911
2024,49032;2,15912
2022,43916;2,15835
2020,38801;2,15791
2018,33685;2,15795
2016,2857;2,15875
2014,23454;2,16052
2012,18339;2,16294
2010,13223;2,1653
2008,08108;2,16665
2006,02992;2,16697
2003,97877;2,16774
2001,92761;2,16926
1999,87645;2,17026
1997,8253;2,17107
1995,77414;2,17231
1993,72299;2,17291
1991,67183;2,17374
1989,62068;2,17587
1987,56952;2,17698
1985,51837;2,17741
1983,46721;2,17979
1981,41606;2,18339
1979,3649;2,1864
1977,31375;2,18896
1975,26259;2,19181
1973,21144;2,1952
1971,16028;2,20011
1969,10912;2,20712
1967,05797;2,21666
1965,00681;2,2306
1962,95566;2,24645
1960,9045;2,2552
1958,85335;2,2513
1956,80219;2,24012
1954,75104;2,2321
1952,69988;2,23129
1950,64873;2,23326
1948,59757;2,23407
1946,54642;2,23403
1944,49526;2,23502
1942,44411;2,23889
1940,39295;2,24559
1938,34179;2,25176
1936,29064;2,25454
1934,23948;2,25517
1932,18833;2,25676
1930,13717;2,26038
1928,08602;2,26477
1926,03486;2,26873
1923,98371;2,27236
1921,93255;2,27728
1919,8814;2,28406
1917,83024;2,2908
1915,77909;2,2967
1913,72793;2,30263
1911,67678;2,30811
1909,62562;2,31301
1907,57446;2,31877
1905,52331;2,32453
1903,47215;2,33032
1901,421;2,33965
1899,36984;2,35193
1897,31869;2,36227
1895,26753;2,36827
1893,21638;2,37248
1891,16522;2,37974
1889,11407;2,39116
1887,06291;2,40267
1885,01176;2,41098
1882,9606;2,41654
1880,90945;2,42113
1878,85829;2,42509
1876,80713;2,42821
1874,75598;2,43167
1872,70482;2,43588
1870,65367;2,43997
1868,60251;2,44479
1866,55136;2,45203
1864,5002;2,46129
1862,44905;2,4712
1860,39789;2,48058
1858,34674;2,48718
1856,29558;2,48913
1854,24443;2,48986
1852,19327;2,49457
1850,14212;2,50212
1848,09096;2,50955
1846,0398;2,51893
1843,98865;2,53317
1841,93749;2,5505
1839,88634;2,56569
1837,83518;2,5757
1835,78403;2,58424
1833,73287;2,59524
1831,68172;2,60575
1829,63056;2,61321
1827,57941;2,61973
1825,52825;2,62807
1823,4771;2,64048
1821,42594;2,65588
1819,37478;2,66942
1817,32363;2,68
1815,27247;2,6935
1813,22132;2,71561
1811,17016;2,74884
1809,11901;2,79408
1807,06785;2,84947
1805,0167;2,9079
1802,96554;2,95894
1800,91439;2,99811
1798,86323;3,02543
1796,81208;3,03879
1794,76092;3,03849
1792,70977;3,02422
1790,65861;2,99721
1788,60745;2,96348
1786,5563;2,92364
1784,50514;2,88023
1782,45399;2,84145
1780,40283;2,81208
1778,35168;2,79253
1776,30052;2,78063
1774,24937;2,77181
1772,19821;2,763
1770,14706;2,75814
1768,0959;2,76075
1766,04475;2,76787
1763,99359;2,77525
1761,94244;2,78147
1759,89128;2,78875
1757,84012;2,79712
1755,78897;2,80403
1753,73781;2,81069
1751,68666;2,81868
1749,6355;2,82478
1747,58435;2,82684
1745,53319;2,8311
1743,48204;2,84097
1741,43088;2,85244
1739,37973;2,86085
1737,32857;2,85984
1735,27742;2,85042
1733,22626;2,85076
1731,17511;2,86691
1729,12395;2,88005
1727,07279;2,88405
1725,02164;2,88358
1722,97048;2,87971
1720,91933;2,87457
1718,86817;2,86918
1716,81702;2,8669
1714,76586;2,88103
1712,71471;2,90974
1710,66355;2,93287
1708,6124;2,94352
1706,56124;2,95324
1704,51009;2,96559
1702,45893;2,97105
1700,40778;2,96985
1698,35662;2,97386
1696,30546;2,98794
1694,25431;3,00358
1692,20315;3,01329
1690,152;3,02219
1688,10084;3,03334
1686,04969;3,03878
1683,99853;3,0359
1681,94738;3,04119
1679,89622;3,06239
1677,84507;3,08799
1675,79391;3,10721
1673,74276;3,11906
1671,6916;3,12801
1669,64045;3,13731
1667,58929;3,1499
1665,53813;3,15912
1663,48698;3,16427
1661,43582;3,17614
1659,38467;3,19628
1657,33351;3,21209
1655,28236;3,21722
1653,2312;3,22755
1651,18005;3,25718
1649,12889;3,28886
1647,07774;3,30383
1645,02658;3,29258
1642,97543;3,27214
1640,92427;3,26272
1638,87312;3,26449
1636,82196;3,27088
1634,7708;3,28119
1632,71965;3,28479
1630,66849;3,27688
1628,61734;3,2671
1626,56618;3,26795
1624,51503;3,29024
1622,46387;3,3204
1620,41272;3,32173
1618,36156;3,30427
1616,31041;3,30394
1614,25925;3,31657
1612,2081;3,31861
1610,15694;3,30346
1608,10579;3,28699
1606,05463;3,28109
1604,00347;3,27229
1601,95232;3,25607
1599,90116;3,24393
1597,85001;3,23639
1595,79885;3,22599
1593,7477;3,20923
1591,69654;3,19072
1589,64539;3,17467
1587,59423;3,15309
1585,54308;3,11383
1583,49192;3,05975
1581,44077;3,00499
1579,38961;2,95536
1577,33846;2,9007
1575,2873;2,84182
1573,23614;2,80016
1571,18499;2,77041
1569,13383;2,73659
1567,08268;2,7007
1565,03152;2,6663
1562,98037;2,63238
1560,92921;2,59127
1558,87806;2,53672
1556,8269;2,49433
1554,77575;2,47287
1552,72459;2,45577
1550,67344;2,43744
1548,62228;2,42178
1546,57113;2,41137
1544,51997;2,40372
1542,46881;2,39634
1540,41766;2,38801
1538,3665;2,38383
1536,31535;2,38567
1534,26419;2,38575
1532,21304;2,38266
1530,16188;2,38179
1528,11073;2,38326
1526,05957;2,38472
1524,00842;2,38636
1521,95726;2,38889
1519,90611;2,39183
1517,85495;2,3938
1515,80379;2,39485
1513,75264;2,39548
1511,70148;2,39429
1509,65033;2,39215
1507,59917;2,39331
1505,54802;2,39863
1503,49686;2,40462
1501,44571;2,40973
1499,39455;2,41271
1497,3434;2,41341
1495,29224;2,41465
1493,24109;2,41759
1491,18993;2,42046
1489,13878;2,4227
1487,08762;2,42721
1485,03646;2,43434
1482,98531;2,43876
1480,93415;2,4373
1478,883;2,43224
1476,83184;2,42595
1474,78069;2,41806
1472,72953;2,40698
1470,67838;2,3945
1468,62722;2,3853
1466,57607;2,38025
1464,52491;2,37816
1462,47376;2,37809
1460,4226;2,3787
1458,37145;2,38076
1456,32029;2,38738
1454,26913;2,39553
1452,21798;2,39968
1450,16682;2,39908
1448,11567;2,39469
1446,06451;2,38928
1444,01336;2,38644
1441,9622;2,38404
1439,91105;2,37714
1437,85989;2,36498
1435,80874;2,35206
1433,75758;2,34309
1431,70643;2,33558
1429,65527;2,3267
1427,60412;2,31763
1425,55296;2,30924
1423,5018;2,30199
1421,45065;2,29546
1419,39949;2,28739
1417,34834;2,27911
1415,29718;2,27349
1413,24603;2,26993
1411,19487;2,26939
1409,14372;2,27426
1407,09256;2,28579
1405,04141;2,30442
1402,99025;2,32573
1400,9391;2,34336
1398,88794;2,35748
1396,83679;2,37283
1394,78563;2,39312
1392,73447;2,41433
1390,68332;2,42914
1388,63216;2,43913
1386,58101;2,45099
1384,52985;2,46566
1382,4787;2,47946
1380,42754;2,49024
1378,37639;2,49874
1376,32523;2,50624
1374,27408;2,51187
1372,22292;2,51597
1370,17177;2,52089
1368,12061;2,52614
1366,06946;2,52966
1364,0183;2,53176
1361,96714;2,53487
1359,91599;2,53912
1357,86483;2,54201
1355,81368;2,54453
1353,76252;2,54864
1351,71137;2,55055
1349,66021;2,54773
1347,60906;2,54514
1345,5579;2,54523
1343,50675;2,54523
1341,45559;2,54509
1339,40444;2,54603
1337,35328;2,54599
1335,30213;2,54248
1333,25097;2,53744
1331,19981;2,53572
1329,14866;2,53711
1327,0975;2,53727
1325,04635;2,53618
1322,99519;2,53469
1320,94404;2,53054
1318,89288;2,52435
1316,84173;2,52069
1314,79057;2,52043
1312,73942;2,51927
1310,68826;2,51735
1308,63711;2,51712
1306,58595;2,51439
1304,5348;2,50985
1302,48364;2,50913
1300,43248;2,50859
1298,38133;2,50411
1296,33017;2,49855
1294,27902;2,49573
1292,22786;2,49713
1290,17671;2,50032
1288,12555;2,50195
1286,0744;2,5019
1284,02324;2,50114
1281,97209;2,50026
1279,92093;2,49971
1277,86978;2,49763
1275,81862;2,49384
1273,76747;2,49155
1271,71631;2,49174
1269,66515;2,49385
1267,614;2,49765
1265,56284;2,50177
1263,51169;2,50421
1261,46053;2,50257
1259,40938;2,49769
1257,35822;2,49534
1255,30707;2,49772
1253,25591;2,50066
1251,20476;2,50091
1249,1536;2,49946
1247,10245;2,49817
1245,05129;2,49868
1243,00013;2,50205
1240,94898;2,50813
1238,89782;2,5132
1236,84667;2,51346
1234,79551;2,51222
1232,74436;2,51427
1230,6932;2,51899
1228,64205;2,51937
1226,59089;2,51399
1224,53974;2,50968
1222,48858;2,50798
1220,43743;2,50818
1218,38627;2,50992
1216,33512;2,51102
1214,28396;2,51259
1212,2328;2,51619
1210,18165;2,51963
1208,13049;2,52136
1206,07934;2,52288
1204,02818;2,52652
1201,97703;2,53089
1199,92587;2,53509
1197,87472;2,54238
1195,82356;2,54928
1193,77241;2,5523
1191,72125;2,55538
1189,6701;2,56133
1187,61894;2,56824
1185,56779;2,57135
1183,51663;2,57518
1181,46547;2,58277
1179,41432;2,58324
1177,36316;2,58164
1175,31201;2,5869
1173,26085;2,58795
1171,2097;2,58543
1169,15854;2,58933
1167,10739;2,59243
1165,05623;2,58846
1163,00508;2,58558
1160,95392;2,58656
1158,90277;2,58559
1156,85161;2,5834
1154,80046;2,5821
1152,7493;2,57812
1150,69814;2,57494
1148,64699;2,57724
1146,59583;2,57893
1144,54468;2,57714
1142,49352;2,57424
1140,44237;2,57163
1138,39121;2,57231
1136,34006;2,57527
1134,2889;2,57737
1132,23775;2,57785
1130,18659;2,57576
1128,13544;2,57459
1126,08428;2,57857
1124,03313;2,58462
1121,98197;2,58888
1119,93081;2,58852
1117,87966;2,58764
1115,8285;2,59084
1113,77735;2,5929
1111,72619;2,59364
1109,67504;2,59958
1107,62388;2,60877
1105,57273;2,61847
1103,52157;2,63118
1101,47042;2,64378
1099,41926;2,65591
1097,36811;2,66929
1095,31695;2,67903
1093,2658;2,68598
1091,21464;2,69597
1089,16348;2,70767
1087,11233;2,71347
1085,06117;2,71121
1083,01002;2,70115
1080,95886;2,68648
1078,90771;2,67271
1076,85655;2,6613
1074,8054;2,65531
1072,75424;2,65495
1070,70309;2,65547
1068,65193;2,65631
1066,60078;2,65728
1064,54962;2,65813
1062,49847;2,66079
1060,44731;2,66114
1058,39615;2,65607
1056,345;2,64902
1054,29384;2,64629
1052,24269;2,65064
1050,19153;2,65645
1048,14038;2,66123
1046,08922;2,66586
1044,03807;2,66712
1041,98691;2,66697
1039,93576;2,67293
1037,8846;2,68169
1035,83345;2,68478
1033,78229;2,68714
1031,73114;2,6959
1029,67998;2,7044
1027,62882;2,70386
1025,57767;2,70417
1023,52651;2,71653
1021,47536;2,7297
1019,4242;2,73819
1017,37305;2,74827
1015,32189;2,74906
1013,27074;2,73629
1011,21958;2,71892
1009,16843;2,70674
1007,11727;2,71114
1005,06612;2,72339
1003,01496;2,72935
1000,96381;2,73587
998,91265;2,74198
996,86149;2,7401
994,81034;2,73574
992,75918;2,73201
990,70803;2,73051
988,65687;2,72996
986,60572;2,73106
984,55456;2,7371
982,50341;2,74161
980,45225;2,74213
978,4011;2,74326
976,34994;2,74096
974,29879;2,72985
972,24763;2,72016
970,19647;2,7256
968,14532;2,73956
966,09416;2,7464
964,04301;2,74562
961,99185;2,74222
959,9407;2,7333
957,88954;2,72306
955,83839;2,71957
953,78723;2,7253
951,73608;2,73649
949,68492;2,74395
947,63377;2,74622
945,58261;2,75173
943,53146;2,75849
941,4803;2,75965
939,42914;2,75857
937,37799;2,7583
935,32683;2,75437
933,27568;2,75073
931,22452;2,7535
929,17337;2,75152
927,12221;2,73595
925,07106;2,71277
923,0199;2,70019
920,96875;2,70705
918,91759;2,71773
916,86644;2,72783
914,81528;2,7403
912,76413;2,73951
910,71297;2,72479
908,66181;2,71396
906,61066;2,71451
904,5595;2,71917
902,50835;2,72309
900,45719;2,72939
898,40604;2,73018
896,35488;2,71997
894,30373;2,70786
892,25257;2,68446
890,20142;2,63453
888,15026;2,59022
886,09911;2,59003
884,04795;2,62768
881,9968;2,67076
879,94564;2,69113
877,89448;2,69094
875,84333;2,68173
873,79217;2,65874
871,74102;2,64003
869,68986;2,65615
867,63871;2,70125
865,58755;2,73156
863,5364;2,73718
861,48524;2,74909
859,43409;2,7649
857,38293;2,76023
855,33178;2,74202
853,28062;2,73611
851,22947;2,7535
849,17831;2,77666
847,12715;2,76726
845,076;2,73869
843,02484;2,7221
840,97369;2,71002
838,92253;2,70252
836,87138;2,70317
834,82022;2,70009
832,76907;2,69325
830,71791;2,69695
828,66676;2,71261
826,6156;2,72821
824,56445;2,73803
822,51329;2,74489
820,46214;2,75036
818,41098;2,74963
816,35982;2,74757
814,30867;2,75483
812,25751;2,76549
810,20636;2,75761
808,1552;2,73379
806,10405;2,71968
804,05289;2,72313
802,00174;2,7312
799,95058;2,73027
797,89943;2,71916
795,84827;2,71343
793,79712;2,72521
791,74596;2,74772
789,69481;2,75524
787,64365;2,74018
785,59249;2,73392
783,54134;2,74542
781,49018;2,7616
779,43903;2,77971
777,38787;2,7921
775,33672;2,81315
773,28556;2,84523
771,23441;2,85513
769,18325;2,83995
767,1321;2,81096
765,08094;2,78776
763,02979;2,77376
760,97863;2,75836
758,92748;2,75687
756,87632;2,77268
754,82516;2,78832
752,77401;2,80565
750,72285;2,82845
748,6717;2,83828
746,62054;2,8276
744,56939;2,81691
742,51823;2,81348
740,46708;2,80787
738,41592;2,8086
736,36477;2,81138
734,31361;2,80749
732,26246;2,82252
730,2113;2,84453
728,16015;2,8431
726,10899;2,85652
724,05783;2,88619
722,00668;2,90283
719,95552;2,92514
717,90437;2,96388
715,85321;2,97998
713,80206;2,94106
711,7509;2,89
709,69975;2,87552
707,64859;2,87547
705,59744;2,8614
703,54628;2,83846
701,49513;2,81905
699,44397;2,81501
697,39281;2,82283
695,34166;2,82542
693,2905;2,81535
691,23935;2,79226
689,18819;2,76249
687,13704;2,74598
685,08588;2,7483
683,03473;2,75327
680,98357;2,75609
678,93242;2,76406
676,88126;2,77361
674,83011;2,78514
672,77895;2,7983
670,7278;2,80112
668,67664;2,79947
666,62548;2,81116
664,57433;2,81089
662,52317;2,78682
660,47202;2,76991
658,42086;2,78152
656,36971;2,80977
654,31855;2,82465
652,2674;2,81885
650,21624;2,81941
648,16509;2,83377
646,11393;2,84388
644,06278;2,84447
642,01162;2,83965
639,96047;2,83596
637,90931;2,84786
635,85815;2,88466
633,807;2,92187
631,75584;2,91373
629,70469;2,87094
627,65353;2,84784
625,60238;2,845
623,55122;2,84795
621,50007;2,86544
619,44891;2,87502
617,39776;2,86262
615,3466;2,87097
613,29545;2,91585
611,24429;2,96911
609,19314;3,02282
607,14198;3,09029
605,09082;3,08453
603,03967;3,00687
600,98851;2,94367
598,93736;2,93125
596,8862;2,9506
594,83505;2,95921
592,78389;2,94277
590,73274;2,91588
588,68158;2,89359
586,63043;2,87343
584,57927;2,8638
582,52812;2,88288
580,47696;2,93783
578,42581;3,00131
576,37465;3,03895
574,32349;3,04211
572,27234;3,04457
570,22118;3,06266
568,17003;3,03082
566,11887;2,96548
564,06772;2,9564
562,01656;2,98855
559,96541;2,99437
557,91425;3,01525
555,8631;3,10999
553,81194;3,20954
551,76079;3,19592
549,70963;3,18422
547,65848;3,25781
545,60732;3,28994
543,55616;3,22867
541,50501;3,09472
539,45385;2,99419
537,4027;2,98643
535,35154;3,04292
533,30039;3,10037
531,24923;3,12031
529,19808;3,0842
527,14692;3,07739
525,09577;3,12221
523,04461;3,10931
520,99346;3,02699
518,9423;2,98358
516,89115;2,97261
514,83999;3,00349
512,78883;3,09673
510,73768;3,18017
508,68652;3,09531
506,63537;2,96105
504,58421;2,94175
502,53306;3,03238
500,4819;3,13834
498,43075;3,26398
496,37959;3,32726
494,32844;3,23747
492,27728;3,16559
490,22613;3,14902
488,17497;3,15618
486,12382;3,17106
484,07266;3,18699
482,0215;3,14132
479,97035;3,04515
477,91919;2,99244
475,86804;2,98028
473,81688;2,96026
471,76573;2,90462
469,71457;2,86323
467,66342;2,90348
465,61226;2,99758
463,56111;2,98984
461,50995;2,88627
459,4588;2,84801
457,40764;2,91172
455,35649;2,98399
453,30533;2,99812
451,25417;2,96937
449,20302;2,94763
447,15186;2,92357
445,10071;2,86398
443,04955;2,83157
440,9984;2,83997
438,94724;2,86934
436,89609;2,99224
434,84493;3,19967
432,79378;3,229
430,74262;3,11356
428,69147;3,06091
426,64031;3,02569
424,58916;3,05114
422,538;3,19068
420,48684;3,16021
418,43569;2,9976
416,38453;2,9958
414,33338;3,10864
412,28222;3,15092
410,23107;3,04979
408,17991;2,827
406,12876;2,64454
404,0776;2,62044
402,02645;2,67881
399,97529;2,70471
