3997.70175;1.81011
3995.65060;1.81046
"3993.59944 3991.54829";"1.81108 1.81218"
3989,49713;1,81377
3987,44598;1,81601
3985,39482;1,81811
3983,34367;1,82
3981,29251;1,82323
3979,24136;1,8274
3977,1902;1,83145
3975,13905;1,83519
3973,08789;1,83839
3971,03673;1,84116
3968,98558;1,84322
3966,93442;1,84364
3964,88327;1,84202
3962,83211;1,84037
3960,78096;1,84093
3958,7298;1,84258
3956,67865;1,84392
3954,62749;1,84501
3952,57634;1,8457
3950,52518;1,84622
3948,47403;1,84687
3946,42287;1,84743
3944,37172;1,84778
3942,32056;1,84797
3940,2694;1,84831
3938,21825;1,84876
3936,16709;1,84884
3934,11594;1,84828
3932,06478;1,84693
3930,01363;1,84548
3927,96247;1,84503
3925,91132;1,84406
3923,86016;1,84142
3921,80901;1,83917
3919,75785;1,83831
3917,7067;1,83699
3915,65554;1,83421
3913,60439;1,83173
3911,55323;1,83115
3909,50207;1,83252
3907,45092;1,83519
3905,39976;1,83843
3903,34861;1,84183
3901,29745;1,84484
3899,2463;1,84702
3897,19514;1,84978
3895,14399;1,85478
3893,09283;1,86173
3891,04168;1,86915
3888,99052;1,8763
3886,93937;1,8826
3884,88821;1,88853
3882,83706;1,89464
3880,7859;1,89947
3878,73474;1,90189
3876,68359;1,90205
3874,63243;1,89977
3872,58128;1,8944
3870,53012;1,88404
3868,47897;1,87217
3866,42781;1,86443
3864,37666;1,85863
3862,3255;1,85219
3860,27435;1,84752
3858,22319;1,84701
3856,17204;1,84847
3854,12088;1,84706
3852,06973;1,84384
3850,01857;1,84401
3847,96741;1,84741
3845,91626;1,85067
3843,8651;1,85155
3841,81395;1,85158
3839,76279;1,8525
3837,71164;1,85381
3835,66048;1,85586
3833,60933;1,85775
3831,55817;1,85794
3829,50702;1,85712
3827,45586;1,85509
3825,40471;1,85134
3823,35355;1,84593
3821,3024;1,83917
3819,25124;1,83495
3817,20008;1,83244
3815,14893;1,82754
3813,09777;1,82262
3811,04662;1,82064
3808,99546;1,8202
3806,94431;1,81872
3804,89315;1,81713
3802,842;1,8165
3800,79084;1,81724
3798,73969;1,81869
3796,68853;1,81792
3794,63738;1,81589
3792,58622;1,81502
3790,53506;1,81467
3788,48391;1,81373
3786,43275;1,8125
3784,3816;1,81198
3782,33044;1,81303
3780,27929;1,81434
3778,22813;1,81439
3776,17698;1,81449
3774,12582;1,81621
3772,07467;1,81895
3770,02351;1,82125
3767,97236;1,82253
3765,9212;1,82229
3763,87005;1,82201
3761,81889;1,82359
3759,76773;1,82638
3757,71658;1,82844
3755,66542;1,82999
3753,61427;1,83249
3751,56311;1,83581
3749,51196;1,84019
3747,4608;1,84581
3745,40965;1,84951
3743,35849;1,85143
3741,30734;1,85499
3739,25618;1,85964
3737,20503;1,8634
3735,15387;1,86641
3733,10272;1,86927
3731,05156;1,87204
3729,0004;1,87546
3726,94925;1,87874
3724,89809;1,88181
3722,84694;1,88573
3720,79578;1,89006
3718,74463;1,89385
3716,69347;1,89808
3714,64232;1,90422
3712,59116;1,91224
3710,54001;1,92035
3708,48885;1,92689
3706,4377;1,93347
3704,38654;1,94432
3702,33539;1,96258
3700,28423;1,9864
3698,23307;2,00934
3696,18192;2,02738
3694,13076;2,03919
3692,07961;2,04347
3690,02845;2,04126
3687,9773;2,03859
3685,92614;2,04075
3683,87499;2,04723
3681,82383;2,05755
3679,77268;2,07204
3677,72152;2,08984
3675,67037;2,10988
3673,61921;2,1305
3671,56806;2,14929
3669,5169;2,16698
3667,46574;2,1836
3665,41459;2,19854
3663,36343;2,21344
3661,31228;2,2296
3659,26112;2,24725
3657,20997;2,26509
3655,15881;2,28348
3653,10766;2,30662
3651,0565;2,33909
3649,00535;2,37865
3646,95419;2,41141
3644,90304;2,42865
3642,85188;2,43415
3640,80073;2,43597
3638,74957;2,4397
3636,69841;2,44498
3634,64726;2,44917
3632,5961;2,45524
3630,54495;2,46733
3628,49379;2,48233
3626,44264;2,49327
3624,39148;2,49975
3622,34033;2,50585
3620,28917;2,51225
3618,23802;2,51727
3616,18686;2,52207
3614,13571;2,53072
3612,08455;2,54683
3610,0334;2,56669
3607,98224;2,58193
3605,93108;2,58955
3603,87993;2,59244
3601,82877;2,59855
3599,77762;2,61388
3597,72646;2,62834
3595,67531;2,63071
3593,62415;2,63312
3591,573;2,64805
3589,52184;2,66601
3587,47069;2,67692
3585,41953;2,6864
3583,36838;2,69794
3581,31722;2,70318
3579,26607;2,70319
3577,21491;2,71227
3575,16375;2,73144
3573,1126;2,7476
3571,06144;2,75649
3569,01029;2,75926
3566,95913;2,75509
3564,90798;2,74967
3562,85682;2,75151
3560,80567;2,7674
3558,75451;2,79056
3556,70336;2,80374
3554,6522;2,80956
3552,60105;2,82112
3550,54989;2,837
3548,49874;2,85337
3546,44758;2,86427
3544,39642;2,85974
3542,34527;2,8438
3540,29411;2,82875
3538,24296;2,82403
3536,1918;2,83772
3534,14065;2,86656
3532,08949;2,88734
3530,03834;2,88361
3527,98718;2,87467
3525,93603;2,88271
3523,88487;2,90234
3521,83372;2,91454
3519,78256;2,90723
3517,73141;2,89555
3515,68025;2,90479
3513,62909;2,93255
3511,57794;2,95217
3509,52678;2,94915
3507,47563;2,93696
3505,42447;2,93245
3503,37332;2,93521
3501,32216;2,94298
3499,27101;2,95213
3497,21985;2,95096
3495,1687;2,95104
3493,11754;2,96785
3491,06639;2,97997
3489,01523;2,97352
3486,96407;2,97268
3484,91292;2,98699
3482,86176;2,99983
3480,81061;3,00435
3478,75945;2,99828
3476,7083;2,98038
3474,65714;2,9702
3472,60599;2,98216
3470,55483;3,00772
3468,50368;3,02843
3466,45252;3,02248
3464,40137;2,99872
3462,35021;2,99254
3460,29906;3,00994
3458,2479;3,02807
3456,19674;3,02817
3454,14559;3,01439
3452,09443;3,01034
3450,04328;3,02265
3447,99212;3,03828
3445,94097;3,04746
3443,88981;3,03673
3441,83866;2,99065
3439,7875;2,93493
3437,73635;2,90481
3435,68519;2,89193
3433,63404;2,87125
3431,58288;2,84851
3429,53173;2,83166
3427,48057;2,81846
3425,42941;2,81484
3423,37826;2,8277
3421,3271;2,85183
3419,27595;2,8701
3417,22479;2,87544
3415,17364;2,88315
3413,12248;2,90124
3411,07133;2,91536
3409,02017;2,91337
3406,96902;2,9057
3404,91786;2,90625
3402,86671;2,91202
3400,81555;2,91177
3398,7644;2,90724
3396,71324;2,91145
3394,66208;2,92027
3392,61093;2,91793
3390,55977;2,90986
3388,50862;2,91641
3386,45746;2,9368
3384,40631;2,94809
3382,35515;2,94749
3380,304;2,95381
3378,25284;2,96245
3376,20169;2,95856
3374,15053;2,95926
3372,09938;2,98137
3370,04822;2,99406
3367,99707;2,96821
3365,94591;2,93793
3363,89475;2,93282
3361,8436;2,93822
3359,79244;2,94427
3357,74129;2,95363
3355,69013;2,95985
3353,63898;2,95898
3351,58782;2,95965
3349,53667;2,95822
3347,48551;2,9447
3345,43436;2,93113
3343,3832;2,92865
3341,33205;2,92271
3339,28089;2,90557
3337,22974;2,89828
3335,17858;2,90799
3333,12742;2,91727
3331,07627;2,91503
3329,02511;2,90676
3326,97396;2,90581
3324,9228;2,9156
3322,87165;2,92592
3320,82049;2,93122
3318,76934;2,93456
3316,71818;2,93818
3314,66703;2,94003
3312,61587;2,93574
3310,56472;2,93257
3308,51356;2,93266
3306,46241;2,92253
3304,41125;2,91031
3302,36009;2,90615
3300,30894;2,90213
3298,25778;2,90039
3296,20663;2,9137
3294,15547;2,92981
3292,10432;2,92671
3290,05316;2,9114
3288,00201;2,89971
3285,95085;2,90252
3283,8997;2,91889
3281,84854;2,93349
3279,79739;2,94094
3277,74623;2,9344
3275,69508;2,91395
3273,64392;2,9073
3271,59276;2,92016
3269,54161;2,92636
3267,49045;2,91615
3265,4393;2,90281
3263,38814;2,89859
3261,33699;2,89668
3259,28583;2,88394
3257,23468;2,86865
3255,18352;2,86052
3253,13237;2,85799
3251,08121;2,86102
3249,03006;2,86829
3246,9789;2,87286
3244,92775;2,86774
3242,87659;2,85831
3240,82543;2,855
3238,77428;2,85365
3236,72312;2,8452
3234,67197;2,83427
3232,62081;2,83304
3230,56966;2,84104
3228,5185;2,84459
3226,46735;2,83744
3224,41619;2,8288
3222,36504;2,8306
3220,31388;2,84156
3218,26273;2,85355
3216,21157;2,86007
3214,16041;2,85736
3212,10926;2,85224
3210,0581;2,84453
3208,00695;2,83028
3205,95579;2,822
3203,90464;2,82549
3201,85348;2,83193
3199,80233;2,83694
3197,75117;2,83591
3195,70002;2,82653
3193,64886;2,81781
3191,59771;2,81286
3189,54655;2,8075
3187,4954;2,80413
3185,44424;2,80564
3183,39308;2,80825
3181,34193;2,81134
3179,29077;2,81445
3177,23962;2,81303
3175,18846;2,80739
3173,13731;2,80169
3171,08615;2,79822
3169,035;2,79484
3166,98384;2,78589
3164,93269;2,7706
3162,88153;2,75805
3160,83038;2,75684
3158,77922;2,76213
3156,72807;2,76318
3154,67691;2,76004
3152,62575;2,7628
3150,5746;2,77247
3148,52344;2,77954
3146,47229;2,7767
3144,42113;2,76798
3142,36998;2,76298
3140,31882;2,76211
3138,26767;2,75863
3136,21651;2,75474
3134,16536;2,75266
3132,1142;2,74282
3130,06305;2,7288
3128,01189;2,72603
3125,96074;2,73245
3123,90958;2,7351
3121,85842;2,73011
3119,80727;2,72074
3117,75611;2,7149
3115,70496;2,72062
3113,6538;2,7317
3111,60265;2,73584
3109,55149;2,73608
3107,50034;2,74008
3105,44918;2,742
3103,39803;2,74158
3101,34687;2,74758
3099,29572;2,75277
3097,24456;2,74326
3095,19341;2,72681
3093,14225;2,7206
3091,09109;2,72616
3089,03994;2,73398
3086,98878;2,73753
3084,93763;2,73792
3082,88647;2,73749
3080,83532;2,73361
3078,78416;2,72734
3076,73301;2,72469
3074,68185;2,72334
3072,6307;2,72139
3070,57954;2,72348
3068,52839;2,72806
3066,47723;2,73116
3064,42608;2,73146
3062,37492;2,72835
3060,32376;2,72645
3058,27261;2,72582
3056,22145;2,71839
3054,1703;2,71
3052,11914;2,71006
3050,06799;2,71391
3048,01683;2,71664
3045,96568;2,71797
3043,91452;2,7158
3041,86337;2,70952
3039,81221;2,70234
3037,76106;2,6992
3035,7099;2,70219
3033,65875;2,70533
3031,60759;2,70268
3029,55643;2,69745
3027,50528;2,69361
3025,45412;2,69252
3023,40297;2,69619
3021,35181;2,70142
3019,30066;2,69859
3017,2495;2,68986
3015,19835;2,68731
3013,14719;2,6887
3011,09604;2,68764
3009,04488;2,68892
3006,99373;2,6948
3004,94257;2,69985
3002,89142;2,70115
3000,84026;2,70282
2998,7891;2,71071
2996,73795;2,7202
2994,68679;2,72163
2992,63564;2,72025
2990,58448;2,72348
2988,53333;2,72927
2986,48217;2,73623
2984,43102;2,74336
2982,37986;2,75136
2980,32871;2,76218
2978,27755;2,77529
2976,2264;2,78285
2974,17524;2,77648
2972,12409;2,76788
2970,07293;2,77161
2968,02177;2,78391
2965,97062;2,79404
2963,91946;2,79462
2961,86831;2,78853
2959,81715;2,7853
2957,766;2,785
2955,71484;2,7834
2953,66369;2,77848
2951,61253;2,77054
2949,56138;2,76166
2947,51022;2,75248
2945,45907;2,74596
2943,40791;2,74553
2941,35675;2,75069
2939,3056;2,75969
2937,25444;2,76858
2935,20329;2,77119
2933,15213;2,76598
2931,10098;2,75905
2929,04982;2,75892
2926,99867;2,76498
2924,94751;2,76758
2922,89636;2,76282
2920,8452;2,7565
2918,79405;2,75379
2916,74289;2,75147
2914,69174;2,75057
2912,64058;2,7544
2910,58942;2,75409
2908,53827;2,74284
2906,48711;2,72881
2904,43596;2,72404
2902,3848;2,72447
2900,33365;2,71994
2898,28249;2,7152
2896,23134;2,71913
2894,18018;2,72181
2892,12903;2,71541
2890,07787;2,71283
2888,02672;2,7198
2885,97556;2,72511
2883,92441;2,72431
2881,87325;2,72215
2879,82209;2,72245
2877,77094;2,72963
2875,71978;2,73977
2873,66863;2,73972
2871,61747;2,72717
2869,56632;2,71358
2867,51516;2,70482
2865,46401;2,69439
2863,41285;2,68245
2861,3617;2,67675
2859,31054;2,67622
2857,25939;2,67081
2855,20823;2,65832
2853,15708;2,64806
2851,10592;2,64293
2849,05476;2,63648
2847,00361;2,62709
2844,95245;2,62195
2842,9013;2,61884
2840,85014;2,61245
2838,79899;2,61052
2836,74783;2,61179
2834,69668;2,60547
2832,64552;2,59761
2830,59437;2,59774
2828,54321;2,59745
2826,49206;2,58782
2824,4409;2,57086
2822,38975;2,55038
2820,33859;2,53467
2818,28743;2,52565
2816,23628;2,51692
2814,18512;2,50601
2812,13397;2,49438
2810,08281;2,48516
2808,03166;2,47829
2805,9805;2,47215
2803,92935;2,46625
2801,87819;2,4583
2799,82704;2,44971
2797,77588;2,44494
2795,72473;2,44158
2793,67357;2,43658
2791,62242;2,43222
2789,57126;2,42929
2787,5201;2,4252
2785,46895;2,42058
2783,41779;2,418
2781,36664;2,41462
2779,31548;2,40969
2777,26433;2,40583
2775,21317;2,40209
2773,16202;2,39747
2771,11086;2,39442
2769,05971;2,39492
2767,00855;2,39581
2764,9574;2,3927
2762,90624;2,38867
2760,85509;2,38806
2758,80393;2,38672
2756,75277;2,38363
2754,70162;2,38241
2752,65046;2,37869
2750,59931;2,3721
2748,54815;2,3689
2746,497;2,36735
2744,44584;2,36399
2742,39469;2,36044
2740,34353;2,35733
2738,29238;2,35468
2736,24122;2,35308
2734,19007;2,35211
2732,13891;2,35069
2730,08776;2,34821
2728,0366;2,34555
2725,98544;2,34384
2723,93429;2,34182
2721,88313;2,33922
2719,83198;2,3378
2717,78082;2,33673
2715,72967;2,3345
2713,67851;2,3317
2711,62736;2,32928
2709,5762;2,32853
2707,52505;2,32862
2705,47389;2,32669
2703,42274;2,32367
2701,37158;2,32142
2699,32043;2,31971
2697,26927;2,31906
2695,21811;2,32014
2693,16696;2,32127
2691,1158;2,32028
2689,06465;2,31858
2687,01349;2,31804
2684,96234;2,31895
2682,91118;2,32128
2680,86003;2,32272
2678,80887;2,32255
2676,75772;2,32432
2674,70656;2,32864
2672,65541;2,33104
2670,60425;2,33056
2668,55309;2,33104
2666,50194;2,33423
2664,45078;2,33817
2662,39963;2,34047
2660,34847;2,34132
2658,29732;2,34158
2656,24616;2,34221
2654,19501;2,34481
2652,14385;2,34748
2650,0927;2,34764
2648,04154;2,34903
2645,99039;2,35458
2643,93923;2,36047
2641,88808;2,36382
2639,83692;2,36717
2637,78576;2,37248
2635,73461;2,3792
2633,68345;2,38519
2631,6323;2,38859
2629,58114;2,3924
2627,52999;2,39837
2625,47883;2,4061
2623,42768;2,41688
2621,37652;2,42746
2619,32537;2,43368
2617,27421;2,43994
2615,22306;2,45061
2613,1719;2,46115
2611,12075;2,46842
2609,06959;2,47693
2607,01843;2,48909
2604,96728;2,49877
2602,91612;2,50232
2600,86497;2,50376
2598,81381;2,50693
2596,76266;2,51116
2594,7115;2,51081
2592,66035;2,50802
2590,60919;2,51231
2588,55804;2,52036
2586,50688;2,51972
2584,45573;2,51224
2582,40457;2,50795
2580,35342;2,5073
2578,30226;2,50952
2576,2511;2,51768
2574,19995;2,52933
2572,14879;2,53951
2570,09764;2,55124
2568,04648;2,56832
2565,99533;2,58688
2563,94417;2,60148
2561,89302;2,61174
2559,84186;2,62336
2557,79071;2,63309
2555,73955;2,63356
2553,6884;2,6332
2551,63724;2,63675
2549,58609;2,6342
2547,53493;2,61956
2545,48377;2,60368
2543,43262;2,59846
2541,38146;2,60137
2539,33031;2,60686
2537,27915;2,61099
2535,228;2,61298
2533,17684;2,61917
2531,12569;2,63038
2529,07453;2,63992
2527,02338;2,64789
2524,97222;2,65685
2522,92107;2,66361
2520,86991;2,67105
2518,81876;2,6807
2516,7676;2,6845
2514,71644;2,6837
2512,66529;2,688
2510,61413;2,70182
2508,56298;2,72112
2506,51182;2,73228
2504,46067;2,72911
2502,40951;2,72565
2500,35836;2,7251
2498,3072;2,71375
2496,25605;2,68867
2494,20489;2,6571
2492,15374;2,6238
2490,10258;2,58745
2488,05143;2,55121
2486,00027;2,52306
2483,94911;2,50159
2481,89796;2,4799
2479,8468;2,45623
2477,79565;2,43502
2475,74449;2,41923
2473,69334;2,40588
2471,64218;2,39125
2469,59103;2,37581
2467,53987;2,36213
2465,48872;2,35039
2463,43756;2,33932
2461,38641;2,32911
2459,33525;2,32037
2457,2841;2,31153
2455,23294;2,30187
2453,18178;2,29281
2451,13063;2,28481
2449,07947;2,27802
2447,02832;2,27275
2444,97716;2,26853
2442,92601;2,26455
2440,87485;2,26086
2438,8237;2,25687
2436,77254;2,2516
2434,72139;2,24739
2432,67023;2,24566
2430,61908;2,24394
2428,56792;2,24136
2426,51677;2,23905
2424,46561;2,23663
2422,41445;2,23319
2420,3633;2,22942
2418,31214;2,22741
2416,26099;2,22688
2414,20983;2,22454
2412,15868;2,22085
2410,10752;2,21896
2408,05637;2,21751
2406,00521;2,21444
2403,95406;2,21103
2401,9029;2,20802
2399,85175;2,20522
2397,80059;2,20359
2395,74944;2,20359
2393,69828;2,20414
2391,64712;2,20401
2389,59597;2,20331
2387,54481;2,20243
2385,49366;2,20145
2383,4425;2,20103
2381,39135;2,20163
2379,34019;2,20235
2377,28904;2,20209
2375,23788;2,20169
2373,18673;2,20318
2371,13557;2,2082
2369,08442;2,21637
2367,03326;2,22289
2364,9821;2,2225
2362,93095;2,21617
2360,87979;2,20947
2358,82864;2,20656
2356,77748;2,2072
2354,72633;2,20831
2352,67517;2,20885
2350,62402;2,21092
2348,57286;2,21359
2346,52171;2,21274
2344,47055;2,2081
2342,4194;2,20532
2340,36824;2,20758
2338,31709;2,21146
2336,26593;2,2132
2334,21477;2,21367
2332,16362;2,21413
2330,11246;2,21362
2328,06131;2,21261
2326,01015;2,21259
2323,959;2,21277
2321,90784;2,21185
2319,85669;2,21099
2317,80553;2,21081
2315,75438;2,20999
2313,70322;2,20905
2311,65207;2,2093
2309,60091;2,20959
2307,54976;2,20889
2305,4986;2,20866
2303,44744;2,20934
2301,39629;2,20944
2299,34513;2,20931
2297,29398;2,20996
2295,24282;2,21043
2293,19167;2,21015
2291,14051;2,21006
2289,08936;2,21034
2287,0382;2,21056
2284,98705;2,21115
2282,93589;2,21213
2280,88474;2,21258
2278,83358;2,21273
2276,78243;2,21387
2274,73127;2,21574
2272,68011;2,21724
2270,62896;2,21835
2268,5778;2,21932
2266,52665;2,22041
2264,47549;2,22172
2262,42434;2,22301
2260,37318;2,22498
2258,32203;2,2271
2256,27087;2,22783
2254,21972;2,22704
2252,16856;2,22561
2250,11741;2,22494
2248,06625;2,22583
2246,0151;2,22753
2243,96394;2,22898
2241,91278;2,2298
2239,86163;2,23062
2237,81047;2,23269
2235,75932;2,23554
2233,70816;2,23861
2231,65701;2,2417
2229,60585;2,24341
2227,5547;2,24333
2225,50354;2,24269
2223,45239;2,24284
2221,40123;2,24294
2219,35008;2,24254
2217,29892;2,24344
2215,24777;2,24586
2213,19661;2,24854
2211,14545;2,25125
2209,0943;2,25428
2207,04314;2,2564
2204,99199;2,25738
2202,94083;2,25835
2200,88968;2,25823
2198,83852;2,25673
2196,78737;2,25561
2194,73621;2,25547
2192,68506;2,25558
2190,6339;2,25654
2188,58275;2,25984
2186,53159;2,26381
2184,48044;2,2647
2182,42928;2,26266
2180,37812;2,26114
2178,32697;2,26224
2176,27581;2,26572
2174,22466;2,26861
2172,1735;2,26866
2170,12235;2,2693
2168,07119;2,27253
2166,02004;2,27499
2163,96888;2,27548
2161,91773;2,27658
2159,86657;2,28019
2157,81542;2,28533
2155,76426;2,29057
2153,71311;2,29568
2151,66195;2,29873
2149,61079;2,29906
2147,55964;2,29917
2145,50848;2,29919
2143,45733;2,29781
2141,40617;2,29646
2139,35502;2,29654
2137,30386;2,29594
2135,25271;2,29364
2133,20155;2,2917
2131,1504;2,29038
2129,09924;2,28888
2127,04809;2,28731
2124,99693;2,28534
2122,94578;2,28209
2120,89462;2,27793
2118,84346;2,27424
2116,79231;2,27121
2114,74115;2,26838
2112,69;2,26619
2110,63884;2,26536
2108,58769;2,26528
2106,53653;2,26606
2104,48538;2,26783
2102,43422;2,26967
2100,38307;2,27039
2098,33191;2,26941
2096,28076;2,26885
2094,2296;2,26934
2092,17844;2,26903
2090,12729;2,26855
2088,07613;2,27038
2086,02498;2,27285
2083,97382;2,27327
2081,92267;2,27405
2079,87151;2,2775
2077,82036;2,28159
2075,7692;2,2836
2073,71805;2,28298
2071,66689;2,28214
2069,61574;2,28373
2067,56458;2,28693
2065,51343;2,28901
2063,46227;2,28974
2061,41111;2,29064
2059,35996;2,29201
2057,3088;2,29338
2055,25765;2,29532
2053,20649;2,2979
2051,15534;2,29874
2049,10418;2,29811
2047,05303;2,29957
2045,00187;2,30267
2042,95072;2,30414
2040,89956;2,30448
2038,84841;2,30519
2036,79725;2,30487
2034,7461;2,30423
2032,69494;2,30559
2030,64378;2,30839
2028,59263;2,31076
2026,54147;2,30968
2024,49032;2,30509
2022,43916;2,30233
2020,38801;2,3041
2018,33685;2,30741
2016,2857;2,3099
2014,23454;2,31233
2012,18339;2,31539
2010,13223;2,31826
2008,08108;2,31972
2006,02992;2,32002
2003,97877;2,32155
2001,92761;2,32584
1999,87645;2,33002
1997,8253;2,3307
1995,77414;2,33064
1993,72299;2,33311
1991,67183;2,33684
1989,62068;2,3412
1987,56952;2,34583
1985,51837;2,34922
1983,46721;2,35063
1981,41606;2,35103
1979,3649;2,35409
1977,31375;2,36018
1975,26259;2,3655
1973,21144;2,36951
1971,16028;2,37338
1969,10912;2,37775
1967,05797;2,38374
1965,00681;2,39089
1962,95566;2,39743
1960,9045;2,40287
1958,85335;2,40708
1956,80219;2,41049
1954,75104;2,41525
1952,69988;2,42131
1950,64873;2,42567
1948,59757;2,4279
1946,54642;2,42958
1944,49526;2,43223
1942,44411;2,43777
1940,39295;2,44502
1938,34179;2,45136
1936,29064;2,45763
1934,23948;2,46459
1932,18833;2,47152
1930,13717;2,47688
1928,08602;2,47992
1926,03486;2,48358
1923,98371;2,49127
1921,93255;2,50205
1919,8814;2,51139
1917,83024;2,51771
1915,77909;2,52379
1913,72793;2,53219
1911,67678;2,54278
1909,62562;2,55406
1907,57446;2,56505
1905,52331;2,57536
1903,47215;2,58462
1901,421;2,5928
1899,36984;2,6025
1897,31869;2,6138
1895,26753;2,62276
1893,21638;2,63157
1891,16522;2,64611
1889,11407;2,6642
1887,06291;2,6766
1885,01176;2,68141
1882,9606;2,68437
1880,90945;2,68757
1878,85829;2,68996
1876,80713;2,6917
1874,75598;2,69399
1872,70482;2,69708
1870,65367;2,69888
1868,60251;2,69908
1866,55136;2,69994
1864,5002;2,70335
1862,44905;2,71218
1860,39789;2,72308
1858,34674;2,72805
1856,29558;2,72724
1854,24443;2,7263
1852,19327;2,72621
1850,14212;2,72421
1848,09096;2,72306
1846,0398;2,7271
1843,98865;2,73364
1841,93749;2,73924
1839,88634;2,74254
1837,83518;2,74405
1835,78403;2,74494
1833,73287;2,74409
1831,68172;2,74232
1829,63056;2,73916
1827,57941;2,73061
1825,52825;2,72067
1823,4771;2,71696
1821,42594;2,71764
1819,37478;2,71701
1817,32363;2,71342
1815,27247;2,70829
1813,22132;2,70623
1811,17016;2,71093
1809,11901;2,72061
1807,06785;2,73126
1805,0167;2,74302
1802,96554;2,75609
1800,91439;2,76728
1798,86323;2,77729
1796,81208;2,78767
1794,76092;2,79559
1792,70977;2,79725
1790,65861;2,78994
1788,60745;2,77848
1786,5563;2,76753
1784,50514;2,75577
1782,45399;2,74473
1780,40283;2,73701
1778,35168;2,73324
1776,30052;2,73306
1774,24937;2,73149
1772,19821;2,72487
1770,14706;2,71799
1768,0959;2,71409
1766,04475;2,71422
1763,99359;2,71936
1761,94244;2,72818
1759,89128;2,73672
1757,84012;2,74059
1755,78897;2,74149
1753,73781;2,74586
1751,68666;2,75764
1749,6355;2,77339
1747,58435;2,78418
1745,53319;2,7909
1743,48204;2,8007
1741,43088;2,812
1739,37973;2,81713
1737,32857;2,81496
1735,27742;2,81346
1733,22626;2,8184
1731,17511;2,82251
1729,12395;2,8237
1727,07279;2,8283
1725,02164;2,83632
1722,97048;2,84744
1720,91933;2,86367
1718,86817;2,88251
1716,81702;2,89813
1714,76586;2,91162
1712,71471;2,93035
1710,66355;2,95157
1708,6124;2,97105
1706,56124;2,98925
1704,51009;3,0037
1702,45893;3,01273
1700,40778;3,03104
1698,35662;3,07293
1696,30546;3,11514
1694,25431;3,13146
1692,20315;3,13672
1690,152;3,15235
1688,10084;3,16555
1686,04969;3,15629
1683,99853;3,13942
1681,94738;3,14973
1679,89622;3,18026
1677,84507;3,19746
1675,79391;3,17974
1673,74276;3,1458
1671,6916;3,12293
1669,64045;3,1071
1667,58929;3,09252
1665,53813;3,08236
1663,48698;3,07351
1661,43582;3,06123
1659,38467;3,047
1657,33351;3,0339
1655,28236;3,02388
1653,2312;3,0159
1651,18005;3,00769
1649,12889;2,9974
1647,07774;2,98441
1645,02658;2,97501
1642,97543;2,97219
1640,92427;2,97167
1638,87312;2,97064
1636,82196;2,96603
1634,7708;2,96017
1632,71965;2,96098
1630,66849;2,96758
1628,61734;2,97457
1626,56618;2,97562
1624,51503;2,9653
1622,46387;2,94918
1620,41272;2,94055
1618,36156;2,93647
1616,31041;2,92872
1614,25925;2,92656
1612,2081;2,93512
1610,15694;2,94169
1608,10579;2,93419
1606,05463;2,91671
1604,00347;2,90303
1601,95232;2,89706
1599,90116;2,89236
1597,85001;2,88607
1595,79885;2,8781
1593,7477;2,86852
1591,69654;2,85938
1589,64539;2,85031
1587,59423;2,83621
1585,54308;2,81434
1583,49192;2,79008
1581,44077;2,76901
1579,38961;2,7491
1577,33846;2,72267
1575,2873;2,69302
1573,23614;2,67651
1571,18499;2,67096
1569,13383;2,66548
1567,08268;2,65877
1565,03152;2,65358
1562,98037;2,6531
1560,92921;2,65642
1558,87806;2,65899
1556,8269;2,66141
1554,77575;2,66513
1552,72459;2,66968
1550,67344;2,67133
1548,62228;2,669
1546,57113;2,66674
1544,51997;2,66714
1542,46881;2,66759
1540,41766;2,66004
1538,3665;2,64545
1536,31535;2,63065
1534,26419;2,6159
1532,21304;2,6084
1530,16188;2,61189
1528,11073;2,61569
1526,05957;2,6143
1524,00842;2,61331
1521,95726;2,61228
1519,90611;2,60907
1517,85495;2,60828
1515,80379;2,60893
1513,75264;2,60802
1511,70148;2,60897
1509,65033;2,61284
1507,59917;2,61066
1505,54802;2,60109
1503,49686;2,59579
1501,44571;2,59387
1499,39455;2,59221
1497,3434;2,59082
1495,29224;2,58882
1493,24109;2,58748
1491,18993;2,58577
1489,13878;2,57962
1487,08762;2,5717
1485,03646;2,56617
1482,98531;2,55889
1480,93415;2,54804
1478,883;2,53782
1476,83184;2,53043
1474,78069;2,52087
1472,72953;2,50152
1470,67838;2,48058
1468,62722;2,47067
1466,57607;2,47174
1464,52491;2,4811
1462,47376;2,49423
1460,4226;2,50476
1458,37145;2,51058
1456,32029;2,5155
1454,26913;2,52282
1452,21798;2,53005
1450,16682;2,53525
1448,11567;2,53642
1446,06451;2,53137
1444,01336;2,51906
1441,9622;2,50183
1439,91105;2,48505
1437,85989;2,46805
1435,80874;2,44907
1433,75758;2,4336
1431,70643;2,42236
1429,65527;2,41274
1427,60412;2,40417
1425,55296;2,39443
1423,5018;2,38392
1421,45065;2,37764
1419,39949;2,37574
1417,34834;2,37412
1415,29718;2,37274
1413,24603;2,37626
1411,19487;2,3862
1409,14372;2,39897
1407,09256;2,41382
1405,04141;2,4341
1402,99025;2,45897
1400,9391;2,48366
1398,88794;2,50674
1396,83679;2,5291
1394,78563;2,55099
1392,73447;2,57179
1390,68332;2,5909
1388,63216;2,60582
1386,58101;2,61287
1384,52985;2,6152
1382,4787;2,6189
1380,42754;2,62496
1378,37639;2,63081
1376,32523;2,63323
1374,27408;2,63099
1372,22292;2,62632
1370,17177;2,62234
1368,12061;2,62002
1366,06946;2,61973
1364,0183;2,62159
1361,96714;2,62397
1359,91599;2,626
1357,86483;2,62759
1355,81368;2,62661
1353,76252;2,62347
1351,71137;2,62274
1349,66021;2,6246
1347,60906;2,62615
1345,5579;2,62766
1343,50675;2,63021
1341,45559;2,63476
1339,40444;2,63928
1337,35328;2,63863
1335,30213;2,63505
1333,25097;2,63332
1331,19981;2,6324
1329,14866;2,63306
1327,0975;2,63856
1325,04635;2,64562
1322,99519;2,64938
1320,94404;2,64986
1318,89288;2,64629
1316,84173;2,6419
1314,79057;2,64179
1312,73942;2,64126
1310,68826;2,6387
1308,63711;2,63767
1306,58595;2,63436
1304,5348;2,62838
1302,48364;2,62434
1300,43248;2,62123
1298,38133;2,62023
1296,33017;2,62238
1294,27902;2,62231
1292,22786;2,61954
1290,17671;2,61585
1288,12555;2,61203
1286,0744;2,6141
1284,02324;2,62174
1281,97209;2,62545
1279,92093;2,62333
1277,86978;2,62283
1275,81862;2,62804
1273,76747;2,63481
1271,71631;2,63755
1269,66515;2,63794
1267,614;2,64041
1265,56284;2,64436
1263,51169;2,64725
1261,46053;2,6478
1259,40938;2,64631
1257,35822;2,64261
1255,30707;2,63772
1253,25591;2,63507
1251,20476;2,63326
1249,1536;2,63231
1247,10245;2,63686
1245,05129;2,64262
1243,00013;2,6449
1240,94898;2,64779
1238,89782;2,65064
1236,84667;2,64994
1234,79551;2,64804
1232,74436;2,64574
1230,6932;2,64196
1228,64205;2,63937
1226,59089;2,63595
1224,53974;2,6262
1222,48858;2,61518
1220,43743;2,61038
1218,38627;2,60927
1216,33512;2,60684
1214,28396;2,60342
1212,2328;2,60137
1210,18165;2,60216
1208,13049;2,60578
1206,07934;2,61087
1204,02818;2,61369
1201,97703;2,60842
1199,92587;2,60005
1197,87472;2,60187
1195,82356;2,61277
1193,77241;2,61869
1191,72125;2,61293
1189,6701;2,60625
1187,61894;2,60896
1185,56779;2,61341
1183,51663;2,61268
1181,46547;2,61273
1179,41432;2,62024
1177,36316;2,63516
1175,31201;2,64796
1173,26085;2,64899
1171,2097;2,64347
1169,15854;2,6447
1167,10739;2,65501
1165,05623;2,66553
1163,00508;2,67209
1160,95392;2,67721
1158,90277;2,67888
1156,85161;2,67421
1154,80046;2,66699
1152,7493;2,66345
1150,69814;2,66474
1148,64699;2,66874
1146,59583;2,67371
1144,54468;2,67465
1142,49352;2,67043
1140,44237;2,66905
1138,39121;2,67216
1136,34006;2,67612
1134,2889;2,6823
1132,23775;2,69068
1130,18659;2,6987
1128,13544;2,7036
1126,08428;2,70483
1124,03313;2,70502
1121,98197;2,70563
1119,93081;2,70759
1117,87966;2,71521
1115,8285;2,72789
1113,77735;2,73941
1111,72619;2,74998
1109,67504;2,7595
1107,62388;2,76773
1105,57273;2,77562
1103,52157;2,77741
1101,47042;2,78186
1099,41926;2,80081
1097,36811;2,82034
1095,31695;2,82916
1093,2658;2,82962
1091,21464;2,81514
1089,16348;2,78777
1087,11233;2,76627
1085,06117;2,75938
1083,01002;2,75495
1080,95886;2,74191
1078,90771;2,73067
1076,85655;2,7315
1074,8054;2,73716
1072,75424;2,74065
1070,70309;2,74473
1068,65193;2,75061
1066,60078;2,75693
1064,54962;2,76109
1062,49847;2,76099
1060,44731;2,76561
1058,39615;2,77784
1056,345;2,78083
1054,29384;2,76941
1052,24269;2,75835
1050,19153;2,75321
1048,14038;2,7519
1046,08922;2,75496
1044,03807;2,76043
1041,98691;2,76545
1039,93576;2,76537
1037,8846;2,76167
1035,83345;2,76558
1033,78229;2,7754
1031,73114;2,77771
1029,67998;2,77002
1027,62882;2,7657
1025,57767;2,77488
1023,52651;2,78753
1021,47536;2,79166
1019,4242;2,78686
1017,37305;2,78285
1015,32189;2,7866
1013,27074;2,78639
1011,21958;2,77681
1009,16843;2,775
1007,11727;2,78676
1005,06612;2,80162
1003,01496;2,81539
1000,96381;2,82833
998,91265;2,83768
996,86149;2,83534
994,81034;2,83013
992,75918;2,83754
990,70803;2,84588
988,65687;2,83811
986,60572;2,82358
984,55456;2,81716
982,50341;2,81956
980,45225;2,82315
978,4011;2,8197
976,34994;2,81302
974,29879;2,81264
972,24763;2,81076
970,19647;2,80326
968,14532;2,79765
966,09416;2,79054
964,04301;2,78199
961,99185;2,77752
959,9407;2,7732
957,88954;2,76575
955,83839;2,7552
953,78723;2,74217
951,73608;2,72724
949,68492;2,71461
947,63377;2,7132
945,58261;2,72653
943,53146;2,74902
941,4803;2,77461
939,42914;2,79202
937,37799;2,79049
935,32683;2,78239
933,27568;2,78228
931,22452;2,78573
929,17337;2,78482
927,12221;2,78078
925,07106;2,7794
923,0199;2,78116
920,96875;2,78455
918,91759;2,78872
916,86644;2,79507
914,81528;2,79998
912,76413;2,79779
910,71297;2,79939
908,66181;2,80907
906,61066;2,80752
904,5595;2,79532
902,50835;2,78878
900,45719;2,78869
898,40604;2,79661
896,35488;2,80601
894,30373;2,80035
892,25257;2,7822
890,20142;2,76484
888,15026;2,75971
886,09911;2,77002
884,04795;2,78376
881,9968;2,78931
879,94564;2,79187
877,89448;2,79442
875,84333;2,79492
873,79217;2,79906
871,74102;2,81024
869,68986;2,82683
867,63871;2,83501
865,58755;2,82023
863,5364;2,79596
861,48524;2,77615
859,43409;2,76122
857,38293;2,75409
855,33178;2,75013
853,28062;2,74119
851,22947;2,73625
849,17831;2,73898
847,12715;2,74414
845,076;2,74526
843,02484;2,72693
840,97369;2,69028
838,92253;2,66143
836,87138;2,65562
834,82022;2,65738
832,76907;2,65783
830,71791;2,66543
828,66676;2,67934
826,6156;2,7024
824,56445;2,73093
822,51329;2,74111
820,46214;2,73683
818,41098;2,73704
816,35982;2,72883
814,30867;2,70939
812,25751;2,69402
810,20636;2,68538
808,1552;2,68071
806,10405;2,68327
804,05289;2,70266
802,00174;2,73102
799,95058;2,73982
797,89943;2,72793
795,84827;2,72322
793,79712;2,74206
791,74596;2,76517
789,69481;2,75691
787,64365;2,73369
785,59249;2,73587
783,54134;2,76689
781,49018;2,80212
779,43903;2,81797
777,38787;2,81729
775,33672;2,82048
773,28556;2,82362
771,23441;2,81813
769,18325;2,81141
767,1321;2,80842
765,08094;2,81986
763,02979;2,82585
760,97863;2,80478
758,92748;2,79101
756,87632;2,79746
754,82516;2,80583
752,77401;2,81574
750,72285;2,8215
748,6717;2,81892
746,62054;2,81744
744,56939;2,81752
742,51823;2,8265
740,46708;2,82795
738,41592;2,80895
736,36477;2,80351
734,31361;2,80596
732,26246;2,78577
730,2113;2,76577
728,16015;2,76033
726,10899;2,75736
724,05783;2,75794
722,00668;2,75878
719,95552;2,7595
717,90437;2,76165
715,85321;2,76527
713,80206;2,77232
711,7509;2,78448
709,69975;2,79471
707,64859;2,79297
705,59744;2,78434
703,54628;2,77942
701,49513;2,77903
699,44397;2,78028
697,39281;2,7785
695,34166;2,76971
693,2905;2,75348
691,23935;2,74276
689,18819;2,75667
687,13704;2,78692
685,08588;2,80403
683,03473;2,80081
680,98357;2,79395
678,93242;2,79076
676,88126;2,78645
674,83011;2,79437
672,77895;2,82182
670,7278;2,83989
668,67664;2,81591
666,62548;2,76357
664,57433;2,73572
662,52317;2,73982
660,47202;2,74925
658,42086;2,74978
656,36971;2,76156
654,31855;2,79746
652,2674;2,82712
650,21624;2,82409
648,16509;2,79481
646,11393;2,75728
644,06278;2,74514
642,01162;2,77034
639,96047;2,78954
637,90931;2,77161
635,85815;2,75027
633,807;2,76088
631,75584;2,79844
629,70469;2,83304
627,65353;2,84267
625,60238;2,84004
623,55122;2,83187
621,50007;2,81649
619,44891;2,81081
617,39776;2,8022
615,3466;2,77458
613,29545;2,76217
611,24429;2,7876
609,19314;2,8347
607,14198;2,86475
605,09082;2,84659
603,03967;2,80604
600,98851;2,8056
598,93736;2,8456
596,8862;2,86139
594,83505;2,84745
592,78389;2,83935
590,73274;2,8296
588,68158;2,83763
586,63043;2,86345
584,57927;2,85532
582,52812;2,80963
580,47696;2,78149
578,42581;2,79752
576,37465;2,82707
574,32349;2,85068
572,27234;2,89505
570,22118;2,94704
568,17003;2,93129
566,11887;2,85483
564,06772;2,82798
562,01656;2,88037
559,96541;2,89977
557,91425;2,84703
555,8631;2,80027
553,81194;2,77087
551,76079;2,75758
549,70963;2,77671
547,65848;2,80833
545,60732;2,8216
543,55616;2,82636
541,50501;2,84545
539,45385;2,88561
537,4027;2,91039
535,35154;2,91106
533,30039;2,90692
531,24923;2,93477
529,19808;2,98655
527,14692;2,98592
525,09577;2,92454
523,04461;2,90204
520,99346;2,90511
518,9423;2,849
516,89115;2,79141
514,83999;2,77837
512,78883;2,78228
510,73768;2,8002
508,68652;2,82639
506,63537;2,79724
504,58421;2,71183
502,53306;2,6414
500,4819;2,63637
498,43075;2,67053
496,37959;2,69251
494,32844;2,70887
492,27728;2,74233
490,22613;2,76365
488,17497;2,74246
486,12382;2,68644
484,07266;2,65321
482,0215;2,68895
479,97035;2,7627
477,91919;2,81745
475,86804;2,83645
473,81688;2,82241
471,76573;2,77773
469,71457;2,72154
467,66342;2,68664
465,61226;2,66197
463,56111;2,6184
461,50995;2,58271
459,4588;2,58351
457,40764;2,59001
455,35649;2,56612
453,30533;2,53688
451,25417;2,51045
449,20302;2,48029
447,15186;2,47821
445,10071;2,51755
443,04955;2,55617
440,9984;2,56304
438,94724;2,55629
436,89609;2,56394
434,84493;2,63405
432,79378;2,77045
430,74262;2,8468
428,69147;2,78166
426,64031;2,74376
424,58916;2,77591
422,538;2,7662
420,48684;2,70968
418,43569;2,65907
416,38453;2,62403
414,33338;2,59613
412,28222;2,59055
410,23107;2,61215
408,17991;2,62641
406,12876;2,59646
404,0776;2,55052
402,02645;2,53779
399,97529;2,57174
