3997.70175;1.93571
3995.65060;1.93822
"3993.59944 3991.54829";"1.94032 1.94177"
3989,49713;1,94201
3987,44598;1,94218
3985,39482;1,94364
3983,34367;1,94589
3981,29251;1,94883
3979,24136;1,95304
3977,1902;1,95757
3975,13905;1,96127
3973,08789;1,96366
3971,03673;1,96432
3968,98558;1,9638
3966,93442;1,96293
3964,88327;1,96156
3962,83211;1,96064
3960,78096;1,96159
3958,7298;1,96284
3956,67865;1,96324
3954,62749;1,96424
3952,57634;1,96623
3950,52518;1,96757
3948,47403;1,96745
3946,42287;1,96684
3944,37172;1,9652
3942,32056;1,96312
3940,2694;1,96268
3938,21825;1,96368
3936,16709;1,96518
3934,11594;1,9652
3932,06478;1,96283
3930,01363;1,96003
3927,96247;1,95939
3925,91132;1,96021
3923,86016;1,96117
3921,80901;1,96156
3919,75785;1,96089
3917,7067;1,95944
3915,65554;1,95741
3913,60439;1,95505
3911,55323;1,95336
3909,50207;1,95489
3907,45092;1,95987
3905,39976;1,96639
3903,34861;1,97292
3901,29745;1,97717
3899,2463;1,98074
3897,19514;1,98706
3895,14399;1,99284
3893,09283;1,99709
3891,04168;2,00551
3888,99052;2,01858
3886,93937;2,02723
3884,88821;2,03253
3882,83706;2,03796
3880,7859;2,0407
3878,73474;2,04352
3876,68359;2,04496
3874,63243;2,04297
3872,58128;2,03901
3870,53012;2,03014
3868,47897;2,02002
3866,42781;2,00836
3864,37666;1,99407
3862,3255;1,98247
3860,27435;1,97564
3858,22319;1,97489
3856,17204;1,97724
3854,12088;1,97831
3852,06973;1,98014
3850,01857;1,98128
3847,96741;1,98181
3845,91626;1,9851
3843,8651;1,99041
3841,81395;1,99449
3839,76279;1,99425
3837,71164;1,9932
3835,66048;1,9955
3833,60933;1,99712
3831,55817;1,99588
3829,50702;1,99313
3827,45586;1,98873
3825,40471;1,98621
3823,35355;1,98354
3821,3024;1,97745
3819,25124;1,97262
3817,20008;1,96323
3815,14893;1,95102
3813,09777;1,9439
3811,04662;1,94046
3808,99546;1,93835
3806,94431;1,9381
3804,89315;1,94149
3802,842;1,94111
3800,79084;1,93945
3798,73969;1,94001
3796,68853;1,93734
3794,63738;1,93518
3792,58622;1,93385
3790,53506;1,93142
3788,48391;1,93021
3786,43275;1,93157
3784,3816;1,9346
3782,33044;1,93686
3780,27929;1,93547
3778,22813;1,9336
3776,17698;1,93376
3774,12582;1,93507
3772,07467;1,93671
3770,02351;1,93884
3767,97236;1,94215
3765,9212;1,94352
3763,87005;1,94448
3761,81889;1,94488
3759,76773;1,94479
3757,71658;1,94873
3755,66542;1,95631
3753,61427;1,96303
3751,56311;1,96735
3749,51196;1,97169
3747,4608;1,97646
3745,40965;1,97791
3743,35849;1,98286
3741,30734;1,99189
3739,25618;1,99776
3737,20503;2,00038
3735,15387;2,0012
3733,10272;2,00118
3731,05156;2,00203
3729,0004;2,00489
3726,94925;2,00877
3724,89809;2,01438
3722,84694;2,01848
3720,79578;2,02
3718,74463;2,02213
3716,69347;2,02779
3714,64232;2,03592
3712,59116;2,04387
3710,54001;2,05166
3708,48885;2,05886
3706,4377;2,06603
3704,38654;2,07523
3702,33539;2,08819
3700,28423;2,10605
3698,23307;2,12503
3696,18192;2,1411
3694,13076;2,15307
3692,07961;2,1594
3690,02845;2,16152
3687,9773;2,16502
3685,92614;2,17184
3683,87499;2,17812
3681,82383;2,18591
3679,77268;2,19895
3677,72152;2,21537
3675,67037;2,23502
3673,61921;2,2607
3671,56806;2,28213
3669,5169;2,30089
3667,46574;2,32112
3665,41459;2,33802
3663,36343;2,35326
3661,31228;2,37008
3659,26112;2,39028
3657,20997;2,41327
3655,15881;2,44017
3653,10766;2,46826
3651,0565;2,4943
3649,00535;2,52163
3646,95419;2,54687
3644,90304;2,56595
3642,85188;2,57791
3640,80073;2,58525
3638,74957;2,59592
3636,69841;2,61146
3634,64726;2,62411
3632,5961;2,6359
3630,54495;2,6501
3628,49379;2,66031
3626,44264;2,66551
3624,39148;2,67498
3622,34033;2,69003
3620,28917;2,69906
3618,23802;2,70094
3616,18686;2,70738
3614,13571;2,71929
3612,08455;2,7287
3610,0334;2,73523
3607,98224;2,748
3605,93108;2,76739
3603,87993;2,78514
3601,82877;2,8016
3599,77762;2,81764
3597,72646;2,82327
3595,67531;2,81601
3593,62415;2,81557
3591,573;2,83679
3589,52184;2,87013
3587,47069;2,8935
3585,41953;2,89003
3583,36838;2,86766
3581,31722;2,85439
3579,26607;2,86738
3577,21491;2,88839
3575,16375;2,896
3573,1126;2,89998
3571,06144;2,91366
3569,01029;2,9354
3566,95913;2,94804
3564,90798;2,93583
3562,85682;2,91456
3560,80567;2,90418
3558,75451;2,90611
3556,70336;2,91473
3554,6522;2,92178
3552,60105;2,92364
3550,54989;2,92982
3548,49874;2,94159
3546,44758;2,94789
3544,39642;2,95257
3542,34527;2,96345
3540,29411;2,96869
3538,24296;2,96302
3536,1918;2,9618
3534,14065;2,96876
3532,08949;2,97418
3530,03834;2,98265
3527,98718;2,99598
3525,93603;2,99719
3523,88487;2,98041
3521,83372;2,96447
3519,78256;2,96248
3517,73141;2,96571
3515,68025;2,96818
3513,62909;2,97685
3511,57794;2,99268
3509,52678;3,01005
3507,47563;3,02402
3505,42447;3,03017
3503,37332;3,03325
3501,32216;3,03618
3499,27101;3,03225
3497,21985;3,0252
3495,1687;3,02552
3493,11754;3,03377
3491,06639;3,03737
3489,01523;3,03164
3486,96407;3,03401
3484,91292;3,05203
3482,86176;3,05911
3480,81061;3,04459
3478,75945;3,0392
3476,7083;3,04124
3474,65714;3,02767
3472,60599;3,01411
3470,55483;3,0085
3468,50368;3,00152
3466,45252;3,00516
3464,40137;3,02301
3462,35021;3,03867
3460,29906;3,04974
3458,2479;3,05387
3456,19674;3,04038
3454,14559;3,02469
3452,09443;3,03068
3450,04328;3,04936
3447,99212;3,05693
3445,94097;3,0509
3443,88981;3,04437
3441,83866;3,02942
3439,7875;2,97553
3437,73635;2,89985
3435,68519;2,84126
3433,63404;2,80839
3431,58288;2,79377
3429,53173;2,78193
3427,48057;2,77147
3425,42941;2,77705
3423,37826;2,79841
3421,3271;2,82042
3419,27595;2,83415
3417,22479;2,84845
3415,17364;2,86491
3413,12248;2,873
3411,07133;2,8844
3409,02017;2,90133
3406,96902;2,89995
3404,91786;2,88475
3402,86671;2,87675
3400,81555;2,87944
3398,7644;2,89381
3396,71324;2,91792
3394,66208;2,93492
3392,61093;2,93587
3390,55977;2,93278
3388,50862;2,93425
3386,45746;2,93092
3384,40631;2,91751
3382,35515;2,90916
3380,304;2,91113
3378,25284;2,91391
3376,20169;2,91893
3374,15053;2,93275
3372,09938;2,94237
3370,04822;2,94072
3367,99707;2,92965
3365,94591;2,90972
3363,89475;2,89724
3361,8436;2,90395
3359,79244;2,91542
3357,74129;2,92066
3355,69013;2,92278
3353,63898;2,92846
3351,58782;2,94053
3349,53667;2,93767
3347,48551;2,90711
3345,43436;2,87882
3343,3832;2,87464
3341,33205;2,87891
3339,28089;2,88468
3337,22974;2,89991
3335,17858;2,91249
3333,12742;2,9119
3331,07627;2,90475
3329,02511;2,89585
3326,97396;2,89054
3324,9228;2,88905
3322,87165;2,8819
3320,82049;2,87526
3318,76934;2,88595
3316,71818;2,90327
3314,66703;2,90677
3312,61587;2,90477
3310,56472;2,91096
3308,51356;2,91742
3306,46241;2,91629
3304,41125;2,91584
3302,36009;2,92439
3300,30894;2,9366
3298,25778;2,93747
3296,20663;2,92251
3294,15547;2,90331
3292,10432;2,89553
3290,05316;2,89933
3288,00201;2,90041
3285,95085;2,89379
3283,8997;2,88276
3281,84854;2,87781
3279,79739;2,88714
3277,74623;2,89412
3275,69508;2,88735
3273,64392;2,88679
3271,59276;2,90473
3269,54161;2,918
3267,49045;2,90297
3265,4393;2,88152
3263,38814;2,87823
3261,33699;2,88445
3259,28583;2,88706
3257,23468;2,88072
3255,18352;2,86635
3253,13237;2,85792
3251,08121;2,86608
3249,03006;2,87812
3246,9789;2,87928
3244,92775;2,87848
3242,87659;2,88526
3240,82543;2,89216
3238,77428;2,89685
3236,72312;2,90508
3234,67197;2,91022
3232,62081;2,90426
3230,56966;2,89191
3228,5185;2,87877
3226,46735;2,86977
3224,41619;2,87119
3222,36504;2,8825
3220,31388;2,89028
3218,26273;2,88562
3216,21157;2,87664
3214,16041;2,87134
3212,10926;2,87015
3210,0581;2,87075
3208,00695;2,86898
3205,95579;2,86394
3203,90464;2,85894
3201,85348;2,85724
3199,80233;2,86176
3197,75117;2,86833
3195,70002;2,87439
3193,64886;2,87711
3191,59771;2,87268
3189,54655;2,86862
3187,4954;2,86925
3185,44424;2,87256
3183,39308;2,87455
3181,34193;2,87639
3179,29077;2,87479
3177,23962;2,86425
3175,18846;2,85724
3173,13731;2,85668
3171,08615;2,8533
3169,035;2,85175
3166,98384;2,85292
3164,93269;2,85044
3162,88153;2,85253
3160,83038;2,86323
3158,77922;2,86899
3156,72807;2,85819
3154,67691;2,84274
3152,62575;2,84547
3150,5746;2,86076
3148,52344;2,86674
3146,47229;2,86507
3144,42113;2,86257
3142,36998;2,85815
3140,31882;2,85518
3138,26767;2,85497
3136,21651;2,85881
3134,16536;2,86478
3132,1142;2,85939
3130,06305;2,83929
3128,01189;2,82412
3125,96074;2,82626
3123,90958;2,83728
3121,85842;2,84726
3119,80727;2,84824
3117,75611;2,84387
3115,70496;2,8446
3113,6538;2,84651
3111,60265;2,84485
3109,55149;2,84419
3107,50034;2,83969
3105,44918;2,82742
3103,39803;2,81864
3101,34687;2,81625
3099,29572;2,81518
3097,24456;2,81564
3095,19341;2,81577
3093,14225;2,8125
3091,09109;2,80423
3089,03994;2,79806
3086,98878;2,80321
3084,93763;2,81196
3082,88647;2,81384
3080,83532;2,81253
3078,78416;2,8101
3076,73301;2,80868
3074,68185;2,8114
3072,6307;2,80903
3070,57954;2,79741
3068,52839;2,78557
3066,47723;2,78476
3064,42608;2,79946
3062,37492;2,80932
3060,32376;2,79833
3058,27261;2,78421
3056,22145;2,77487
3054,1703;2,76644
3052,11914;2,76645
3050,06799;2,77061
3048,01683;2,76817
3045,96568;2,76369
3043,91452;2,76437
3041,86337;2,77254
3039,81221;2,78391
3037,76106;2,78961
3035,7099;2,78397
3033,65875;2,76797
3031,60759;2,75463
3029,55643;2,75579
3027,50528;2,76682
3025,45412;2,77757
3023,40297;2,78042
3021,35181;2,77349
3019,30066;2,76394
3017,2495;2,76028
3015,19835;2,76318
3013,14719;2,76535
3011,09604;2,76311
3009,04488;2,76288
3006,99373;2,76568
3004,94257;2,76795
3002,89142;2,77585
3000,84026;2,78746
2998,7891;2,78981
2996,73795;2,78414
2994,68679;2,78333
2992,63564;2,78719
2990,58448;2,78778
2988,53333;2,79033
2986,48217;2,80081
2984,43102;2,81016
2982,37986;2,81055
2980,32871;2,80556
2978,27755;2,80283
2976,2264;2,80713
2974,17524;2,81181
2972,12409;2,80576
2970,07293;2,79486
2968,02177;2,79486
2965,97062;2,80868
2963,91946;2,82737
2961,86831;2,83838
2959,81715;2,83822
2957,766;2,83544
2955,71484;2,83097
2953,66369;2,82703
2951,61253;2,82935
2949,56138;2,8346
2947,51022;2,84078
2945,45907;2,84946
2943,40791;2,85737
2941,35675;2,86121
2939,3056;2,85871
2937,25444;2,8486
2935,20329;2,84521
2933,15213;2,85459
2931,10098;2,85858
2929,04982;2,85249
2926,99867;2,84724
2924,94751;2,8463
2922,89636;2,84047
2920,8452;2,82983
2918,79405;2,82812
2916,74289;2,83656
2914,69174;2,84611
2912,64058;2,84974
2910,58942;2,85043
2908,53827;2,85499
2906,48711;2,85815
2904,43596;2,85546
2902,3848;2,85278
2900,33365;2,84558
2898,28249;2,83703
2896,23134;2,84232
2894,18018;2,85652
2892,12903;2,86167
2890,07787;2,8593
2888,02672;2,8596
2885,97556;2,85791
2883,92441;2,85027
2881,87325;2,84484
2879,82209;2,8427
2877,77094;2,84484
2875,71978;2,85625
2873,66863;2,85728
2871,61747;2,84003
2869,56632;2,82917
2867,51516;2,8265
2865,46401;2,81603
2863,41285;2,79894
2861,3617;2,7911
2859,31054;2,79591
2857,25939;2,80092
2855,20823;2,79772
2853,15708;2,78787
2851,10592;2,77865
2849,05476;2,77375
2847,00361;2,77475
2844,95245;2,77574
2842,9013;2,76927
2840,85014;2,76273
2838,79899;2,76208
2836,74783;2,76797
2834,69668;2,77431
2832,64552;2,77019
2830,59437;2,76026
2828,54321;2,7518
2826,49206;2,73995
2824,4409;2,72577
2822,38975;2,7155
2820,33859;2,70669
2818,28743;2,69343
2816,23628;2,67754
2814,18512;2,6647
2812,13397;2,655
2810,08281;2,6479
2808,03166;2,64153
2805,9805;2,63484
2803,92935;2,63327
2801,87819;2,6365
2799,82704;2,63473
2797,77588;2,62733
2795,72473;2,62447
2793,67357;2,62503
2791,62242;2,61978
2789,57126;2,61127
2787,5201;2,60708
2785,46895;2,60362
2783,41779;2,59664
2781,36664;2,59153
2779,31548;2,58742
2777,26433;2,5827
2775,21317;2,58426
2773,16202;2,58933
2771,11086;2,58705
2769,05971;2,57821
2767,00855;2,5697
2764,9574;2,56475
2762,90624;2,56436
2760,85509;2,5646
2758,80393;2,56457
2756,75277;2,5661
2754,70162;2,56751
2752,65046;2,56792
2750,59931;2,56571
2748,54815;2,5598
2746,497;2,55246
2744,44584;2,54985
2742,39469;2,55293
2740,34353;2,55495
2738,29238;2,55238
2736,24122;2,54667
2734,19007;2,543
2732,13891;2,54073
2730,08776;2,53524
2728,0366;2,5305
2725,98544;2,53328
2723,93429;2,5411
2721,88313;2,54272
2719,83198;2,53655
2717,78082;2,52999
2715,72967;2,52625
2713,67851;2,5262
2711,62736;2,52673
2709,5762;2,52434
2707,52505;2,52037
2705,47389;2,51894
2703,42274;2,52069
2701,37158;2,5208
2699,32043;2,52128
2697,26927;2,52394
2695,21811;2,51954
2693,16696;2,50987
2691,1158;2,50731
2689,06465;2,51175
2687,01349;2,5144
2684,96234;2,51176
2682,91118;2,50785
2680,86003;2,50741
2678,80887;2,50994
2676,75772;2,51174
2674,70656;2,51323
2672,65541;2,51495
2670,60425;2,51552
2668,55309;2,51572
2666,50194;2,51549
2664,45078;2,51489
2662,39963;2,51406
2660,34847;2,51509
2658,29732;2,51885
2656,24616;2,5203
2654,19501;2,51792
2652,14385;2,51552
2650,0927;2,51568
2648,04154;2,51808
2645,99039;2,51931
2643,93923;2,51864
2641,88808;2,5202
2639,83692;2,52498
2637,78576;2,52873
2635,73461;2,53146
2633,68345;2,53763
2631,6323;2,5438
2629,58114;2,54783
2627,52999;2,55414
2625,47883;2,55988
2623,42768;2,56214
2621,37652;2,56384
2619,32537;2,56774
2617,27421;2,57477
2615,22306;2,58149
2613,1719;2,58891
2611,12075;2,60091
2609,06959;2,6122
2607,01843;2,61973
2604,96728;2,62494
2602,91612;2,62826
2600,86497;2,63039
2598,81381;2,63065
2596,76266;2,63142
2594,7115;2,63391
2592,66035;2,63709
2590,60919;2,64098
2588,55804;2,64456
2586,50688;2,64537
2584,45573;2,64081
2582,40457;2,63763
2580,35342;2,64306
2578,30226;2,65162
2576,2511;2,65914
2574,19995;2,66845
2572,14879;2,67828
2570,09764;2,68915
2568,04648;2,70275
2565,99533;2,71714
2563,94417;2,73169
2561,89302;2,74279
2559,84186;2,75168
2557,79071;2,76192
2555,73955;2,76423
2553,6884;2,75601
2551,63724;2,74804
2549,58609;2,74218
2547,53493;2,73485
2545,48377;2,72558
2543,43262;2,7178
2541,38146;2,71677
2539,33031;2,71933
2537,27915;2,72109
2535,228;2,72412
2533,17684;2,73128
2531,12569;2,74153
2529,07453;2,74782
2527,02338;2,74815
2524,97222;2,74954
2522,92107;2,75839
2520,86991;2,77507
2518,81876;2,78895
2516,7676;2,79189
2514,71644;2,79077
2512,66529;2,79024
2510,61413;2,79458
2508,56298;2,80335
2506,51182;2,80914
2504,46067;2,81582
2502,40951;2,82158
2500,35836;2,81623
2498,3072;2,80059
2496,25605;2,78124
2494,20489;2,76154
2492,15374;2,73956
2490,10258;2,71095
2488,05143;2,67986
2486,00027;2,65389
2483,94911;2,62726
2481,89796;2,5987
2479,8468;2,57743
2477,79565;2,56102
2475,74449;2,54285
2473,69334;2,5246
2471,64218;2,50717
2469,59103;2,49202
2467,53987;2,48174
2465,48872;2,4743
2463,43756;2,46573
2461,38641;2,45484
2459,33525;2,44349
2457,2841;2,43215
2455,23294;2,42144
2453,18178;2,41238
2451,13063;2,40349
2449,07947;2,39619
2447,02832;2,39169
2444,97716;2,38707
2442,92601;2,38275
2440,87485;2,37959
2438,8237;2,37524
2436,77254;2,37019
2434,72139;2,36638
2432,67023;2,36485
2430,61908;2,36395
2428,56792;2,36048
2426,51677;2,35529
2424,46561;2,35179
2422,41445;2,35071
2420,3633;2,34916
2418,31214;2,34559
2416,26099;2,34164
2414,20983;2,33771
2412,15868;2,33208
2410,10752;2,32563
2408,05637;2,32238
2406,00521;2,32193
2403,95406;2,31934
2401,9029;2,31447
2399,85175;2,31179
2397,80059;2,31118
2395,74944;2,3108
2393,69828;2,30979
2391,64712;2,30772
2389,59597;2,30605
2387,54481;2,30702
2385,49366;2,30963
2383,4425;2,31138
2381,39135;2,31185
2379,34019;2,31215
2377,28904;2,31319
2375,23788;2,3156
2373,18673;2,31993
2371,13557;2,32518
2369,08442;2,32831
2367,03326;2,3282
2364,9821;2,32684
2362,93095;2,32646
2360,87979;2,32743
2358,82864;2,32686
2356,77748;2,32185
2354,72633;2,31563
2352,67517;2,31544
2350,62402;2,32026
2348,57286;2,32049
2346,52171;2,31509
2344,47055;2,31475
2342,4194;2,3215
2340,36824;2,32624
2338,31709;2,3259
2336,26593;2,32183
2334,21477;2,31817
2332,16362;2,3195
2330,11246;2,32383
2328,06131;2,32492
2326,01015;2,32171
2323,959;2,31821
2321,90784;2,31664
2319,85669;2,31727
2317,80553;2,31967
2315,75438;2,32069
2313,70322;2,31866
2311,65207;2,31706
2309,60091;2,31823
2307,54976;2,32056
2305,4986;2,32235
2303,44744;2,32274
2301,39629;2,32155
2299,34513;2,32042
2297,29398;2,321
2295,24282;2,32238
2293,19167;2,32362
2291,14051;2,3252
2289,08936;2,32723
2287,0382;2,32979
2284,98705;2,33217
2282,93589;2,33244
2280,88474;2,3312
2278,83358;2,33149
2276,78243;2,33405
2274,73127;2,33662
2272,68011;2,33692
2270,62896;2,33615
2268,5778;2,33791
2266,52665;2,34102
2264,47549;2,34157
2262,42434;2,3413
2260,37318;2,34334
2258,32203;2,34603
2256,27087;2,34801
2254,21972;2,35032
2252,16856;2,35149
2250,11741;2,35036
2248,06625;2,3495
2246,0151;2,35009
2243,96394;2,35056
2241,91278;2,35254
2239,86163;2,35652
2237,81047;2,36058
2235,75932;2,36436
2233,70816;2,36718
2231,65701;2,36828
2229,60585;2,36958
2227,5547;2,37159
2225,50354;2,37293
2223,45239;2,37478
2221,40123;2,37539
2219,35008;2,3713
2217,29892;2,3677
2215,24777;2,36971
2213,19661;2,37496
2211,14545;2,38127
2209,0943;2,38641
2207,04314;2,38739
2204,99199;2,38566
2202,94083;2,38492
2200,88968;2,3873
2198,83852;2,39036
2196,78737;2,39239
2194,73621;2,39353
2192,68506;2,39177
2190,6339;2,39025
2188,58275;2,39269
2186,53159;2,39516
2184,48044;2,39587
2182,42928;2,3991
2180,37812;2,40375
2178,32697;2,4055
2176,27581;2,40528
2174,22466;2,40512
2172,1735;2,40584
2170,12235;2,40703
2168,07119;2,40835
2166,02004;2,41134
2163,96888;2,41613
2161,91773;2,41954
2159,86657;2,42035
2157,81542;2,42135
2155,76426;2,42399
2153,71311;2,42665
2151,66195;2,42756
2149,61079;2,42763
2147,55964;2,42801
2145,50848;2,42928
2143,45733;2,43141
2141,40617;2,43195
2139,35502;2,4304
2137,30386;2,42849
2135,25271;2,42569
2133,20155;2,42305
2131,1504;2,42166
2129,09924;2,42035
2127,04809;2,41997
2124,99693;2,41911
2122,94578;2,4163
2120,89462;2,4144
2118,84346;2,41357
2116,79231;2,41108
2114,74115;2,4075
2112,69;2,40549
2110,63884;2,40522
2108,58769;2,40567
2106,53653;2,40507
2104,48538;2,40261
2102,43422;2,40141
2100,38307;2,40208
2098,33191;2,40211
2096,28076;2,40173
2094,2296;2,40245
2092,17844;2,40517
2090,12729;2,40848
2088,07613;2,41048
2086,02498;2,4122
2083,97382;2,41341
2081,92267;2,41225
2079,87151;2,41155
2077,82036;2,41278
2075,7692;2,4129
2073,71805;2,4132
2071,66689;2,41563
2069,61574;2,41682
2067,56458;2,41582
2065,51343;2,41701
2063,46227;2,42129
2061,41111;2,42543
2059,35996;2,42898
2057,3088;2,43058
2055,25765;2,42977
2053,20649;2,43085
2051,15534;2,43417
2049,10418;2,43538
2047,05303;2,4347
2045,00187;2,43581
2042,95072;2,43871
2040,89956;2,44039
2038,84841;2,43883
2036,79725;2,43578
2034,7461;2,43572
2032,69494;2,43892
2030,64378;2,43967
2028,59263;2,43642
2026,54147;2,43397
2024,49032;2,43544
2022,43916;2,44084
2020,38801;2,44608
2018,33685;2,4474
2016,2857;2,44784
2014,23454;2,4489
2012,18339;2,44752
2010,13223;2,44604
2008,08108;2,44818
2006,02992;2,45106
2003,97877;2,45244
2001,92761;2,45381
1999,87645;2,45516
1997,8253;2,45667
1995,77414;2,46105
1993,72299;2,46772
1991,67183;2,47429
1989,62068;2,47929
1987,56952;2,48107
1985,51837;2,48158
1983,46721;2,48258
1981,41606;2,48596
1979,3649;2,49256
1977,31375;2,49904
1975,26259;2,50256
1973,21144;2,50424
1971,16028;2,50635
1969,10912;2,50899
1967,05797;2,51325
1965,00681;2,52091
1962,95566;2,52984
1960,9045;2,53837
1958,85335;2,54529
1956,80219;2,54915
1954,75104;2,55113
1952,69988;2,55306
1950,64873;2,55547
1948,59757;2,55923
1946,54642;2,56554
1944,49526;2,57363
1942,44411;2,58388
1940,39295;2,59572
1938,34179;2,60184
1936,29064;2,60059
1934,23948;2,59951
1932,18833;2,60586
1930,13717;2,61781
1928,08602;2,62685
1926,03486;2,63036
1923,98371;2,63345
1921,93255;2,63987
1919,8814;2,64627
1917,83024;2,65378
1915,77909;2,66743
1913,72793;2,6806
1911,67678;2,68983
1909,62562;2,69943
1907,57446;2,71011
1905,52331;2,71795
1903,47215;2,72305
1901,421;2,73012
1899,36984;2,74055
1897,31869;2,75092
1895,26753;2,76216
1893,21638;2,77799
1891,16522;2,79541
1889,11407;2,81173
1887,06291;2,82246
1885,01176;2,82276
1882,9606;2,81995
1880,90945;2,82171
1878,85829;2,82868
1876,80713;2,8353
1874,75598;2,83351
1872,70482;2,82721
1870,65367;2,82611
1868,60251;2,83173
1866,55136;2,83802
1864,5002;2,84126
1862,44905;2,84623
1860,39789;2,85479
1858,34674;2,86302
1856,29558;2,86892
1854,24443;2,869
1852,19327;2,86023
1850,14212;2,85069
1848,09096;2,84991
1846,0398;2,85432
1843,98865;2,85795
1841,93749;2,85889
1839,88634;2,85333
1837,83518;2,8488
1835,78403;2,85436
1833,73287;2,86147
1831,68172;2,85873
1829,63056;2,85293
1827,57941;2,85013
1825,52825;2,84268
1823,4771;2,83288
1821,42594;2,82321
1819,37478;2,81501
1817,32363;2,81515
1815,27247;2,82148
1813,22132;2,82377
1811,17016;2,82113
1809,11901;2,82084
1807,06785;2,82499
1805,0167;2,83385
1802,96554;2,84921
1800,91439;2,86712
1798,86323;2,88092
1796,81208;2,89126
1794,76092;2,89773
1792,70977;2,89256
1790,65861;2,87809
1788,60745;2,86316
1786,5563;2,85112
1784,50514;2,84491
1782,45399;2,84137
1780,40283;2,83605
1778,35168;2,83162
1776,30052;2,82913
1774,24937;2,82492
1772,19821;2,81765
1770,14706;2,81305
1768,0959;2,81094
1766,04475;2,81163
1763,99359;2,81531
1761,94244;2,81739
1759,89128;2,8148
1757,84012;2,80714
1755,78897;2,80256
1753,73781;2,80942
1751,68666;2,82642
1749,6355;2,84449
1747,58435;2,8499
1745,53319;2,84215
1743,48204;2,83297
1741,43088;2,83342
1739,37973;2,84455
1737,32857;2,85688
1735,27742;2,86203
1733,22626;2,86758
1731,17511;2,87256
1729,12395;2,87317
1727,07279;2,87591
1725,02164;2,87845
1722,97048;2,88276
1720,91933;2,89382
1718,86817;2,90678
1716,81702;2,91634
1714,76586;2,91774
1712,71471;2,9169
1710,66355;2,92566
1708,6124;2,94594
1706,56124;2,96784
1704,51009;2,97861
1702,45893;2,97277
1700,40778;2,96985
1698,35662;2,9903
1696,30546;3,00558
1694,25431;3,00839
1692,20315;3,01096
1690,152;3,01752
1688,10084;3,03016
1686,04969;3,04264
1683,99853;3,05633
1681,94738;3,07238
1679,89622;3,07908
1677,84507;3,08069
1675,79391;3,08512
1673,74276;3,09178
1671,6916;3,08587
1669,64045;3,07335
1667,58929;3,08165
1665,53813;3,09786
1663,48698;3,10262
1661,43582;3,10238
1659,38467;3,09876
1657,33351;3,09159
1655,28236;3,08876
1653,2312;3,10499
1651,18005;3,14343
1649,12889;3,16796
1647,07774;3,16012
1645,02658;3,14044
1642,97543;3,12909
1640,92427;3,1244
1638,87312;3,12346
1636,82196;3,12062
1634,7708;3,11297
1632,71965;3,10735
1630,66849;3,10525
1628,61734;3,10357
1626,56618;3,10158
1624,51503;3,09627
1622,46387;3,08572
1620,41272;3,07436
1618,36156;3,06488
1616,31041;3,0627
1614,25925;3,06268
1612,2081;3,04975
1610,15694;3,03062
1608,10579;3,01715
1606,05463;3,00626
1604,00347;2,99454
1601,95232;2,98079
1599,90116;2,95773
1597,85001;2,92722
1595,79885;2,89916
1593,7477;2,87325
1591,69654;2,84597
1589,64539;2,81823
1587,59423;2,78768
1585,54308;2,74776
1583,49192;2,69869
1581,44077;2,65164
1579,38961;2,61204
1577,33846;2,5688
1575,2873;2,5246
1573,23614;2,49506
1571,18499;2,47273
1569,13383;2,45619
1567,08268;2,44949
1565,03152;2,44633
1562,98037;2,44664
1560,92921;2,44487
1558,87806;2,43918
1556,8269;2,4382
1554,77575;2,43392
1552,72459;2,42939
1550,67344;2,42786
1548,62228;2,42876
1546,57113;2,43252
1544,51997;2,44022
1542,46881;2,44931
1540,41766;2,44921
1538,3665;2,44714
1536,31535;2,44863
1534,26419;2,44733
1532,21304;2,44841
1530,16188;2,45131
1528,11073;2,45171
1526,05957;2,4547
1524,00842;2,46103
1521,95726;2,46665
1519,90611;2,47564
1517,85495;2,48438
1515,80379;2,49068
1513,75264;2,4971
1511,70148;2,50341
1509,65033;2,50629
1507,59917;2,50157
1505,54802;2,50396
1503,49686;2,51698
1501,44571;2,52697
1499,39455;2,53045
1497,3434;2,52872
1495,29224;2,52871
1493,24109;2,5328
1491,18993;2,53459
1489,13878;2,53341
1487,08762;2,52927
1485,03646;2,52242
1482,98531;2,51298
1480,93415;2,50156
1478,883;2,4918
1476,83184;2,48397
1474,78069;2,47131
1472,72953;2,44464
1470,67838;2,41489
1468,62722;2,39458
1466,57607;2,38168
1464,52491;2,37947
1462,47376;2,39099
1460,4226;2,40438
1458,37145;2,4092
1456,32029;2,41208
1454,26913;2,42109
1452,21798;2,42956
1450,16682;2,43324
1448,11567;2,43128
1446,06451;2,42498
1444,01336;2,41286
1441,9622;2,39511
1439,91105;2,37585
1437,85989;2,35391
1435,80874;2,33266
1433,75758;2,3174
1431,70643;2,30295
1429,65527;2,28901
1427,60412;2,27881
1425,55296;2,27113
1423,5018;2,2675
1421,45065;2,2682
1419,39949;2,26852
1417,34834;2,26901
1415,29718;2,27017
1413,24603;2,27459
1411,19487;2,28583
1409,14372;2,30253
1407,09256;2,32248
1405,04141;2,34728
1402,99025;2,3755
1400,9391;2,40202
1398,88794;2,43082
1396,83679;2,46286
1394,78563;2,48933
1392,73447;2,50934
1390,68332;2,52475
1388,63216;2,53737
1386,58101;2,54992
1384,52985;2,55974
1382,4787;2,56329
1380,42754;2,56462
1378,37639;2,57052
1376,32523;2,57898
1374,27408;2,58295
1372,22292;2,58314
1370,17177;2,58266
1368,12061;2,58406
1366,06946;2,5895
1364,0183;2,59677
1361,96714;2,60286
1359,91599;2,60562
1357,86483;2,60575
1355,81368;2,6052
1353,76252;2,60453
1351,71137;2,60563
1349,66021;2,60871
1347,60906;2,61126
1345,5579;2,61388
1343,50675;2,62064
1341,45559;2,63104
1339,40444;2,63742
1337,35328;2,63574
1335,30213;2,63227
1333,25097;2,6327
1331,19981;2,63448
1329,14866;2,63316
1327,0975;2,63026
1325,04635;2,62995
1322,99519;2,63234
1320,94404;2,63606
1318,89288;2,63945
1316,84173;2,63984
1314,79057;2,6371
1312,73942;2,63241
1310,68826;2,62922
1308,63711;2,63195
1306,58595;2,63781
1304,5348;2,63891
1302,48364;2,63473
1300,43248;2,63343
1298,38133;2,6378
1296,33017;2,64147
1294,27902;2,63865
1292,22786;2,63123
1290,17671;2,62546
1288,12555;2,6235
1286,0744;2,62474
1284,02324;2,62733
1281,97209;2,62891
1279,92093;2,62953
1277,86978;2,63101
1275,81862;2,63424
1273,76747;2,63593
1271,71631;2,63357
1269,66515;2,63037
1267,614;2,62986
1265,56284;2,63007
1263,51169;2,63096
1261,46053;2,6354
1259,40938;2,63806
1257,35822;2,63381
1255,30707;2,62641
1253,25591;2,6216
1251,20476;2,62113
1249,1536;2,62248
1247,10245;2,62411
1245,05129;2,62501
1243,00013;2,62536
1240,94898;2,63066
1238,89782;2,6375
1236,84667;2,6357
1234,79551;2,62946
1232,74436;2,62497
1230,6932;2,6219
1228,64205;2,62193
1226,59089;2,62518
1224,53974;2,62738
1222,48858;2,62419
1220,43743;2,61747
1218,38627;2,61098
1216,33512;2,60483
1214,28396;2,59915
1212,2328;2,59738
1210,18165;2,59954
1208,13049;2,59946
1206,07934;2,59552
1204,02818;2,59235
1201,97703;2,59269
1199,92587;2,5936
1197,87472;2,59252
1195,82356;2,59128
1193,77241;2,59207
1191,72125;2,59781
1189,6701;2,60527
1187,61894;2,60635
1185,56779;2,6052
1183,51663;2,61254
1181,46547;2,62802
1179,41432;2,64566
1177,36316;2,65998
1175,31201;2,66608
1173,26085;2,669
1171,2097;2,67437
1169,15854;2,67697
1167,10739;2,67755
1165,05623;2,68529
1163,00508;2,6993
1160,95392;2,71314
1158,90277;2,72032
1156,85161;2,71516
1154,80046;2,70894
1152,7493;2,71607
1150,69814;2,72771
1148,64699;2,73115
1146,59583;2,73042
1144,54468;2,73284
1142,49352;2,74043
1140,44237;2,74948
1138,39121;2,75255
1136,34006;2,74669
1134,2889;2,74167
1132,23775;2,74371
1130,18659;2,74591
1128,13544;2,74668
1126,08428;2,75274
1124,03313;2,76555
1121,98197;2,77299
1119,93081;2,76647
1117,87966;2,75845
1115,8285;2,75999
1113,77735;2,76206
1111,72619;2,75815
1109,67504;2,75804
1107,62388;2,76623
1105,57273;2,77772
1103,52157;2,78102
1101,47042;2,7722
1099,41926;2,7659
1097,36811;2,77314
1095,31695;2,78295
1093,2658;2,77822
1091,21464;2,76263
1089,16348;2,74695
1087,11233;2,73529
1085,06117;2,72728
1083,01002;2,71883
1080,95886;2,71522
1078,90771;2,72324
1076,85655;2,73333
1074,8054;2,7367
1072,75424;2,736
1070,70309;2,73222
1068,65193;2,7294
1066,60078;2,73306
1064,54962;2,73787
1062,49847;2,74118
1060,44731;2,74428
1058,39615;2,74006
1056,345;2,73021
1054,29384;2,72673
1052,24269;2,72959
1050,19153;2,72863
1048,14038;2,72813
1046,08922;2,73299
1044,03807;2,73304
1041,98691;2,72895
1039,93576;2,72989
1037,8846;2,7364
1035,83345;2,7396
1033,78229;2,73398
1031,73114;2,72934
1029,67998;2,73083
1027,62882;2,73083
1025,57767;2,72712
1023,52651;2,72843
1021,47536;2,73392
1019,4242;2,73897
1017,37305;2,74222
1015,32189;2,73916
1013,27074;2,73368
1011,21958;2,73499
1009,16843;2,74567
1007,11727;2,75327
1005,06612;2,74791
1003,01496;2,74528
1000,96381;2,75067
998,91265;2,75449
996,86149;2,76334
994,81034;2,77489
992,75918;2,77477
990,70803;2,77109
988,65687;2,77457
986,60572;2,77934
984,55456;2,77978
982,50341;2,77765
980,45225;2,77849
978,4011;2,78191
976,34994;2,78286
974,29879;2,77769
972,24763;2,76287
970,19647;2,74406
968,14532;2,72857
966,09416;2,71347
964,04301;2,69867
961,99185;2,68504
959,9407;2,67384
957,88954;2,66903
955,83839;2,66321
953,78723;2,64965
951,73608;2,63859
949,68492;2,64068
947,63377;2,65178
945,58261;2,66321
943,53146;2,67656
941,4803;2,69125
939,42914;2,70121
937,37799;2,71052
935,32683;2,71882
933,27568;2,71538
931,22452;2,70776
929,17337;2,71118
927,12221;2,72571
925,07106;2,74786
923,0199;2,76754
920,96875;2,77335
918,91759;2,77308
916,86644;2,77057
914,81528;2,76711
912,76413;2,77169
910,71297;2,78176
908,66181;2,78863
906,61066;2,79292
904,5595;2,79843
902,50835;2,80707
900,45719;2,81009
898,40604;2,80412
896,35488;2,80143
894,30373;2,80471
892,25257;2,81401
890,20142;2,81939
888,15026;2,81066
886,09911;2,80727
884,04795;2,81483
881,9968;2,81643
879,94564;2,81906
877,89448;2,83705
875,84333;2,85507
873,79217;2,85497
871,74102;2,84924
869,68986;2,85012
867,63871;2,8478
865,58755;2,83292
863,5364;2,81606
861,48524;2,80151
859,43409;2,78231
857,38293;2,75622
855,33178;2,72254
853,28062;2,69155
851,22947;2,67817
849,17831;2,67575
847,12715;2,66907
845,076;2,65596
843,02484;2,63415
840,97369;2,60056
838,92253;2,56838
836,87138;2,55461
834,82022;2,55912
832,76907;2,56903
830,71791;2,58265
828,66676;2,60666
826,6156;2,6287
824,56445;2,63746
822,51329;2,64513
820,46214;2,65359
818,41098;2,65912
816,35982;2,66285
814,30867;2,65156
812,25751;2,63826
810,20636;2,64681
808,1552;2,65815
806,10405;2,65461
804,05289;2,65529
802,00174;2,66731
799,95058;2,68027
797,89943;2,69103
795,84827;2,69747
793,79712;2,69783
791,74596;2,69566
789,69481;2,69727
787,64365;2,70214
785,59249;2,71093
783,54134;2,71969
781,49018;2,72192
779,43903;2,72807
777,38787;2,73297
775,33672;2,72828
773,28556;2,72896
771,23441;2,73599
769,18325;2,74132
767,1321;2,7442
765,08094;2,7381
763,02979;2,72441
760,97863;2,72026
758,92748;2,73383
756,87632;2,75034
754,82516;2,75362
752,77401;2,74817
750,72285;2,74143
748,6717;2,74419
746,62054;2,76139
744,56939;2,76604
742,51823;2,74972
740,46708;2,73786
738,41592;2,73054
736,36477;2,72234
734,31361;2,72213
732,26246;2,7261
730,2113;2,72297
728,16015;2,71567
726,10899;2,71623
724,05783;2,72325
722,00668;2,72763
719,95552;2,73114
717,90437;2,7343
715,85321;2,73451
713,80206;2,73168
711,7509;2,73083
709,69975;2,7388
707,64859;2,7451
705,59744;2,73803
703,54628;2,7344
701,49513;2,75227
699,44397;2,77866
697,39281;2,78413
695,34166;2,75763
693,2905;2,7308
691,23935;2,7389
689,18819;2,75751
687,13704;2,74484
685,08588;2,72647
683,03473;2,74036
680,98357;2,76636
678,93242;2,77264
676,88126;2,76596
674,83011;2,7612
672,77895;2,75007
670,7278;2,72673
668,67664;2,71438
666,62548;2,73064
664,57433;2,74855
662,52317;2,75905
660,47202;2,76893
658,42086;2,77531
656,36971;2,78459
654,31855;2,79773
652,2674;2,80356
650,21624;2,79824
648,16509;2,7803
646,11393;2,75506
644,06278;2,73952
642,01162;2,73931
639,96047;2,74321
637,90931;2,75474
635,85815;2,77867
633,807;2,79848
631,75584;2,8019
629,70469;2,7891
627,65353;2,77411
625,60238;2,7836
623,55122;2,78614
621,50007;2,75092
619,44891;2,72423
617,39776;2,72977
615,3466;2,73722
613,29545;2,74259
611,24429;2,76197
609,19314;2,78083
607,14198;2,78742
605,09082;2,79336
603,03967;2,80244
600,98851;2,80477
598,93736;2,80016
596,8862;2,79261
594,83505;2,77737
592,78389;2,76454
590,73274;2,76811
588,68158;2,7852
586,63043;2,797
584,57927;2,78981
582,52812;2,78083
580,47696;2,81358
578,42581;2,86299
576,37465;2,8371
574,32349;2,77841
572,27234;2,77498
570,22118;2,81341
568,17003;2,83572
566,11887;2,81289
564,06772;2,78155
562,01656;2,76944
559,96541;2,76396
557,91425;2,76847
555,8631;2,7897
553,81194;2,81555
551,76079;2,8134
549,70963;2,79348
547,65848;2,81724
545,60732;2,86733
543,55616;2,87131
541,50501;2,85329
539,45385;2,84281
537,4027;2,83273
535,35154;2,85739
533,30039;2,9277
531,24923;2,96934
529,19808;2,95078
527,14692;2,92901
525,09577;2,93079
523,04461;2,91491
520,99346;2,89295
518,9423;2,88622
516,89115;2,87887
514,83999;2,85907
512,78883;2,81917
510,73768;2,78623
508,68652;2,77336
506,63537;2,75926
504,58421;2,72863
502,53306;2,6805
500,4819;2,64069
498,43075;2,6336
496,37959;2,65111
494,32844;2,65403
492,27728;2,62937
490,22613;2,61808
488,17497;2,62313
486,12382;2,62478
484,07266;2,6446
482,0215;2,67618
479,97035;2,68069
477,91919;2,67287
475,86804;2,67071
473,81688;2,65711
471,76573;2,63693
469,71457;2,60917
467,66342;2,57509
465,61226;2,55724
463,56111;2,54312
461,50995;2,50658
459,4588;2,45742
457,40764;2,41856
455,35649;2,4063
453,30533;2,41974
451,25417;2,43111
449,20302;2,41481
447,15186;2,38331
445,10071;2,37443
443,04955;2,40899
440,9984;2,47158
438,94724;2,54028
436,89609;2,62374
434,84493;2,70536
432,79378;2,73602
430,74262;2,73455
428,69147;2,71972
426,64031;2,6703
424,58916;2,64813
422,538;2,66512
420,48684;2,6501
418,43569;2,62921
416,38453;2,64842
414,33338;2,63653
412,28222;2,56317
410,23107;2,50275
408,17991;2,50955
406,12876;2,53696
404,0776;2,50898
402,02645;2,45584
399,97529;2,44187
