Data from malachiteVSwhite_Reflection__4__52.txt Node;
"Date: Wed Sep 10 12:54:03 CEST 2025 User: sycur Spectrometer: SR400348 Trigger mode: 0 Integration Time (sec): 1,000000E-2 Scans to average: 10 Electric dark correction enabled: true Nonlinearity correction enabled: false Boxcar width: 10 XAxis mode: Wavelengths Number of Pixels in Spectrum: 3648 >>>>>Begin Spectral Data<<<<<";
186,01;10,23
186,281;58,78
186,552;83,32
186,822;81,97
187,093;-100
187,364;671,88
187,635;150,12
187,905;104,72
188,176;83,02
188,447;54,47
188,717;35,95
188,988;20,52
189,258;20,76
189,529;24,55
189,8;23,17
190,07;22,26
190,341;16,93
190,611;12,35
190,882;12,12
191,152;13,89
191,423;12,6
191,693;13,56
191,964;11,93
192,234;11,09
192,505;10,94
192,775;11,81
193,045;9,77
193,316;8
193,586;6,99
193,856;7,94
194,127;8,81
194,397;9,74
194,667;10,76
194,938;9,91
195,208;9,61
195,478;11,65
195,748;12,4
196,019;12,99
196,289;12,76
196,559;11,62
196,829;9,57
197,099;10,55
197,37;10,82
197,64;11,15
197,91;10,78
198,18;10,48
198,45;10,69
198,72;10,49
198,99;10,79
199,26;11,02
199,53;10,7
199,8;10,39
200,07;10,64
200,34;9,63
200,61;10
200,88;9,63
201,15;9,01
201,42;8,3
201,69;8,5
201,96;8,57
202,23;8,97
202,499;10,07
202,769;9,37
203,039;8,68
203,309;7,66
203,579;7,56
203,849;7,67
204,118;7,62
204,388;7,87
204,658;7,78
204,927;7,47
205,197;6,56
205,467;6,86
205,736;6,41
206,006;6,41
206,276;6,36
206,545;6,34
206,815;6,16
207,085;6,19
207,354;5,94
207,624;5,54
207,893;5,79
208,163;5,52
208,432;5,88
208,702;5,76
208,971;5,4
209,241;5,62
209,51;5,58
209,78;5,48
210,049;5,24
210,318;5,24
210,588;5,03
210,857;5,29
211,127;5,2
211,396;5,16
211,665;5,34
211,935;4,99
212,204;4,91
212,473;4,75
212,742;4,62
213,012;4,68
213,281;4,98
213,55;4,8
213,819;4,58
214,088;4,48
214,358;4,36
214,627;4,68
214,896;4,44
215,165;4,47
215,434;4,36
215,703;4,08
215,972;3,95
216,241;4,08
216,51;3,98
216,779;3,89
217,048;3,86
217,317;3,71
217,586;3,92
217,855;4,1
218,124;4,07
218,393;4,1
218,662;4,12
218,931;3,95
219,2;3,65
219,469;3,74
219,738;3,57
220,006;3,63
220,275;3,5
220,544;3,57
220,813;3,57
221,082;3,6
221,35;3,72
221,619;3,73
221,888;3,61
222,157;3,68
222,425;3,59
222,694;3,48
222,963;3,5
223,231;3,41
223,5;3,29
223,769;3,26
224,037;3,22
224,306;3,16
224,574;3,2
224,843;3,32
225,111;3,24
225,38;3,26
225,648;3,18
225,917;3,12
226,185;3,04
226,454;2,96
226,722;3,01
226,991;2,97
227,259;2,94
227,528;2,98
227,796;2,85
228,064;2,83
228,333;2,9
228,601;2,85
228,869;2,79
229,138;2,75
229,406;2,82
229,674;2,77
229,942;2,74
230,211;2,77
230,479;2,71
230,747;2,74
231,015;2,77
231,283;2,78
231,552;2,78
231,82;2,79
232,088;2,81
232,356;2,77
232,624;2,76
232,892;2,81
233,16;2,82
233,428;2,83
233,696;2,83
233,964;2,82
234,232;2,9
234,5;2,92
234,768;2,9
235,036;2,86
235,304;2,89
235,572;2,89
235,84;2,8
236,108;2,77
236,376;2,71
236,644;2,68
236,912;2,63
237,179;2,66
237,447;2,6
237,715;2,62
237,983;2,85
238,251;2,84
238,518;2,8
238,786;2,77
239,054;2,77
239,322;2,78
239,589;2,77
239,857;2,71
240,125;2,69
240,392;2,68
240,66;2,74
240,927;2,69
241,195;2,67
241,463;2,73
241,73;2,77
241,998;2,81
242,265;2,79
242,533;2,87
242,8;2,83
243,068;2,87
243,335;2,82
243,603;2,64
243,87;2,63
244,138;2,64
244,405;2,64
244,672;2,64
244,94;2,6
245,207;2,59
245,474;2,59
245,742;2,6
246,009;2,59
246,276;2,53
246,544;2,55
246,811;2,56
247,078;2,53
247,345;2,54
247,613;2,54
247,88;2,52
248,147;2,49
248,414;2,52
248,681;2,52
248,948;2,55
249,215;2,51
249,483;2,5
249,75;2,49
250,017;2,49
250,284;2,48
250,551;2,51
250,818;2,53
251,085;2,51
251,352;2,5
251,619;2,53
251,886;2,53
252,153;2,5
252,42;2,5
252,687;2,52
252,953;2,51
253,22;2,52
253,487;2,51
253,754;2,49
254,021;2,46
254,288;2,44
254,555;2,44
254,821;2,47
255,088;2,46
255,355;2,45
255,622;2,43
255,888;2,42
256,155;2,38
256,422;2,36
256,688;2,37
256,955;2,37
257,222;2,39
257,488;2,4
257,755;2,42
258,022;2,4
258,288;2,36
258,555;2,36
258,821;2,34
259,088;2,38
259,354;2,37
259,621;2,37
259,887;2,42
260,154;2,42
260,42;2,38
260,687;2,39
260,953;2,42
261,219;2,44
261,486;2,41
261,752;2,46
262,019;2,46
262,285;2,46
262,551;2,45
262,818;2,44
263,084;2,44
263,35;2,41
263,616;2,43
263,883;2,46
264,149;2,46
264,415;2,48
264,681;2,47
264,947;2,51
265,214;2,52
265,48;2,51
265,746;2,53
266,012;2,58
266,278;2,56
266,544;2,55
266,81;2,57
267,076;2,6
267,342;2,56
267,608;2,58
267,874;2,56
268,14;2,58
268,406;2,56
268,672;2,57
268,938;2,57
269,204;2,56
269,47;2,54
269,736;2,53
270,002;2,46
270,268;2,46
270,533;2,46
270,799;2,45
271,065;2,42
271,331;2,39
271,597;2,38
271,862;2,4
272,128;2,39
272,394;2,41
272,66;2,41
272,925;2,45
273,191;2,43
273,457;2,46
273,722;2,45
273,988;2,44
274,254;2,43
274,519;2,47
274,785;2,48
275,05;2,48
275,316;2,49
275,582;2,53
275,847;2,53
276,113;2,5
276,378;2,52
276,644;2,53
276,909;2,53
277,174;2,54
277,44;2,56
277,705;2,53
277,971;2,5
278,236;2,52
278,501;2,5
278,767;2,49
279,032;2,48
279,297;2,48
279,563;2,45
279,828;2,45
280,093;2,43
280,358;2,41
280,624;2,41
280,889;2,4
281,154;2,42
281,419;2,43
281,684;2,42
281,95;2,4
282,215;2,42
282,48;2,39
282,745;2,38
283,01;2,37
283,275;2,39
283,54;2,37
283,805;2,33
284,07;2,33
284,335;2,35
284,6;2,34
284,865;2,35
285,13;2,36
285,395;2,37
285,66;2,4
285,925;2,42
286,19;2,44
286,455;2,42
286,72;2,42
286,985;2,41
287,249;2,41
287,514;2,43
287,779;2,41
288,044;2,42
288,309;2,41
288,573;2,39
288,838;2,42
289,103;2,44
289,367;2,44
289,632;2,44
289,897;2,42
290,161;2,44
290,426;2,44
290,691;2,46
290,955;2,44
291,22;2,41
291,484;2,38
291,749;2,36
292,014;2,36
292,278;2,36
292,543;2,37
292,807;2,4
293,072;2,39
293,336;2,37
293,6;2,36
293,865;2,37
294,129;2,37
294,394;2,37
294,658;2,36
294,922;2,34
295,187;2,34
295,451;2,35
295,715;2,33
295,98;2,33
296,244;2,32
296,508;2,32
296,773;2,34
297,037;2,39
297,301;2,39
297,565;2,4
297,829;2,37
298,094;2,36
298,358;2,33
298,622;2,33
298,886;2,36
299,15;2,38
299,414;2,4
299,678;2,4
299,942;2,38
300,206;2,39
300,47;2,41
300,734;2,42
300,998;2,42
301,262;2,44
301,526;2,41
301,79;2,42
302,054;2,43
302,318;2,41
302,582;2,42
302,846;2,39
303,11;2,4
303,374;2,4
303,637;2,41
303,901;2,43
304,165;2,43
304,429;2,43
304,693;2,42
304,956;2,4
305,22;2,42
305,484;2,42
305,747;2,43
306,011;2,44
306,275;2,42
306,538;2,41
306,802;2,42
307,066;2,44
307,329;2,44
307,593;2,44
307,856;2,42
308,12;2,41
308,384;2,45
308,647;2,45
308,911;2,48
309,174;2,49
309,438;2,46
309,701;2,44
309,964;2,46
310,228;2,45
310,491;2,45
310,755;2,45
311,018;2,43
311,281;2,46
311,545;2,46
311,808;2,44
312,071;2,46
312,335;2,42
312,598;2,42
312,861;2,44
313,124;2,46
313,388;2,53
313,651;2,5
313,914;2,5
314,177;2,47
314,44;2,46
314,704;2,45
314,967;2,45
315,23;2,5
315,493;2,49
315,756;2,49
316,019;2,51
316,282;2,53
316,545;2,52
316,808;2,53
317,071;2,52
317,334;2,55
317,597;2,55
317,86;2,58
318,123;2,61
318,386;2,59
318,649;2,54
318,912;2,49
319,175;2,51
319,437;2,52
319,7;2,53
319,963;2,56
320,226;2,56
320,489;2,59
320,751;2,54
321,014;2,53
321,277;2,53
321,54;2,53
321,802;2,5
322,065;2,51
322,328;2,47
322,59;2,46
322,853;2,49
323,116;2,48
323,378;2,47
323,641;2,45
323,903;2,47
324,166;2,51
324,428;2,52
324,691;2,54
324,953;2,53
325,216;2,54
325,478;2,56
325,741;2,54
326,003;2,53
326,266;2,53
326,528;2,52
326,791;2,5
327,053;2,5
327,315;2,49
327,578;2,54
327,84;2,55
328,102;2,54
328,365;2,55
328,627;2,53
328,889;2,52
329,151;2,53
329,414;2,55
329,676;2,54
329,938;2,54
330,2;2,49
330,462;2,49
330,725;2,48
330,987;2,47
331,249;2,5
331,511;2,52
331,773;2,53
332,035;2,58
332,297;2,59
332,559;2,59
332,821;2,62
333,083;2,6
333,345;2,61
333,607;2,66
333,869;2,67
334,131;2,68
334,393;2,73
334,655;2,72
334,917;2,71
335,179;2,71
335,44;2,73
335,702;2,78
335,964;2,78
336,226;2,8
336,488;2,77
336,749;2,78
337,011;2,75
337,273;2,77
337,535;2,76
337,796;2,74
338,058;2,76
338,32;2,75
338,581;2,7
338,843;2,68
339,105;2,68
339,366;2,65
339,628;2,67
339,889;2,64
340,151;2,64
340,412;2,63
340,674;2,65
340,935;2,63
341,197;2,63
341,458;2,64
341,72;2,62
341,981;2,61
342,243;2,58
342,504;2,62
342,766;2,62
343,027;2,61
343,288;2,67
343,55;2,66
343,811;2,67
344,072;2,65
344,334;2,68
344,595;2,68
344,856;2,67
345,117;2,7
345,379;2,71
345,64;2,75
345,901;2,75
346,162;2,77
346,423;2,81
346,684;2,8
346,946;2,82
347,207;2,85
347,468;2,9
347,729;2,93
347,99;2,94
348,251;2,95
348,512;2,97
348,773;2,93
349,034;2,93
349,295;2,96
349,556;3,02
349,817;3,05
350,078;3,04
350,339;3,05
350,6;3,04
350,86;3,06
351,121;3,03
351,382;3,09
351,643;3,05
351,904;3,03
352,165;3,03
352,425;3,04
352,686;3,06
352,947;3,05
353,208;3,06
353,468;3,06
353,729;3,07
353,99;3,09
354,25;3,14
354,511;3,13
354,772;3,15
355,032;3,18
355,293;3,17
355,553;3,18
355,814;3,2
356,074;3,2
356,335;3,24
356,596;3,31
356,856;3,27
357,116;3,31
357,377;3,33
357,637;3,37
357,898;3,38
358,158;3,37
358,419;3,38
358,679;3,41
358,939;3,44
359,2;3,42
359,46;3,46
359,72;3,44
359,981;3,49
360,241;3,43
360,501;3,41
360,761;3,41
361,022;3,44
361,282;3,47
361,542;3,48
361,802;3,45
362,062;3,41
362,323;3,4
362,583;3,42
362,843;3,39
363,103;3,4
363,363;3,38
363,623;3,41
363,883;3,47
364,143;3,48
364,403;3,48
364,663;3,53
364,923;3,51
365,183;3,58
365,443;3,59
365,703;3,64
365,963;3,68
366,223;3,74
366,483;3,7
366,743;3,72
367,002;3,76
367,262;3,78
367,522;3,81
367,782;3,87
368,042;3,9
368,301;3,97
368,561;4
368,821;4,02
369,081;4,04
369,34;4,01
369,6;3,99
369,86;4,01
370,119;4,05
370,379;4,09
370,638;4,1
370,898;4,13
371,158;4,16
371,417;4,19
371,677;4,16
371,936;4,27
372,196;4,31
372,455;4,32
372,715;4,36
372,974;4,43
373,234;4,41
373,493;4,47
373,753;4,53
374,012;4,53
374,271;4,57
374,531;4,58
374,79;4,65
375,049;4,73
375,309;4,77
375,568;4,78
375,827;4,81
376,086;4,8
376,346;4,87
376,605;4,89
376,864;4,9
377,123;4,94
377,383;4,91
377,642;4,95
377,901;4,99
378,16;5,06
378,419;5,04
378,678;5,09
378,937;5,05
379,196;5,05
379,455;5,11
379,714;5,19
379,973;5,3
380,232;5,3
380,491;5,32
380,75;5,34
381,009;5,35
381,268;5,39
381,527;5,45
381,786;5,46
382,045;5,5
382,304;5,57
382,563;5,63
382,821;5,73
383,08;5,77
383,339;5,85
383,598;5,9
383,857;5,95
384,115;6,03
384,374;6,08
384,633;6,19
384,891;6,18
385,15;6,16
385,409;6,22
385,667;6,27
385,926;6,3
386,185;6,35
386,443;6,39
386,702;6,4
386,96;6,45
387,219;6,5
387,477;6,58
387,736;6,61
387,994;6,65
388,253;6,67
388,511;6,68
388,77;6,69
389,028;6,73
389,287;6,73
389,545;6,77
389,803;6,8
390,062;6,84
390,32;6,94
390,578;7,04
390,837;7,04
391,095;7,11
391,353;7,17
391,612;7,22
391,87;7,31
392,128;7,38
392,386;7,42
392,644;7,45
392,903;7,43
393,161;7,45
393,419;7,49
393,677;7,54
393,935;7,59
394,193;7,59
394,451;7,62
394,709;7,67
394,967;7,73
395,225;7,78
395,483;7,81
395,741;7,87
395,999;7,89
396,257;7,98
396,515;8,01
396,773;8,09
397,031;8,14
397,289;8,21
397,547;8,22
397,805;8,25
398,062;8,3
398,32;8,41
398,578;8,52
398,836;8,51
399,094;8,54
399,351;8,55
399,609;8,68
399,867;8,71
400,124;8,79
400,382;8,85
400,64;8,91
400,897;8,93
401,155;8,96
401,413;8,97
401,67;8,98
401,928;9,01
402,185;9,03
402,443;9,1
402,701;9,09
402,958;9,12
403,216;9,17
403,473;9,19
403,73;9,23
403,988;9,22
404,245;9,32
404,503;9,35
404,76;9,41
405,018;9,38
405,275;9,46
405,532;9,49
405,79;9,49
406,047;9,53
406,304;9,58
406,561;9,58
406,819;9,68
407,076;9,69
407,333;9,77
407,59;9,84
407,848;9,83
408,105;9,87
408,362;9,96
408,619;10,06
408,876;10,14
409,133;10,1
409,39;10,15
409,647;10,18
409,904;10,18
410,161;10,23
410,418;10,26
410,675;10,3
410,932;10,29
411,189;10,33
411,446;10,37
411,703;10,36
411,96;10,38
412,217;10,36
412,474;10,36
412,731;10,34
412,988;10,35
413,245;10,44
413,501;10,48
413,758;10,47
414,015;10,42
414,272;10,42
414,529;10,52
414,785;10,52
415,042;10,58
415,299;10,69
415,555;10,67
415,812;10,71
416,069;10,72
416,325;10,78
416,582;10,85
416,838;10,82
417,095;10,85
417,352;10,91
417,608;10,97
417,865;11,06
418,121;11,15
418,378;11,12
418,634;11,15
418,891;11,28
419,147;11,34
419,403;11,41
419,66;11,44
419,916;11,48
420,173;11,48
420,429;11,46
420,685;11,5
420,942;11,57
421,198;11,58
421,454;11,63
421,711;11,63
421,967;11,65
422,223;11,75
422,479;11,82
422,735;11,88
422,992;11,89
423,248;11,88
423,504;11,88
423,76;11,94
424,016;11,92
424,272;11,87
424,528;11,88
424,784;11,89
425,041;11,91
425,297;11,92
425,553;12,02
425,809;12,09
426,065;12,04
426,32;12,07
426,576;12,14
426,832;12,17
427,088;12,24
427,344;12,25
427,6;12,32
427,856;12,31
428,112;12,29
428,368;12,29
428,623;12,33
428,879;12,35
429,135;12,4
429,391;12,45
429,646;12,54
429,902;12,55
430,158;12,6
430,414;12,64
430,669;12,67
430,925;12,69
431,181;12,7
431,436;12,8
431,692;12,83
431,947;12,84
432,203;12,84
432,458;12,81
432,714;12,9
432,97;12,9
433,225;12,94
433,481;12,96
433,736;13,05
433,991;13,1
434,247;13,15
434,502;13,22
434,758;13,29
435,013;13,26
435,268;13,3
435,524;13,32
435,779;13,34
436,034;13,36
436,29;13,37
436,545;13,4
436,8;13,42
437,056;13,47
437,311;13,48
437,566;13,47
437,821;13,49
438,076;13,5
438,331;13,51
438,587;13,58
438,842;13,62
439,097;13,68
439,352;13,73
439,607;13,71
439,862;13,71
440,117;13,72
440,372;13,78
440,627;13,81
440,882;13,82
441,137;13,86
441,392;13,91
441,647;13,96
441,902;14,01
442,157;14,07
442,412;14,09
442,667;14,11
442,921;14,17
443,176;14,27
443,431;14,29
443,686;14,34
443,941;14,33
444,195;14,41
444,45;14,38
444,705;14,4
444,96;14,48
445,214;14,47
445,469;14,44
445,724;14,46
445,978;14,52
446,233;14,59
446,487;14,65
446,742;14,66
446,997;14,7
447,251;14,72
447,506;14,74
447,76;14,77
448,015;14,8
448,269;14,86
448,524;14,88
448,778;14,87
449,033;14,87
449,287;14,91
449,541;14,94
449,796;15
450,05;15,09
450,305;15,14
450,559;15,22
450,813;15,29
451,067;15,27
451,322;15,28
451,576;15,28
451,83;15,3
452,084;15,37
452,339;15,44
452,593;15,49
452,847;15,53
453,101;15,54
453,355;15,63
453,609;15,65
453,864;15,66
454,118;15,71
454,372;15,76
454,626;15,83
454,88;15,89
455,134;15,92
455,388;15,88
455,642;15,89
455,896;15,93
456,15;15,93
456,404;16,03
456,658;16,05
456,912;16,05
457,165;16,04
457,419;16,07
457,673;16,06
457,927;16,06
458,181;16,07
458,435;16,09
458,688;16,09
458,942;16,17
459,196;16,24
459,45;16,29
459,703;16,33
459,957;16,32
460,211;16,36
460,464;16,39
460,718;16,42
460,972;16,49
461,225;16,54
461,479;16,59
461,732;16,6
461,986;16,66
462,239;16,74
462,493;16,8
462,746;16,88
463;16,92
463,253;16,96
463,507;17,02
463,76;17,11
464,014;17,18
464,267;17,19
464,52;17,26
464,774;17,3
465,027;17,31
465,28;17,37
465,534;17,36
465,787;17,42
466,04;17,48
466,294;17,5
466,547;17,49
466,8;17,58
467,053;17,63
467,306;17,71
467,56;17,76
467,813;17,84
468,066;17,85
468,319;17,91
468,572;17,94
468,825;18,04
469,078;18,08
469,331;18,14
469,584;18,22
469,837;18,22
470,09;18,3
470,343;18,39
470,596;18,45
470,849;18,53
471,102;18,57
471,355;18,66
471,608;18,74
471,861;18,85
472,114;18,89
472,367;18,95
472,619;19,05
472,872;19,12
473,125;19,17
473,378;19,24
473,631;19,33
473,883;19,42
474,136;19,44
474,389;19,53
474,641;19,56
474,894;19,6
475,147;19,71
475,399;19,74
475,652;19,81
475,905;19,9
476,157;19,98
476,41;20,04
476,662;20,09
476,915;20,15
477,167;20,2
477,42;20,29
477,672;20,38
477,925;20,43
478,177;20,51
478,43;20,6
478,682;20,63
478,934;20,7
479,187;20,74
479,439;20,83
479,691;20,89
479,944;21
480,196;21,08
480,448;21,14
480,701;21,18
480,953;21,22
481,205;21,29
481,457;21,36
489,77;23,2
490,022;23,21
490,274;23,22
490,525;23,24
490,777;23,28
491,028;23,36
491,28;23,41
491,531;23,46
491,783;23,49
492,034;23,55
492,286;23,57
492,537;23,62
492,789;23,65
493,04;23,67
493,291;23,73
493,543;23,8
493,794;23,82
494,045;23,89
494,297;23,93
494,548;23,98
494,799;24,02
495,051;24,07
495,302;24,12
495,553;24,16
495,804;24,17
496,056;24,23
496,307;24,24
496,558;24,26
496,809;24,3
497,06;24,36
497,311;24,39
497,562;24,44
497,813;24,49
498,064;24,53
498,316;24,58
498,567;24,62
498,818;24,66
499,069;24,72
499,319;24,72
499,57;24,76
499,821;24,79
500,072;24,86
500,323;24,9
500,574;24,96
500,825;25,03
501,076;25,11
501,327;25,13
501,577;25,2
501,828;25,25
502,079;25,29
502,33;25,32
502,58;25,36
502,831;25,4
503,082;25,42
503,333;25,48
503,583;25,53
503,834;25,56
504,084;25,58
504,335;25,62
504,586;25,69
504,836;25,74
505,087;25,78
505,337;25,78
505,588;25,83
505,838;25,86
506,089;25,89
506,339;25,91
506,59;25,96
506,84;25,97
507,091;26,03
507,341;26,05
507,591;26,1
507,842;26,16
508,092;26,19
508,343;26,23
508,593;26,24
508,843;26,21
509,093;26,22
509,344;26,26
509,594;26,28
509,844;26,27
510,094;26,29
510,345;26,31
510,595;26,36
510,845;26,34
511,095;26,36
511,345;26,36
511,595;26,37
511,845;26,36
512,095;26,4
512,345;26,36
512,595;26,36
512,845;26,35
513,095;26,36
513,345;26,37
513,595;26,4
513,845;26,4
514,095;26,45
514,345;26,48
514,595;26,47
514,845;26,47
515,095;26,49
515,345;26,49
515,594;26,48
515,844;26,47
516,094;26,5
516,344;26,5
516,593;26,5
516,843;26,51
517,093;26,51
517,343;26,49
517,592;26,52
517,842;26,52
518,092;26,51
518,341;26,48
518,591;26,46
518,84;26,45
519,09;26,46
519,34;26,42
519,589;26,35
519,839;26,37
520,088;26,34
520,338;26,3
520,587;26,28
520,836;26,26
521,086;26,25
521,335;26,2
521,585;26,14
521,834;26,11
522,083;26,08
522,333;26,05
522,582;26,05
522,831;26,05
523,081;26,02
523,33;25,97
523,579;25,95
523,828;25,94
524,078;25,86
524,327;25,8
524,576;25,78
524,825;25,77
525,074;25,71
525,323;25,67
525,573;25,66
525,822;25,62
526,071;25,59
526,32;25,55
526,569;25,53
526,818;25,53
527,067;25,51
527,316;25,43
527,565;25,41
527,814;25,35
528,063;25,27
528,312;25,24
528,56;25,23
528,809;25,18
529,058;25,14
529,307;25,13
529,556;25,1
529,805;25,04
530,053;25,01
530,302;24,96
530,551;24,94
530,8;24,86
531,048;24,82
531,297;24,77
531,546;24,7
531,794;24,64
532,043;24,58
532,292;24,52
532,54;24,49
532,789;24,41
533,037;24,36
533,286;24,29
533,535;24,22
533,783;24,13
534,032;24,09
534,28;24,02
534,528;23,95
534,777;23,87
535,025;23,82
535,274;23,76
535,522;23,69
535,771;23,61
536,019;23,56
536,267;23,49
536,516;23,4
536,764;23,34
537,012;23,26
537,26;23,16
537,509;23,09
537,757;23,02
538,005;22,95
538,253;22,84
538,501;22,8
538,75;22,7
538,998;22,64
539,246;22,55
539,494;22,47
539,742;22,37
539,99;22,32
540,238;22,23
540,486;22,15
540,734;22,05
540,982;21,97
541,23;21,91
541,478;21,84
541,726;21,76
541,974;21,7
542,222;21,65
542,47;21,61
542,718;21,55
542,966;21,48
543,213;21,4
543,461;21,36
543,709;21,27
543,957;21,21
544,205;21,12
544,452;21,05
544,7;20,97
544,948;20,9
545,196;20,82
545,443;20,79
545,691;20,74
545,939;20,7
546,186;20,63
546,434;20,55
546,681;20,47
546,929;20,4
547,176;20,32
547,424;20,24
547,671;20,14
547,919;20,08
548,166;20,01
548,414;19,94
548,661;19,87
548,909;19,82
549,156;19,75
549,404;19,69
549,651;19,62
549,898;19,58
550,146;19,51
550,393;19,44
550,64;19,36
550,888;19,27
551,135;19,2
551,382;19,11
551,629;19,03
551,876;18,97
552,124;18,91
552,371;18,85
552,618;18,79
552,865;18,73
553,112;18,63
553,359;18,57
553,606;18,5
553,854;18,43
554,101;18,33
554,348;18,27
554,595;18,2
554,842;18,12
555,089;18,04
555,336;17,98
555,582;17,9
555,829;17,81
556,076;17,72
556,323;17,64
556,57;17,57
556,817;17,51
557,064;17,43
557,311;17,35
557,557;17,25
557,804;17,17
558,051;17,08
558,298;17
558,544;16,92
558,791;16,83
559,038;16,7
559,284;16,65
559,531;16,58
559,778;16,49
560,024;16,42
560,271;16,35
560,517;16,28
560,764;16,2
561,011;16,1
561,257;16,05
561,504;15,99
561,75;15,91
561,997;15,81
562,243;15,74
562,489;15,64
562,736;15,59
562,982;15,52
563,229;15,48
563,475;15,42
563,721;15,35
563,968;15,3
564,214;15,28
564,46;15,23
564,707;15,16
564,953;15,11
565,199;15,07
565,445;15,02
565,691;14,93
565,938;14,91
566,184;14,88
566,43;14,84
566,676;14,8
566,922;14,75
567,168;14,72
567,414;14,69
567,66;14,69
567,906;14,66
568,152;14,63
568,398;14,58
568,644;14,56
568,89;14,52
569,136;14,48
569,382;14,45
569,628;14,4
569,874;14,34
570,12;14,3
570,366;14,25
570,612;14,23
570,857;14,22
571,103;14,17
571,349;14,13
571,595;14,1
571,84;14,06
572,086;14,03
572,332;13,99
572,578;13,94
572,823;13,89
573,069;13,85
573,315;13,81
573,56;13,78
573,806;13,72
574,051;13,71
574,297;13,67
574,542;13,64
574,788;13,6
575,034;13,6
575,279;13,56
575,524;13,53
575,77;13,49
576,015;13,45
576,261;13,42
576,506;13,42
576,752;13,38
576,997;13,33
577,242;13,31
577,488;13,29
577,733;13,24
577,978;13,22
578,223;13,18
578,469;13,15
578,714;13,11
578,959;13,1
579,204;13,07
579,45;13,04
579,695;13
579,94;12,98
580,185;12,94
580,43;12,92
580,675;12,89
580,92;12,84
581,165;12,81
581,41;12,78
581,655;12,72
581,9;12,7
582,145;12,67
582,39;12,64
582,635;12,61
582,88;12,6
583,125;12,57
583,37;12,54
583,615;12,49
583,86;12,46
584,105;12,42
584,349;12,37
584,594;12,33
584,839;12,29
585,084;12,25
585,328;12,22
585,573;12,18
585,818;12,14
586,063;12,11
586,307;12,07
586,552;12,02
586,797;11,99
587,041;11,95
587,286;11,91
587,53;11,84
587,775;11,8
588,019;11,75
588,264;11,7
588,508;11,66
588,753;11,64
588,997;11,6
589,242;11,55
589,486;11,51
589,731;11,48
589,975;11,44
590,22;11,41
590,464;11,36
590,708;11,34
590,953;11,3
591,197;11,26
591,441;11,22
591,685;11,22
591,93;11,18
592,174;11,14
592,418;11,11
592,662;11,11
592,907;11,07
593,151;11,05
593,395;11,02
593,639;10,98
593,883;10,94
594,127;10,9
594,371;10,87
594,615;10,83
594,859;10,79
595,103;10,78
595,347;10,73
595,591;10,69
595,835;10,63
596,079;10,61
596,323;10,59
596,567;10,55
596,811;10,5
597,055;10,46
597,299;10,43
597,542;10,41
597,786;10,37
598,03;10,35
598,274;10,32
598,518;10,3
598,761;10,27
599,005;10,25
599,249;10,24
599,492;10,22
599,736;10,2
599,98;10,17
600,223;10,12
600,467;10,11
600,711;10,08
600,954;10,05
601,198;10,01
601,441;9,98
601,685;9,96
601,928;9,94
602,172;9,92
602,415;9,91
602,659;9,88
602,902;9,84
603,145;9,81
603,389;9,78
603,632;9,74
603,876;9,71
604,119;9,7
604,362;9,66
604,606;9,63
604,849;9,6
605,092;9,57
605,335;9,55
605,579;9,53
605,822;9,51
606,065;9,48
606,308;9,46
606,551;9,44
606,794;9,42
607,037;9,39
607,281;9,37
607,524;9,34
607,767;9,31
608,01;9,29
608,253;9,27
608,496;9,26
608,739;9,23
608,982;9,22
609,225;9,19
609,468;9,15
609,711;9,12
609,953;9,11
610,196;9,1
610,439;9,06
610,682;9,02
610,925;9,02
611,168;8,99
611,41;8,96
611,653;8,93
611,896;8,91
612,139;8,88
612,381;8,86
612,624;8,85
612,867;8,83
613,109;8,81
613,352;8,79
613,595;8,76
613,837;8,75
614,08;8,74
614,322;8,72
614,565;8,71
614,807;8,68
615,05;8,66
615,292;8,63
615,535;8,62
615,777;8,59
616,02;8,57
616,262;8,56
616,505;8,57
616,747;8,55
616,989;8,56
617,232;8,56
617,474;8,55
617,716;8,52
617,959;8,5
618,201;8,5
618,443;8,46
618,685;8,44
618,927;8,41
619,17;8,41
619,412;8,42
619,654;8,41
619,896;8,4
620,138;8,4
620,38;8,4
620,622;8,39
620,864;8,4
621,107;8,38
621,349;8,37
621,591;8,36
621,833;8,36
622,075;8,34
622,316;8,35
622,558;8,33
622,8;8,32
623,042;8,3
623,284;8,3
623,526;8,31
623,768;8,32
624,01;8,32
624,251;8,31
624,493;8,29
624,735;8,28
624,977;8,28
625,218;8,27
625,46;8,25
625,702;8,24
625,943;8,22
626,185;8,22
626,427;8,21
626,668;8,19
626,91;8,16
627,152;8,14
627,393;8,11
627,635;8,08
627,876;8,07
628,118;8,08
628,359;8,05
628,601;8,02
628,842;8,01
629,084;8
629,325;7,95
629,566;7,93
629,808;7,92
630,049;7,89
630,29;7,86
630,532;7,85
630,773;7,83
631,014;7,83
631,256;7,81
631,497;7,82
631,738;7,79
631,979;7,79
632,22;7,77
632,462;7,77
632,703;7,76
632,944;7,74
633,185;7,73
633,426;7,74
633,667;7,74
633,908;7,72
634,149;7,69
634,39;7,7
634,631;7,68
634,872;7,67
635,113;7,67
635,354;7,66
635,595;7,66
635,836;7,66
636,077;7,63
636,318;7,62
636,559;7,57
636,8;7,57
637,04;7,55
637,281;7,53
637,522;7,49
637,763;7,49
638,003;7,46
638,244;7,44
638,485;7,4
638,726;7,38
638,966;7,38
639,207;7,38
639,448;7,35
639,688;7,34
639,929;7,32
640,169;7,33
640,41;7,3
640,65;7,27
640,891;7,26
641,131;7,26
641,372;7,26
641,612;7,26
641,853;7,25
642,093;7,26
642,334;7,27
642,574;7,25
642,814;7,25
643,055;7,24
643,295;7,25
643,535;7,26
643,776;7,25
644,016;7,25
644,256;7,26
644,496;7,26
644,737;7,25
644,977;7,25
645,217;7,23
645,457;7,26
645,697;7,26
645,938;7,25
646,178;7,22
646,418;7,22
646,658;7,21
646,898;7,19
647,138;7,17
647,378;7,17
647,618;7,18
647,858;7,17
648,098;7,16
648,338;7,15
648,578;7,14
648,818;7,13
649,057;7,12
649,297;7,07
649,537;7,06
649,777;7,07
650,017;7,05
650,257;7,05
650,496;7,03
650,736;7,03
650,976;7,01
661,506;6,72
661,744;6,72
661,983;6,73
662,222;6,73
662,461;6,72
662,7;6,72
662,939;6,69
663,177;6,67
663,416;6,66
663,655;6,64
663,894;6,63
664,132;6,63
664,371;6,65
664,61;6,65
664,848;6,67
665,087;6,68
665,326;6,69
665,564;6,72
665,803;6,71
666,041;6,74
666,28;6,74
666,518;6,74
666,757;6,71
666,995;6,68
667,234;6,68
667,472;6,69
667,711;6,71
667,949;6,71
668,187;6,72
668,426;6,69
668,664;6,72
668,902;6,7
669,141;6,7
669,379;6,67
669,617;6,67
669,856;6,65
670,094;6,68
670,332;6,66
670,57;6,65
670,808;6,64
671,046;6,65
671,285;6,64
671,523;6,63
671,761;6,64
671,999;6,65
672,237;6,69
672,475;6,71
672,713;6,68
672,951;6,69
673,189;6,69
673,427;6,7
673,665;6,7
673,903;6,69
674,141;6,7
674,379;6,71
674,617;6,73
674,854;6,75
675,092;6,73
675,33;6,75
675,568;6,76
675,806;6,79
676,043;6,79
676,281;6,79
676,519;6,79
676,756;6,82
676,994;6,84
677,232;6,84
677,469;6,83
677,707;6,87
677,945;6,88
678,182;6,89
678,42;6,92
678,657;6,94
678,895;6,95
679,132;6,94
679,37;6,91
679,607;6,9
679,845;6,89
680,082;6,9
680,32;6,9
680,557;6,91
680,794;6,92
681,032;6,93
681,269;6,95
681,507;6,96
681,744;6,97
681,981;7
682,218;6,97
682,456;6,99
682,693;6,99
682,93;7,01
683,167;7,01
683,404;7,02
683,642;7,03
683,879;7,05
684,116;7,09
684,353;7,15
684,59;7,17
684,827;7,19
685,064;7,19
685,301;7,2
685,538;7,21
685,775;7,21
686,012;7,22
686,249;7,23
686,486;7,26
686,723;7,27
686,96;7,26
687,197;7,3
687,433;7,32
687,67;7,36
687,907;7,37
688,144;7,38
688,381;7,39
688,617;7,41
688,854;7,44
689,091;7,44
689,327;7,46
689,564;7,48
689,801;7,48
690,037;7,51
690,274;7,55
690,511;7,57
690,747;7,59
690,984;7,61
691,22;7,66
691,457;7,68
691,693;7,71
691,93;7,74
692,166;7,76
692,403;7,79
692,639;7,77
692,876;7,8
693,112;7,83
693,348;7,83
693,585;7,84
693,821;7,87
694,057;7,9
694,294;7,93
694,53;7,96
694,766;7,98
695,002;8,01
695,239;8,02
695,475;8,06
695,711;8,06
695,947;8,08
696,183;8,08
696,419;8,09
696,656;8,1
696,892;8,11
697,128;8,14
697,364;8,14
697,6;8,15
697,836;8,15
698,072;8,18
698,308;8,23
698,544;8,23
698,78;8,24
699,016;8,23
699,251;8,22
699,487;8,22
699,723;8,24
699,959;8,26
700,195;8,27
700,431;8,27
700,666;8,28
700,902;8,3
701,138;8,3
701,374;8,34
701,609;8,34
701,845;8,34
702,081;8,32
702,316;8,34
702,552;8,36
702,788;8,38
703,023;8,4
703,259;8,39
703,494;8,41
703,73;8,44
703,965;8,47
704,201;8,5
704,436;8,52
704,672;8,55
704,907;8,57
705,143;8,61
705,378;8,6
705,613;8,63
705,849;8,65
706,084;8,68
706,319;8,66
706,555;8,69
706,79;8,72
707,025;8,72
707,26;8,74
707,496;8,75
707,731;8,77
707,966;8,78
708,201;8,8
708,436;8,84
708,671;8,83
708,907;8,82
709,142;8,85
709,377;8,86
709,612;8,88
709,847;8,88
710,082;8,87
710,317;8,87
710,552;8,89
710,787;8,9
711,022;8,88
711,257;8,91
711,492;8,94
711,726;8,94
711,961;8,96
712,196;8,96
712,431;8,97
712,666;8,96
712,901;8,96
713,135;8,96
713,37;8,96
713,605;8,97
713,839;9
714,074;8,98
714,309;8,97
714,543;8,96
714,778;8,96
715,013;8,97
715,247;9
715,482;9
715,716;8,98
715,951;9,01
716,185;9,01
716,42;9
716,654;9,02
716,889;9,05
717,123;9,04
717,358;9,05
717,592;9,07
717,827;9,07
718,061;9,09
718,295;9,06
718,53;9,05
718,764;9,04
718,998;9,06
719,232;9,06
719,467;9,07
719,701;9,08
719,935;9,11
720,169;9,1
720,403;9,1
720,638;9,13
720,872;9,12
721,106;9,1
721,34;9,1
721,574;9,09
721,808;9,09
722,042;9,09
722,276;9,07
722,51;9,07
722,744;9,09
722,978;9,07
723,212;9,09
723,446;9,12
723,68;9,15
723,914;9,15
724,147;9,19
724,381;9,21
724,615;9,2
724,849;9,18
725,083;9,17
725,316;9,19
725,55;9,2
725,784;9,19
726,018;9,21
726,251;9,23
726,485;9,23
726,719;9,21
726,952;9,25
727,186;9,29
727,419;9,31
727,653;9,31
727,887;9,34
728,12;9,37
728,354;9,36
728,587;9,34
728,821;9,34
729,054;9,31
729,287;9,32
729,521;9,33
729,754;9,33
729,988;9,33
730,221;9,34
730,454;9,33
730,688;9,34
730,921;9,35
731,154;9,34
731,387;9,35
731,621;9,37
731,854;9,36
732,087;9,33
732,32;9,34
732,553;9,31
732,787;9,3
733,02;9,29
733,253;9,28
733,486;9,29
733,719;9,28
733,952;9,29
734,185;9,26
734,418;9,25
734,651;9,25
734,884;9,29
735,117;9,28
735,35;9,28
735,583;9,27
735,816;9,27
736,049;9,26
736,281;9,27
736,514;9,25
736,747;9,25
736,98;9,28
737,213;9,26
737,445;9,26
737,678;9,27
737,911;9,27
738,144;9,28
738,376;9,3
738,609;9,3
738,842;9,3
739,074;9,31
739,307;9,3
739,539;9,3
739,772;9,27
740,004;9,27
740,237;9,27
740,469;9,26
740,702;9,24
740,934;9,23
741,167;9,22
741,399;9,24
741,632;9,24
741,864;9,2
742,096;9,21
742,329;9,23
742,561;9,22
742,793;9,2
743,026;9,2
743,258;9,18
743,49;9,17
743,723;9,14
743,955;9,11
744,187;9,12
744,419;9,14
744,651;9,17
744,883;9,15
745,115;9,15
745,348;9,15
745,58;9,15
745,812;9,17
746,044;9,16
746,276;9,14
746,508;9,12
746,74;9,15
746,972;9,16
747,204;9,17
747,436;9,12
747,667;9,12
747,899;9,12
748,131;9,09
748,363;9,09
748,595;9,14
748,827;9,15
749,058;9,13
749,29;9,12
749,522;9,07
749,754;9,1
749,985;9,07
750,217;9,05
750,449;9,05
750,68;9,04
750,912;9,05
751,144;9,07
751,375;9,07
751,607;9,05
751,838;9,04
752,07;9,02
752,301;9,06
752,533;9,06
752,764;9,05
752,996;9,07
753,227;9,05
753,459;9,04
753,69;9,06
753,921;9,07
754,153;9,06
754,384;9,08
754,615;9,04
754,847;9,06
755,078;9,1
755,309;9,13
755,54;9,13
755,772;9,14
756,003;9,12
756,234;9,1
756,465;9,1
756,696;9,07
756,927;9,11
757,159;9,1
757,39;9,09
757,621;9,08
757,852;9,09
758,083;9,09
758,314;9,09
758,545;9,08
758,776;9,09
759,007;9,08
759,238;9,08
759,469;9,11
759,699;9,13
759,93;9,12
760,161;9,08
760,392;9,06
760,623;9,03
760,854;9,02
761,084;9,02
761,315;9,01
761,546;9,03
761,776;9,04
762,007;9,03
762,238;9,03
762,468;9,07
762,699;9,06
762,93;9,07
763,16;9,02
763,391;9,02
763,621;9
763,852;9,01
764,083;8,97
764,313;8,93
764,543;8,91
764,774;8,89
765,004;8,89
765,235;8,88
765,465;8,88
765,696;8,86
765,926;8,88
766,156;8,88
766,387;8,87
766,617;8,84
766,847;8,84
767,077;8,84
767,308;8,83
767,538;8,86
767,768;8,84
767,998;8,87
768,228;8,88
768,459;8,88
768,689;8,89
768,919;8,89
769,149;8,91
769,379;8,91
769,609;8,93
769,839;8,93
770,069;8,92
770,299;8,93
770,529;8,96
770,759;8,96
770,989;8,97
771,219;8,98
771,449;8,96
771,678;8,99
771,908;8,97
772,138;8,94
772,368;8,93
772,598;8,92
772,827;8,91
773,057;8,89
773,287;8,91
773,517;8,9
773,746;8,94
773,976;8,92
774,206;8,9
774,435;8,9
774,665;8,9
774,894;8,9
775,124;8,89
775,354;8,87
775,583;8,85
775,813;8,82
776,042;8,79
776,272;8,78
776,501;8,75
776,73;8,79
776,96;8,81
777,189;8,78
777,419;8,78
777,648;8,78
777,877;8,74
778,107;8,7
778,336;8,69
778,565;8,67
778,794;8,67
779,024;8,67
779,253;8,68
779,482;8,67
779,711;8,69
779,94;8,71
780,17;8,74
780,399;8,75
780,628;8,76
780,857;8,79
781,086;8,83
781,315;8,85
781,544;8,83
781,773;8,82
782,002;8,83
782,231;8,85
782,46;8,86
782,689;8,89
782,918;8,9
783,147;8,89
783,375;8,9
783,604;8,91
783,833;8,94
784,062;8,9
784,291;8,94
784,519;8,94
784,748;8,93
784,977;8,9
785,206;8,9
785,434;8,9
785,663;8,88
785,892;8,88
786,12;8,85
786,349;8,85
786,577;8,85
786,806;8,82
787,034;8,79
787,263;8,8
787,492;8,83
787,72;8,86
787,948;8,88
788,177;8,86
788,405;8,85
788,634;8,84
788,862;8,88
789,09;8,85
789,319;8,88
789,547;8,85
789,775;8,87
790,004;8,88
790,232;8,91
790,46;8,91
790,688;8,87
790,917;8,83
791,145;8,82
791,373;8,81
791,601;8,86
791,829;8,89
792,057;8,91
792,286;8,9
792,514;8,84
792,742;8,83
792,97;8,86
793,198;8,85
793,426;8,83
793,654;8,8
793,882;8,81
794,109;8,78
794,337;8,79
794,565;8,78
794,793;8,79
795,021;8,76
795,249;8,77
795,477;8,78
795,704;8,82
795,932;8,83
796,16;8,8
796,388;8,75
796,615;8,72
796,843;8,7
797,071;8,7
797,298;8,72
797,526;8,69
797,754;8,7
797,981;8,67
798,209;8,71
798,436;8,69
798,664;8,69
798,891;8,67
799,119;8,64
799,346;8,61
799,574;8,58
799,801;8,6
800,029;8,6
800,256;8,63
800,483;8,65
800,711;8,65
800,938;8,61
801,165;8,64
801,393;8,66
801,62;8,62
801,847;8,6
802,074;8,58
802,302;8,63
802,529;8,61
802,756;8,63
802,983;8,61
803,21;8,62
803,437;8,58
803,665;8,58
803,892;8,6
804,119;8,6
804,346;8,59
804,573;8,56
804,8;8,56
805,027;8,53
805,254;8,51
805,481;8,47
805,708;8,56
805,934;8,54
806,161;8,54
806,388;8,55
806,615;8,53
806,842;8,55
807,069;8,54
807,295;8,56
807,522;8,61
807,749;8,6
807,976;8,56
808,202;8,64
808,429;8,63
808,656;8,62
808,882;8,65
809,109;8,66
809,335;8,67
809,562;8,65
809,789;8,64
810,015;8,62
810,242;8,68
810,468;8,66
810,695;8,65
810,921;8,64
811,147;8,63
811,374;8,63
811,6;8,64
811,827;8,62
812,053;8,6
812,279;8,61
812,506;8,6
812,732;8,68
812,958;8,62
813,185;8,62
813,411;8,63
813,637;8,67
813,863;8,69
814,089;8,71
814,315;8,73
814,542;8,72
814,768;8,77
814,994;8,71
815,22;8,71
815,446;8,73
815,672;8,73
815,898;8,79
816,124;8,76
816,35;8,77
816,576;8,77
816,802;8,78
817,028;8,72
817,254;8,75
817,48;8,69
817,705;8,77
817,931;8,75
818,157;8,79
818,383;8,73
818,609;8,69
818,834;8,66
819,06;8,61
819,286;8,7
819,512;8,73
819,737;8,75
819,963;8,75
820,189;8,72
820,414;8,77
820,64;8,74
820,865;8,78
821,091;8,79
821,316;8,79
821,542;8,73
821,767;8,76
821,993;8,73
822,218;8,72
822,444;8,63
822,669;8,63
822,895;8,62
823,12;8,65
823,345;8,64
823,571;8,63
823,796;8,69
824,021;8,63
824,247;8,63
824,472;8,58
824,697;8,56
824,922;8,6
825,147;8,58
825,373;8,61
825,598;8,65
825,823;8,68
826,048;8,68
826,273;8,7
826,498;8,71
826,723;8,74
826,948;8,78
827,173;8,79
827,398;8,84
827,623;8,84
827,848;8,81
828,073;8,86
828,298;8,88
828,523;8,85
828,748;8,84
828,973;8,77
829,197;8,83
829,422;8,8
829,647;8,78
829,872;8,74
830,097;8,71
830,321;8,69
830,546;8,65
830,771;8,61
830,995;8,65
831,22;8,7
831,445;8,64
831,669;8,65
831,894;8,66
832,118;8,64
832,343;8,65
832,567;8,67
832,792;8,63
833,016;8,64
833,241;8,64
833,465;8,63
833,69;8,61
833,914;8,63
834,139;8,69
834,363;8,69
834,587;8,7
834,812;8,7
835,036;8,7
835,26;8,7
835,485;8,78
835,709;8,78
835,933;8,74
836,157;8,75
836,381;8,75
836,606;8,8
836,83;8,85
837,054;8,84
837,278;8,8
837,502;8,78
837,726;8,78
837,95;8,78
838,174;8,82
838,398;8,87
838,622;8,87
838,846;8,84
839,07;8,83
839,294;8,78
839,518;8,79
839,742;8,74
839,966;8,81
840,189;8,79
840,413;8,76
840,637;8,78
840,861;8,77
841,085;8,72
841,308;8,64
841,532;8,57
841,756;8,57
841,979;8,61
842,203;8,66
842,427;8,65
842,65;8,65
842,874;8,68
843,098;8,65
843,321;8,65
843,545;8,65
843,768;8,67
843,992;8,72
844,215;8,74
844,439;8,78
844,662;8,72
844,886;8,72
845,109;8,68
845,332;8,68
845,556;8,72
845,779;8,73
846,002;8,76
846,226;8,8
846,449;8,73
846,672;8,75
846,895;8,74
847,119;8,73
847,342;8,76
847,565;8,76
847,788;8,8
848,011;8,81
848,234;8,82
848,457;8,83
848,681;8,81
848,904;8,76
849,127;8,79
849,35;8,81
849,573;8,87
849,796;8,97
850,019;8,95
850,241;8,94
850,464;8,93
850,687;8,97
850,91;8,99
851,133;9,1
851,356;9,17
851,579;9,17
851,801;9,16
852,024;9,17
852,247;9,11
852,47;9,04
852,692;8,98
852,915;9,02
853,138;9,02
853,36;9,06
853,583;9,1
853,806;9,1
854,028;9,01
854,251;8,9
854,473;8,86
854,696;8,85
854,918;8,87
855,141;8,89
855,363;8,83
855,586;8,81
855,808;8,75
856,031;8,68
856,253;8,67
856,475;8,7
856,698;8,62
856,92;8,62
857,142;8,67
857,365;8,69
857,587;8,61
857,809;8,65
858,031;8,67
858,253;8,61
858,476;8,6
858,698;8,64
858,92;8,64
859,142;8,72
859,364;8,74
859,586;8,77
859,808;8,78
860,03;8,82
860,252;8,87
860,474;8,92
860,696;8,98
860,918;9
861,14;9,05
861,362;9,14
861,584;9,17
861,806;9,17
862,028;9,18
862,25;9,2
862,471;9,12
862,693;9,08
862,915;9,16
863,137;9,13
863,358;9,2
863,58;9,3
863,802;9,24
864,024;9,25
864,245;9,19
864,467;9,22
864,688;9,18
864,91;9,13
865,132;9,03
865,353;8,96
865,575;8,96
865,796;8,95
866,018;8,98
866,239;8,98
866,461;9,02
866,682;9,08
866,903;9,09
867,125;9,14
867,346;9,12
867,567;9,16
867,789;9,23
868,01;9,19
868,231;9,07
868,453;9,08
868,674;9,05
868,895;9,12
869,116;9,1
869,337;9,14
869,559;9,13
869,78;9,21
870,001;9,26
870,222;9,26
870,443;9,2
870,664;9,14
870,885;9,17
871,106;9,14
871,327;9,16
871,548;9,2
871,769;9,1
871,99;9,24
872,211;9,21
872,432;9,25
872,653;9,27
872,874;9,4
873,094;9,45
873,315;9,48
873,536;9,42
873,757;9,43
873,978;9,49
874,198;9,53
874,419;9,52
874,64;9,43
874,86;9,45
875,081;9,49
875,302;9,51
875,522;9,59
875,743;9,68
875,963;9,66
876,184;9,7
876,404;9,78
876,625;9,78
876,845;9,85
877,066;9,85
877,286;9,89
877,507;9,93
877,727;9,86
877,947;9,77
878,168;9,81
878,388;9,81
878,609;9,77
878,829;9,77
879,049;9,81
879,269;9,88
879,49;9,84
879,71;9,87
879,93;9,93
880,15;9,88
880,37;9,85
880,59;9,79
880,811;9,79
881,031;9,8
881,251;9,69
881,471;9,6
881,691;9,55
881,911;9,63
882,131;9,51
882,351;9,59
882,571;9,67
882,791;9,71
883,011;9,73
883,23;9,76
883,45;9,86
883,67;9,9
883,89;9,91
884,11;9,86
884,33;9,86
884,549;9,88
884,769;9,81
884,989;9,71
885,209;9,78
885,428;9,83
885,648;9,78
885,868;9,8
886,087;9,81
886,307;9,73
886,526;9,65
886,746;9,65
886,965;9,63
887,185;9,68
887,404;9,72
887,624;9,78
887,843;9,8
888,063;9,72
888,282;9,68
888,502;9,7
888,721;9,83
888,94;9,9
889,16;9,82
889,379;9,82
889,598;9,93
889,818;9,89
890,037;9,77
890,256;9,86
890,475;9,91
890,694;9,96
890,914;9,99
891,133;10,02
891,352;10,1
891,571;10,06
891,79;10,01
892,009;9,96
892,228;9,98
892,447;10,05
892,666;10,1
892,885;10,13
893,104;10,14
893,323;10,21
893,542;10,18
893,761;10,25
893,98;10,3
894,199;10,31
894,417;10,32
894,636;10,49
894,855;10,49
895,074;10,44
895,293;10,45
895,511;10,5
895,73;10,47
895,949;10,45
896,167;10,4
896,386;10,48
896,605;10,51
896,823;10,44
897,042;10,36
897,26;10,23
897,479;10,29
897,697;10,4
897,916;10,36
898,134;10,35
898,353;10,34
898,571;10,35
898,79;10,38
899,008;10,4
899,227;10,4
899,445;10,46
899,663;10,53
899,882;10,51
900,1;10,49
900,318;10,5
900,536;10,57
900,755;10,62
900,973;10,57
901,191;10,63
901,409;10,7
901,627;10,7
901,846;10,87
902,064;10,73
902,282;10,59
902,5;10,58
902,718;10,58
902,936;10,5
903,154;10,44
903,372;10,38
903,59;10,39
903,808;10,33
904,026;10,42
904,244;10,44
904,462;10,41
904,679;10,5
904,897;10,63
905,115;10,54
905,333;10,67
905,551;10,67
905,768;10,66
905,986;10,54
906,204;10,45
906,422;10,36
906,639;10,48
906,857;10,59
907,074;10,6
907,292;10,53
907,51;10,64
907,727;10,75
907,945;10,84
908,162;10,87
908,38;10,83
908,597;10,7
908,815;10,72
909,032;10,84
909,25;10,89
909,467;10,86
909,684;10,95
909,902;10,91
910,119;10,97
910,337;10,99
910,554;11,04
910,771;11,17
910,988;11,22
911,206;11,3
911,423;11,3
911,64;11,32
911,857;11,35
912,074;11,33
912,291;11,22
912,509;11,22
912,726;11,17
912,943;11,28
913,16;11,37
913,377;11,36
913,594;11,34
913,811;11,32
914,028;11,32
914,245;11,38
914,462;11,35
914,679;11,3
914,896;11,31
915,112;11,42
915,329;11,51
915,546;11,45
915,763;11,48
915,98;11,32
916,196;11,21
916,413;11,37
916,63;11,55
916,847;11,65
917,063;11,64
917,28;11,66
917,497;11,71
917,713;11,76
917,93;11,91
918,146;11,89
918,363;11,91
918,579;11,94
918,796;11,99
919,012;12,11
919,229;12,17
919,445;12,28
919,662;12,27
919,878;12,19
920,095;12,31
920,311;12,2
920,527;12,37
920,744;12,47
920,96;12,46
921,176;12,28
921,392;12,28
921,609;12,37
921,825;12,5
922,041;12,36
922,257;12,24
922,473;12,07
922,69;12,11
922,906;12,04
923,122;11,99
923,338;11,89
923,554;11,76
923,77;11,81
923,986;11,73
924,202;11,85
924,418;11,9
924,634;11,71
924,85;11,82
925,066;11,8
925,282;11,83
925,497;11,95
925,713;12,08
925,929;12,26
926,145;12,17
926,361;12,23
926,576;12,29
926,792;12,32
927,008;12,33
927,224;12,42
927,439;12,55
927,655;12,5
927,871;12,45
928,086;12,43
928,302;12,4
928,517;12,44
928,733;12,29
928,948;12,33
929,164;12,39
929,379;12,36
929,595;12,41
929,81;12,53
930,026;12,37
930,241;12,39
930,456;12,25
930,672;12,27
930,887;12,22
931,102;12,31
931,318;12,42
931,533;12,41
931,748;12,29
931,964;12,18
932,179;12,13
932,394;12,24
932,609;12,4
932,824;12,51
933,039;12,57
933,255;12,6
933,47;12,6
933,685;12,6
933,9;12,69
934,115;12,59
934,33;12,58
934,545;12,66
934,76;12,68
934,975;12,92
935,19;13,05
935,404;13,09
935,619;13,15
935,834;13,2
936,049;13,3
936,264;13,48
936,479;13,55
936,693;13,76
936,908;14,06
937,123;14,22
937,338;14,42
937,552;14,34
937,767;14,42
937,982;14,69
938,196;15,09
938,411;15,04
938,625;15,46
938,84;15,43
939,055;15,58
939,269;15,81
939,484;15,87
939,698;16,02
939,912;15,96
940,127;15,83
940,341;15,85
940,556;16,04
940,77;16,17
940,984;16,07
941,199;16,45
941,413;16,04
941,627;15,88
941,842;15,42
942,056;15,72
942,27;16
942,484;15,83
942,699;16,21
942,913;16,27
943,127;16,27
943,341;16,4
943,555;16,56
943,769;16,65
943,983;16,58
944,197;16,39
944,411;16,73
944,625;16,82
944,839;17,16
945,053;17,34
945,267;17,5
945,481;17,82
945,695;17,58
945,909;18,43
946,123;18,56
946,336;18,8
946,55;19,15
946,764;19,23
946,978;19,33
947,192;19,2
947,405;19,64
947,619;19,57
947,833;18,81
948,046;18,68
948,26;18,3
948,474;17,79
948,687;18,26
948,901;18,24
949,114;18,16
949,328;17,92
949,541;17,22
949,755;17,08
949,968;17,32
950,182;17,44
950,395;16,89
950,609;16,89
950,822;16,81
951,035;16,7
951,249;16,7
951,462;16,74
951,675;16,57
951,889;16,1
952,102;15,99
952,315;16,71
952,528;16,77
952,741;16,95
952,955;17,11
953,168;17,04
953,381;17,02
953,594;17,37
953,807;17,49
954,02;18,17
954,233;17,77
954,446;17,73
954,659;17,85
954,872;17,67
955,085;17,84
955,298;17,77
955,511;17,56
955,724;17,44
955,937;17,46
956,15;17,18
956,362;17,27
956,575;17,51
956,788;17,53
957,001;17,42
957,214;16,9
957,426;17,05
957,639;16,92
957,852;16,56
958,064;16,19
958,277;15,86
958,49;15,67
958,702;16,1
958,915;16,21
959,127;16,03
959,34;16,08
959,552;16,07
959,765;15,93
959,977;16,24
960,19;16,45
960,402;16,33
960,615;16,32
960,827;16,13
961,039;15,83
961,252;15,5
961,464;15,64
961,676;16,25
961,889;16
962,101;15,96
962,313;16,31
962,525;16,11
962,738;16,19
962,95;16,45
963,162;16,25
963,374;16,2
963,586;16,04
963,798;15,94
964,01;15,7
964,222;16
964,434;15,83
964,646;15,53
964,858;15,46
965,07;15,81
965,282;16,04
965,494;16,08
965,706;16,14
965,918;16,13
966,13;16
966,342;16,27
966,553;16,25
966,765;16,28
966,977;16,88
967,189;17,19
967,401;17
967,612;16,8
967,824;16,94
968,036;16,89
968,247;17,02
968,459;17,16
968,67;16,96
968,882;16,75
969,094;16,89
969,305;17,24
969,517;17,12
969,728;17,23
969,94;17,5
970,151;17,57
970,362;17,72
970,574;17,65
970,785;17,84
970,997;17,82
971,208;17,88
971,419;17,5
971,631;17,36
971,842;17,6
972,053;18,05
972,264;17,85
972,476;18,28
972,687;18,18
972,898;18,29
973,109;18,53
973,32;18,6
973,531;18,43
973,742;18,09
973,954;18,38
974,165;18,16
974,376;18,2
974,587;18,63
974,798;18,4
975,009;18,28
975,22;17,91
975,43;17,92
975,641;18,16
975,852;18,09
976,063;17,98
976,274;17,74
976,485;17,48
976,695;17,44
976,906;17,19
977,117;17,35
977,328;17,41
977,538;17,55
977,749;17,79
977,96;18,21
978,17;18,49
978,381;17,93
978,592;18,03
978,802;18,21
979,013;17,84
979,223;18,12
979,434;18,35
979,644;18,81
979,855;18,87
980,065;18,83
980,276;19,11
980,486;19,68
980,696;19,33
980,907;19,15
981,117;19,71
981,327;20
981,538;20,01
981,748;19,7
981,958;19,84
982,169;19,8
982,379;19,75
982,589;19,77
982,799;20,28
983,009;20,37
983,219;20,22
983,43;19,91
983,64;19,78
983,85;19,94
984,06;20,24
984,27;19,98
984,48;20,13
984,69;20,02
984,9;19,21
985,11;19,64
985,32;20,36
985,529;20,07
985,739;19,63
985,949;19,64
986,159;19,63
986,369;19,4
986,579;19,42
986,788;19,72
986,998;19,81
987,208;19,73
987,417;19,26
987,627;19,15
987,837;19,62
988,046;19,45
988,256;19,17
988,466;18,5
988,675;18,73
988,885;18,6
989,094;19,24
989,304;19,89
989,513;20,53
989,723;20,78
989,932;20,89
990,142;21,31
990,351;21,5
990,56;21,45
990,77;21,24
990,979;21,15
991,188;21,02
991,398;21
991,607;20,9
991,816;21,52
992,025;21,56
992,235;21,47
992,444;22,12
992,653;22,64
992,862;22,63
993,071;22,78
993,28;22,79
993,489;22,4
993,698;21,71
993,908;20,45
994,117;19,56
994,326;19,16
994,534;19,11
994,743;18,68
994,952;18,7
995,161;18,31
995,37;18,48
995,579;18,39
995,788;18,49
995,997;18,41
996,205;18,14
996,414;18,57
996,623;19,01
996,832;18,72
997,04;19,11
997,249;19,47
997,458;19,64
997,666;19,33
997,875;19,43
998,084;19,78
998,292;20,36
998,501;20,54
998,709;20,89
998,918;20,99
999,126;21,63
999,335;22,21
999,543;22,9
999,752;23,23
999,96;22,97
1000,169;22,91
1000,377;22,7
1000,585;22,98
1000,794;22,66
1001,002;22,86
1001,21;22,52
1001,418;21,66
1001,627;21,53
1001,835;21,67
1002,043;22,11
1002,251;22,35
1002,459;22,74
1002,668;22,89
1002,876;22,89
1003,084;22,17
1003,292;22,35
1003,5;22,19
1003,708;22,24
1003,916;22,02
1004,124;21,32
1004,332;20,94
1004,54;20,93
1004,748;21,99
1004,956;21,36
1005,163;21,58
1005,371;20,76
1005,579;20,82
1005,787;21,47
1005,995;21,85
1006,202;21,92
1006,41;21,73
1006,618;21,4
1006,826;21,08
1007,033;21,26
1007,241;21,5
1007,449;22,06
1007,656;21,54
1007,864;21,23
1008,071;21,35
1008,279;22,03
1008,486;22,6
1008,694;23,14
1008,901;22,66
1009,109;22,93
1009,316;23,56
1009,524;22,86
1009,731;23,48
1009,938;24,53
1010,146;24,49
1010,353;24,21
1010,56;23,65
1010,768;24
1010,975;24,37
1011,182;24,39
1011,389;23,33
1011,597;23,24
1011,804;23,21
1012,011;23,69
1012,218;23,38
1012,425;22,87
1012,632;23,3
1012,839;22,59
1013,046;21,74
1013,253;22,27
1013,46;21,59
1013,667;22,09
1013,874;22,66
1014,081;22,71
1014,288;21,84
1014,495;22,18
1014,702;21,19
1014,909;20,91
1015,116;20,57
1015,323;21,1
1015,529;21,18
1015,736;22,71
1015,943;23,29
1016,15;22,36
1016,356;22,57
1016,563;23,87
1016,77;23,81
1016,976;23,27
1017,183;23,24
1017,389;24,6
1017,596;24,84
1017,803;24,57
1018,009;24,83
1018,216;24,54
1018,422;24,33
1018,629;24,35
1018,835;23,09
1019,041;24,74
1019,248;25,97
1019,454;25,56
1019,661;23,87
1019,867;23,53
1020,073;25
1020,279;24,61
1020,486;26,05
1020,692;26,76
1020,898;25,59
1021,104;25,21
1021,311;24,69
1021,517;24,4
1021,723;23,89
1021,929;23,93
1022,135;23,88
1022,341;23,6
1022,547;24,3
1022,753;24,66
1022,959;24,19
1023,165;24,99
1023,371;25,43
1023,577;23,65
1023,783;23,45
1023,989;25,39
1024,195;27,32
1024,401;26,38
1024,607;26,54
1024,812;26,01
1025,018;25,56
1025,224;26,22
1025,43;27,45
1025,635;27,8
1025,841;30,04
1026,047;30,84
1026,252;29,86
1026,458;31,45
1026,664;30,79
1026,869;30,38
1027,075;31,08
1027,28;30,65
1027,486;30,27
1027,691;29,56
1027,897;31,44
1028,102;30,81
1028,308;28,79
1028,513;28,12
1028,719;26,26
1028,924;28,27
1029,129;28,13
1029,335;27,5
1029,54;27,98
1029,745;27,14
1029,95;25,27
1030,156;23,99
1030,361;22,14
1030,566;22,72
1030,771;20,76
1030,976;22,9
1031,182;23,04
1031,387;21,58
1031,592;22,16
1031,797;21,5
1032,002;19,67
1032,207;19,12
1032,412;19,68
1032,617;20,66
1032,822;19,45
1033,027;21,7
1033,232;18,56
1033,437;19,63
1033,642;19,33
1033,846;18,84
1034,051;16,77
1034,256;20,18
1034,461;19,05
1034,666;20,56
1034,87;21,1
1035,075;21,2
1035,28;17,85
1035,484;18,04
1035,689;17,3
1035,894;17,55
1036,098;17,9
1036,303;19,36
1036,507;19,5
1036,712;18,89
1036,917;19,83
1037,121;23,06
1037,325;22,72
1037,53;24,76
1037,734;25,92
1037,939;27,48
1038,143;30,37
1038,348;32,77
1038,552;31,83
1038,756;33,03
1038,961;33,58
1039,165;34,04
1039,369;34,64
1039,573;37,08
1039,778;36,36
1039,982;39,4
1040,186;39,47
1040,39;39,54
1040,594;40,68
1040,798;38,91
1041,002;40,23
1041,206;37,89
1041,41;35,84
1041,614;33,42
1041,818;32,2
1042,022;31,39
1042,226;28,59
1042,43;27,29
1042,634;26,17
1042,838;25,69
1043,042;25,42
1043,246;25,48
1043,45;23,76
1043,653;25,15
1043,857;25,17
1044,061;26,06
1044,265;22,96
1044,468;24,34
1044,672;25,89
1044,876;24,95
1045,079;25,89
1045,283;27,07
1045,487;29,43
1045,69;28,18
1045,894;29,33
1046,097;31,7
1046,301;31,52
1046,504;34,02
1046,708;34,05
1046,911;36,73
1047,115;36,26
1047,318;35,69
1047,522;37,19
1047,725;37,32
1047,928;38,37
1048,132;36,94
1048,335;38,99
1048,538;40,27
1048,741;37,49
1048,945;38,32
1049,148;36,7
1049,351;38,24
1049,554;38,87
1049,757;42,28
1049,96;41,18
1050,163;43,26
1050,367;39,45
1050,57;42,84
1050,773;41,46
1050,976;40,82
1051,179;38,06
1051,382;38,84
1051,585;41
1051,787;40,76
1051,99;42,36
1052,193;38,85
1052,396;39,04
1052,599;36,37
1052,802;34,92
1053,005;35,56
1053,207;33,45
1053,41;33,65
1053,613;31,89
1053,815;32,05
1054,018;28,01
1054,221;32,13
1054,423;30,92
1054,626;32,28
1054,829;27,54
1055,031;29,15
1055,234;26,49
1055,436;28,79
1055,639;29,09
1055,841;26,49
1056,044;25,1
1056,246;23,05
