Data from malachiteVSwhite_Reflection__3__51.txt Node;
"Date: Wed Sep 10 12:52:51 CEST 2025 User: sycur Spectrometer: SR400348 Trigger mode: 0 Integration Time (sec): 1,000000E-2 Scans to average: 10 Electric dark correction enabled: true Nonlinearity correction enabled: false Boxcar width: 10 XAxis mode: Wavelengths Number of Pixels in Spectrum: 3648 >>>>>Begin Spectral Data<<<<<";
186,01;23,88
186,281;80,41
186,552;83,49
186,822;76,64
187,093;-166,67
187,364;-34,1
187,635;65,67
187,905;30,17
188,176;32,79
188,447;21,94
188,717;13,98
188,988;13,73
189,258;4,9
189,529;11,76
189,8;7,12
190,07;4,34
190,341;4,2
190,611;4,21
190,882;2,48
191,152;7,1
191,423;5,36
191,693;6,03
191,964;2,54
192,234;6,52
192,505;6,31
192,775;9,66
193,045;10,7
193,316;6,96
193,586;6,9
193,856;5,86
194,127;5,61
194,397;7,46
194,667;7,1
194,938;7,14
195,208;5,25
195,478;5,82
195,748;6,27
196,019;5,4
196,289;5,2
196,559;4,24
196,829;2,97
197,099;3,79
197,37;3,9
197,64;4
197,91;2,64
198,18;3,1
198,45;2,75
198,72;2,44
198,99;3,89
199,26;3,8
199,53;4,38
199,8;4,04
200,07;3,44
200,34;2,86
200,61;3,48
200,88;4,61
201,15;5,36
201,42;4,82
201,69;4,6
201,96;3,68
202,23;4,58
202,499;5,22
202,769;5,32
203,039;4,7
203,309;4,4
203,579;4,46
203,849;4,78
204,118;4,25
204,388;4,37
204,658;3,85
204,927;4,04
205,197;3,65
205,467;3,82
205,736;4,27
206,006;4,67
206,276;4,37
206,545;4,4
206,815;4,3
207,085;4,64
207,354;4,94
207,624;4,79
207,893;4,6
208,163;4,38
208,432;4,68
208,702;4,87
208,971;4,43
209,241;4,96
209,51;4,91
209,78;5,11
210,049;5,07
210,318;5,27
210,588;5,3
210,857;5,34
211,127;5,56
211,396;4,94
211,665;4,81
211,935;5,16
212,204;5,2
212,473;5,02
212,742;4,87
213,012;4,92
213,281;5,31
213,55;5,44
213,819;5,32
214,088;5,05
214,358;5,12
214,627;5,17
214,896;4,67
215,165;4,48
215,434;4,27
215,703;4,03
215,972;3,74
216,241;3,69
216,51;3,62
216,779;3,48
217,048;3,71
217,317;3,55
217,586;3,5
217,855;3,42
218,124;3,49
218,393;3,43
218,662;3,35
218,931;3,33
219,2;3,11
219,469;3,18
219,738;3,14
220,006;3,04
220,275;3,16
220,544;3,34
220,813;3,41
221,082;3,42
221,35;3,53
221,619;3,69
221,888;3,63
222,157;3,68
222,425;3,69
222,694;3,5
222,963;3,58
223,231;3,45
223,5;3,38
223,769;3,27
224,037;3,24
224,306;3,22
224,574;3,2
224,843;3,17
225,111;3,12
225,38;3,09
225,648;3,01
225,917;3
226,185;2,94
226,454;2,91
226,722;3,04
226,991;3,01
227,259;3,02
227,528;3
227,796;2,99
228,064;2,95
228,333;3,06
228,601;3
228,869;2,99
229,138;2,97
229,406;3,01
229,674;3,08
229,942;3,04
230,211;3,07
230,479;3,17
230,747;3,18
231,015;3,19
231,283;3,22
231,552;3,23
231,82;3,18
232,088;3,18
232,356;3,15
232,624;3,13
232,892;3,11
233,16;3,09
233,428;3,04
233,696;3,03
233,964;2,97
234,232;2,98
234,5;2,97
234,768;2,96
235,036;2,96
235,304;2,95
235,572;3,02
235,84;2,94
236,108;2,87
236,376;2,85
236,644;2,83
236,912;2,83
237,179;2,8
237,447;2,77
237,715;2,73
237,983;2,7
238,251;2,69
238,518;2,69
238,786;2,69
239,054;2,69
239,322;2,69
239,589;2,7
239,857;2,68
240,125;2,68
240,392;2,68
240,66;2,67
240,927;2,62
241,195;2,55
241,463;2,59
241,73;2,62
241,998;2,59
242,265;2,56
242,533;2,58
242,8;2,58
243,068;2,59
243,335;2,59
243,603;2,61
243,87;2,61
244,138;2,6
244,405;2,62
244,672;2,65
244,94;2,62
245,207;2,6
245,474;2,61
245,742;2,62
246,009;2,58
246,276;2,61
246,544;2,61
246,811;2,61
247,078;2,61
247,345;2,59
247,613;2,63
247,88;2,65
248,147;2,59
248,414;2,6
248,681;2,6
248,948;2,64
249,215;2,59
249,483;2,57
249,75;2,56
250,017;2,49
250,284;2,48
250,551;2,5
250,818;2,52
251,085;2,52
251,352;2,51
251,619;2,53
251,886;2,51
252,153;2,53
252,42;2,51
252,687;2,52
252,953;2,51
253,22;2,47
253,487;2,47
253,754;2,51
254,021;2,49
254,288;2,48
254,555;2,48
254,821;2,51
255,088;2,51
255,355;2,5
255,622;2,54
255,888;2,53
256,155;2,48
256,422;2,49
256,688;2,5
256,955;2,5
257,222;2,5
257,488;2,51
257,755;2,51
258,022;2,54
258,288;2,52
258,555;2,51
258,821;2,51
259,088;2,52
259,354;2,51
259,621;2,52
259,887;2,55
260,154;2,55
260,42;2,49
260,687;2,51
260,953;2,52
261,219;2,53
261,486;2,49
261,752;2,53
262,019;2,49
262,285;2,44
262,551;2,43
262,818;2,43
263,084;2,39
263,35;2,36
263,616;2,33
263,883;2,35
264,149;2,36
264,415;2,38
264,681;2,35
264,947;2,36
265,214;2,36
265,48;2,33
265,746;2,33
266,012;2,38
266,278;2,34
266,544;2,34
266,81;2,34
267,076;2,4
267,342;2,39
267,608;2,42
267,874;2,46
268,14;2,47
268,406;2,46
268,672;2,48
268,938;2,51
269,204;2,49
269,47;2,49
269,736;2,48
270,002;2,46
270,268;2,48
270,533;2,44
270,799;2,44
271,065;2,44
271,331;2,41
271,597;2,42
271,862;2,46
272,128;2,43
272,394;2,43
272,66;2,43
272,925;2,44
273,191;2,43
273,457;2,44
273,722;2,43
273,988;2,42
274,254;2,41
274,519;2,41
274,785;2,42
275,05;2,39
275,316;2,39
275,582;2,4
275,847;2,38
276,113;2,38
276,378;2,36
276,644;2,37
276,909;2,35
277,174;2,34
277,44;2,34
277,705;2,35
277,971;2,33
278,236;2,3
278,501;2,3
278,767;2,3
279,032;2,3
279,297;2,33
279,563;2,3
279,828;2,29
280,093;2,27
280,358;2,26
280,624;2,28
280,889;2,27
281,154;2,26
281,419;2,28
281,684;2,29
281,95;2,29
282,215;2,28
282,48;2,29
282,745;2,29
283,01;2,29
283,275;2,28
283,54;2,25
283,805;2,24
284,07;2,24
284,335;2,23
284,6;2,17
284,865;2,13
285,13;2,14
285,395;2,17
285,66;2,19
285,925;2,19
286,19;2,2
286,455;2,21
286,72;2,22
286,985;2,2
287,249;2,22
287,514;2,22
287,779;2,21
288,044;2,22
288,309;2,2
288,573;2,2
288,838;2,24
289,103;2,25
289,367;2,24
289,632;2,24
289,897;2,24
290,161;2,27
290,426;2,3
290,691;2,33
290,955;2,3
291,22;2,27
291,484;2,26
291,749;2,24
292,014;2,21
292,278;2,21
292,543;2,23
292,807;2,22
293,072;2,21
293,336;2,21
293,6;2,21
293,865;2,21
294,129;2,22
294,394;2,19
294,658;2,2
294,922;2,2
295,187;2,19
295,451;2,18
295,715;2,17
295,98;2,16
296,244;2,14
296,508;2,14
296,773;2,17
297,037;2,18
297,301;2,2
297,565;2,21
297,829;2,19
298,094;2,18
298,358;2,16
298,622;2,16
298,886;2,16
299,15;2,17
299,414;2,17
299,678;2,16
299,942;2,15
300,206;2,16
300,47;2,16
300,734;2,15
300,998;2,16
301,262;2,17
301,526;2,15
301,79;2,16
302,054;2,19
302,318;2,17
302,582;2,17
302,846;2,13
303,11;2,14
303,374;2,16
303,637;2,15
303,901;2,17
304,165;2,17
304,429;2,18
304,693;2,16
304,956;2,15
305,22;2,17
305,484;2,19
305,747;2,19
306,011;2,21
306,275;2,19
306,538;2,19
306,802;2,19
307,066;2,21
307,329;2,22
307,593;2,2
307,856;2,19
308,12;2,19
308,384;2,22
308,647;2,24
308,911;2,24
309,174;2,26
309,438;2,22
309,701;2,21
309,964;2,21
310,228;2,2
310,491;2,21
310,755;2,18
311,018;2,18
311,281;2,18
311,545;2,18
311,808;2,18
312,071;2,19
312,335;2,14
312,598;2,14
312,861;2,14
313,124;2,15
313,388;2,19
313,651;2,19
313,914;2,18
314,177;2,15
314,44;2,13
314,704;2,12
314,967;2,14
315,23;2,15
315,493;2,15
315,756;2,17
316,019;2,19
316,282;2,22
316,545;2,2
316,808;2,24
317,071;2,21
317,334;2,25
317,597;2,26
317,86;2,3
318,123;2,32
318,386;2,3
318,649;2,27
318,912;2,27
319,175;2,27
319,437;2,28
319,7;2,31
319,963;2,32
320,226;2,32
320,489;2,33
320,751;2,33
321,014;2,32
321,277;2,3
321,54;2,29
321,802;2,28
322,065;2,28
322,328;2,26
322,59;2,27
322,853;2,27
323,116;2,23
323,378;2,25
323,641;2,2
323,903;2,24
324,166;2,28
324,428;2,27
324,691;2,27
324,953;2,25
325,216;2,26
325,478;2,27
325,741;2,24
326,003;2,26
326,266;2,25
326,528;2,25
326,791;2,26
327,053;2,27
327,315;2,25
327,578;2,29
327,84;2,27
328,102;2,26
328,365;2,27
328,627;2,25
328,889;2,26
329,151;2,28
329,414;2,29
329,676;2,26
329,938;2,25
330,2;2,26
330,462;2,28
330,725;2,25
330,987;2,25
331,249;2,28
331,511;2,28
331,773;2,29
332,035;2,32
332,297;2,34
332,559;2,32
332,821;2,33
333,083;2,28
333,345;2,29
333,607;2,28
333,869;2,27
334,131;2,3
334,393;2,31
334,655;2,27
334,917;2,23
335,179;2,24
335,44;2,26
335,702;2,23
335,964;2,21
336,226;2,23
336,488;2,21
336,749;2,19
337,011;2,18
337,273;2,18
337,535;2,18
337,796;2,14
338,058;2,17
338,32;2,16
338,581;2,18
338,843;2,14
339,105;2,19
339,366;2,19
339,628;2,2
339,889;2,16
340,151;2,2
340,412;2,19
340,674;2,2
340,935;2,19
341,197;2,24
341,458;2,24
341,72;2,22
341,981;2,23
342,243;2,23
342,504;2,25
342,766;2,24
343,027;2,21
343,288;2,24
343,55;2,27
343,811;2,28
344,072;2,2
344,334;2,22
344,595;2,16
344,856;2,17
345,117;2,18
345,379;2,2
345,64;2,23
345,901;2,27
346,162;2,28
346,423;2,3
346,684;2,27
346,946;2,29
347,207;2,3
347,468;2,32
347,729;2,35
347,99;2,34
348,251;2,37
348,512;2,39
348,773;2,36
349,034;2,35
349,295;2,4
349,556;2,48
349,817;2,49
350,078;2,55
350,339;2,53
350,6;2,54
350,86;2,58
351,121;2,55
351,382;2,53
351,643;2,47
351,904;2,46
352,165;2,47
352,425;2,46
352,686;2,47
352,947;2,47
353,208;2,42
353,468;2,41
353,729;2,39
353,99;2,42
354,25;2,45
354,511;2,43
354,772;2,43
355,032;2,44
355,293;2,48
355,553;2,46
355,814;2,49
356,074;2,46
356,335;2,46
356,596;2,52
356,856;2,55
357,116;2,57
357,377;2,63
357,637;2,65
357,898;2,64
358,158;2,65
358,419;2,64
358,679;2,72
358,939;2,76
359,2;2,75
359,46;2,75
359,72;2,73
359,981;2,71
360,241;2,7
360,501;2,69
360,761;2,68
361,022;2,69
361,282;2,7
361,542;2,74
361,802;2,71
362,062;2,67
362,323;2,67
362,583;2,69
362,843;2,63
363,103;2,66
363,363;2,67
363,623;2,69
363,883;2,73
364,143;2,72
364,403;2,71
364,663;2,77
364,923;2,78
365,183;2,83
365,443;2,92
365,703;2,93
365,963;2,97
366,223;2,99
366,483;3
366,743;2,98
367,002;2,99
367,262;2,98
367,522;3,02
367,782;3,06
368,042;3,07
368,301;3,11
368,561;3,1
368,821;3,08
369,081;3,11
369,34;3,11
369,6;3,07
369,86;3,13
370,119;3,13
370,379;3,17
370,638;3,22
370,898;3,19
371,158;3,19
371,417;3,2
371,677;3,18
371,936;3,23
372,196;3,28
372,455;3,33
372,715;3,35
372,974;3,39
373,234;3,35
373,493;3,4
373,753;3,43
374,012;3,44
374,271;3,5
374,531;3,5
374,79;3,55
375,049;3,65
375,309;3,66
375,568;3,64
375,827;3,64
376,086;3,61
376,346;3,64
376,605;3,68
376,864;3,66
377,123;3,71
377,383;3,68
377,642;3,73
377,901;3,72
378,16;3,75
378,419;3,73
378,678;3,75
378,937;3,79
379,196;3,76
379,455;3,77
379,714;3,79
379,973;3,85
380,232;3,84
380,491;3,82
380,75;3,84
381,009;3,91
381,268;3,92
381,527;3,98
381,786;3,98
382,045;4
382,304;4,05
382,563;4,08
382,821;4,14
383,08;4,11
383,339;4,21
383,598;4,28
383,857;4,31
384,115;4,36
384,374;4,34
384,633;4,44
384,891;4,47
385,15;4,49
385,409;4,5
385,667;4,53
385,926;4,55
386,185;4,57
386,443;4,58
386,702;4,58
386,96;4,57
387,219;4,6
387,477;4,65
387,736;4,62
387,994;4,65
388,253;4,66
388,511;4,69
388,77;4,69
389,028;4,69
389,287;4,69
389,545;4,69
389,803;4,74
390,062;4,69
390,32;4,75
390,578;4,82
390,837;4,85
391,095;4,91
391,353;4,98
391,612;5,01
391,87;5,07
392,128;5,16
392,386;5,19
392,644;5,21
392,903;5,25
393,161;5,3
393,419;5,34
393,677;5,39
393,935;5,44
394,193;5,42
394,451;5,45
394,709;5,48
394,967;5,54
395,225;5,57
395,483;5,67
395,741;5,69
395,999;5,71
396,257;5,77
396,515;5,78
396,773;5,81
397,031;5,81
397,289;5,83
397,547;5,82
397,805;5,87
398,062;5,93
398,32;5,96
398,578;6,02
398,836;6,02
399,094;6,03
399,351;6,03
399,609;6,1
399,867;6,16
400,124;6,19
400,382;6,23
400,64;6,29
400,897;6,28
401,155;6,29
401,413;6,32
401,67;6,34
401,928;6,37
402,185;6,38
402,443;6,42
402,701;6,47
402,958;6,51
403,216;6,5
403,473;6,54
403,73;6,53
403,988;6,55
404,245;6,57
404,503;6,6
404,76;6,63
405,018;6,61
405,275;6,64
405,532;6,7
405,79;6,7
406,047;6,69
406,304;6,73
406,561;6,78
406,819;6,85
407,076;6,84
407,333;6,9
407,59;6,96
407,848;7
408,105;7,02
408,362;7,07
408,619;7,13
408,876;7,14
409,133;7,16
409,39;7,2
409,647;7,27
409,904;7,3
410,161;7,39
410,418;7,44
410,675;7,42
410,932;7,42
411,189;7,45
411,446;7,48
411,703;7,5
411,96;7,51
412,217;7,47
412,474;7,45
412,731;7,43
412,988;7,42
413,245;7,5
413,501;7,52
413,758;7,51
414,015;7,53
414,272;7,51
414,529;7,63
414,785;7,66
415,042;7,71
415,299;7,76
415,555;7,67
415,812;7,68
416,069;7,74
416,325;7,78
416,582;7,85
416,838;7,93
417,095;7,92
417,352;7,94
417,608;8,03
417,865;8,1
418,121;8,13
418,378;8,14
418,634;8,12
418,891;8,18
419,147;8,24
419,403;8,27
419,66;8,36
419,916;8,37
420,173;8,35
420,429;8,3
420,685;8,37
420,942;8,46
421,198;8,51
421,454;8,53
421,711;8,53
421,967;8,53
422,223;8,5
422,479;8,6
422,735;8,65
422,992;8,6
423,248;8,62
423,504;8,67
423,76;8,75
424,016;8,79
424,272;8,79
424,528;8,77
424,784;8,77
425,041;8,79
425,297;8,8
425,553;8,87
425,809;8,92
426,065;8,82
426,32;8,85
426,576;8,84
426,832;8,86
427,088;8,9
427,344;8,91
427,6;8,95
427,856;8,94
428,112;8,95
428,368;9,01
428,623;9
428,879;9
429,135;9
429,391;9,03
429,646;9,08
429,902;9,1
430,158;9,16
430,414;9,17
430,669;9,22
430,925;9,23
431,181;9,26
431,436;9,39
431,692;9,4
431,947;9,46
432,203;9,45
432,458;9,49
432,714;9,57
432,97;9,59
433,225;9,63
433,481;9,66
433,736;9,7
433,991;9,77
434,247;9,81
434,502;9,88
434,758;9,89
435,013;9,91
435,268;9,96
435,524;9,98
435,779;10,01
436,034;10,03
436,29;10,11
436,545;10,11
436,8;10,14
437,056;10,23
437,311;10,24
437,566;10,31
437,821;10,34
438,076;10,35
438,331;10,44
438,587;10,51
438,842;10,58
439,097;10,65
439,352;10,69
439,607;10,71
439,862;10,69
440,117;10,73
440,372;10,74
440,627;10,79
440,882;10,81
441,137;10,87
441,392;10,9
441,647;10,88
441,902;10,97
442,157;11,01
442,412;11,01
442,667;11,07
442,921;11,09
443,176;11,15
443,431;11,19
443,686;11,16
443,941;11,17
444,195;11,15
444,45;11,13
444,705;11,19
444,96;11,24
445,214;11,27
445,469;11,31
445,724;11,36
445,978;11,4
446,233;11,43
446,487;11,44
446,742;11,46
446,997;11,47
447,251;11,46
447,506;11,46
447,76;11,49
448,015;11,51
448,269;11,55
448,524;11,57
448,778;11,58
449,033;11,57
449,287;11,56
449,541;11,62
449,796;11,67
450,05;11,71
450,305;11,72
450,559;11,76
450,813;11,8
451,067;11,81
451,322;11,82
451,576;11,85
451,83;11,88
452,084;11,92
452,339;12,02
452,593;12,09
452,847;12,12
453,101;12,17
453,355;12,19
453,609;12,21
453,864;12,25
454,118;12,24
454,372;12,32
454,626;12,45
454,88;12,5
455,134;12,56
455,388;12,57
455,642;12,65
455,896;12,68
456,15;12,67
456,404;12,71
456,658;12,72
456,912;12,72
457,165;12,79
457,419;12,79
457,673;12,77
457,927;12,73
458,181;12,75
458,435;12,77
458,688;12,82
458,942;12,86
459,196;12,86
459,45;12,94
459,703;12,94
459,957;12,91
460,211;12,93
460,464;12,94
460,718;12,94
460,972;12,94
461,225;12,96
461,479;13,06
461,732;13,07
461,986;13,12
462,239;13,2
462,493;13,24
462,746;13,34
463;13,39
463,253;13,5
463,507;13,55
463,76;13,63
464,014;13,66
464,267;13,73
464,52;13,8
464,774;13,86
465,027;13,94
465,28;14,02
465,534;14,02
465,787;14,08
466,04;14,12
466,294;14,19
466,547;14,23
466,8;14,29
467,053;14,33
467,306;14,35
467,56;14,4
467,813;14,41
468,066;14,41
468,319;14,41
468,572;14,41
468,825;14,48
469,078;14,54
469,331;14,61
469,584;14,64
469,837;14,69
470,09;14,72
470,343;14,75
470,596;14,78
470,849;14,84
471,102;14,87
471,355;14,97
471,608;15,05
471,861;15,16
472,114;15,19
472,367;15,27
472,619;15,36
472,872;15,43
473,125;15,52
473,378;15,6
473,631;15,71
473,883;15,76
474,136;15,78
474,389;15,83
474,641;15,85
474,894;15,9
475,147;15,98
475,399;16,05
475,652;16,12
475,905;16,19
476,157;16,25
476,41;16,32
476,662;16,36
476,915;16,39
477,167;16,42
477,42;16,48
477,672;16,53
477,925;16,59
478,177;16,63
478,43;16,7
478,682;16,75
478,934;16,79
479,187;16,87
479,439;16,93
479,691;16,98
479,944;17,08
480,196;17,14
480,448;17,21
480,701;17,23
480,953;17,31
481,205;17,34
489,267;19,55
489,519;19,52
489,77;19,54
490,022;19,58
490,274;19,6
490,525;19,64
490,777;19,66
491,028;19,73
491,28;19,75
491,531;19,8
491,783;19,82
492,034;19,87
492,286;19,92
492,537;19,98
492,789;20
493,04;20,02
493,291;20,06
493,543;20,14
493,794;20,16
494,045;20,23
494,297;20,27
494,548;20,32
494,799;20,35
495,051;20,39
495,302;20,42
495,553;20,48
495,804;20,49
496,056;20,56
496,307;20,58
496,558;20,65
496,809;20,69
497,06;20,78
497,311;20,82
497,562;20,86
497,813;20,89
498,064;20,94
498,316;21,01
498,567;21,06
498,818;21,08
499,069;21,14
499,319;21,16
499,57;21,22
499,821;21,25
500,072;21,31
500,323;21,37
500,574;21,41
500,825;21,44
501,076;21,52
501,327;21,53
501,577;21,59
501,828;21,57
502,079;21,64
502,33;21,65
502,58;21,7
502,831;21,71
503,082;21,75
503,333;21,8
503,583;21,82
503,834;21,88
504,084;21,92
504,335;21,95
504,586;21,98
504,836;22
505,087;22,05
505,337;22,1
505,588;22,13
505,838;22,17
506,089;22,25
506,339;22,29
506,59;22,37
506,84;22,39
507,091;22,49
507,341;22,53
507,591;22,59
507,842;22,61
508,092;22,66
508,343;22,67
508,593;22,68
508,843;22,67
509,093;22,65
509,344;22,68
509,594;22,74
509,844;22,79
510,094;22,84
510,345;22,89
510,595;22,91
510,845;22,93
511,095;22,95
511,345;22,94
511,595;22,96
511,845;22,94
512,095;22,97
512,345;22,94
512,595;22,94
512,845;22,93
513,095;22,95
513,345;22,95
513,595;22,95
513,845;22,95
514,095;22,99
514,345;23,04
514,595;23,03
514,845;23,02
515,095;23
515,345;22,98
515,594;22,98
515,844;22,97
516,094;22,96
516,344;22,94
516,593;22,91
516,843;22,89
517,093;22,9
517,343;22,87
517,592;22,88
517,842;22,9
518,092;22,91
518,341;22,88
518,591;22,89
518,84;22,9
519,09;22,93
519,34;22,88
519,589;22,82
519,839;22,82
520,088;22,78
520,338;22,75
520,587;22,73
520,836;22,66
521,086;22,65
521,335;22,62
521,585;22,61
521,834;22,6
522,083;22,59
522,333;22,57
522,582;22,55
522,831;22,54
523,081;22,48
523,33;22,41
523,579;22,39
523,828;22,38
524,078;22,35
524,327;22,3
524,576;22,29
524,825;22,25
525,074;22,23
525,323;22,2
525,573;22,19
525,822;22,16
526,071;22,13
526,32;22,08
526,569;22,05
526,818;22,03
527,067;22
527,316;21,95
527,565;21,89
527,814;21,83
528,063;21,76
528,312;21,71
528,56;21,69
528,809;21,64
529,058;21,61
529,307;21,54
529,556;21,49
529,805;21,42
530,053;21,39
530,302;21,33
530,551;21,27
530,8;21,22
531,048;21,18
531,297;21,12
531,546;21,07
531,794;21
532,043;20,92
532,292;20,85
532,54;20,77
532,789;20,7
533,037;20,65
533,286;20,58
533,535;20,53
533,783;20,45
534,032;20,37
534,28;20,26
534,528;20,2
534,777;20,13
535,025;20,09
535,274;20,02
535,522;19,95
535,771;19,88
536,019;19,83
536,267;19,73
536,516;19,64
536,764;19,6
537,012;19,54
537,26;19,45
537,509;19,39
537,757;19,35
538,005;19,32
538,253;19,23
538,501;19,18
538,75;19,09
538,998;19,03
539,246;18,97
539,494;18,92
539,742;18,83
539,99;18,78
540,238;18,69
540,486;18,63
540,734;18,53
540,982;18,46
541,23;18,36
541,478;18,28
541,726;18,22
541,974;18,14
542,222;18,08
542,47;18,02
542,718;17,92
542,966;17,82
543,213;17,72
543,461;17,65
543,709;17,57
543,957;17,52
544,205;17,45
544,452;17,37
544,7;17,29
544,948;17,25
545,196;17,18
545,443;17,11
545,691;17,05
545,939;17,01
546,186;16,94
546,434;16,87
546,681;16,79
546,929;16,73
547,176;16,62
547,424;16,54
547,671;16,46
547,919;16,4
548,166;16,33
548,414;16,27
548,661;16,19
548,909;16,14
549,156;16,06
549,404;15,98
549,651;15,9
549,898;15,84
550,146;15,74
550,393;15,66
550,64;15,59
550,888;15,49
551,135;15,39
551,382;15,33
551,629;15,24
551,876;15,19
552,124;15,14
552,371;15,08
552,618;15,01
552,865;14,94
553,112;14,84
553,359;14,77
553,606;14,69
553,854;14,61
554,101;14,51
554,348;14,44
554,595;14,38
554,842;14,31
555,089;14,21
555,336;14,15
555,582;14,07
555,829;13,99
556,076;13,92
556,323;13,86
556,57;13,77
556,817;13,71
557,064;13,62
557,311;13,53
557,557;13,43
557,804;13,35
558,051;13,25
558,298;13,2
558,544;13,12
558,791;13,03
559,038;12,94
559,284;12,88
559,531;12,8
559,778;12,7
560,024;12,63
560,271;12,55
560,517;12,45
560,764;12,37
561,011;12,29
561,257;12,23
561,504;12,16
561,75;12,1
561,997;12,01
562,243;11,95
562,489;11,88
562,736;11,82
562,982;11,77
563,229;11,73
563,475;11,64
563,721;11,6
563,968;11,57
564,214;11,52
564,46;11,47
564,707;11,44
564,953;11,39
565,199;11,35
565,445;11,33
565,691;11,28
565,938;11,23
566,184;11,2
566,43;11,15
566,676;11,11
566,922;11,07
567,168;11,04
567,414;10,99
567,66;10,95
567,906;10,91
568,152;10,87
568,398;10,85
568,644;10,85
568,89;10,78
569,136;10,76
569,382;10,71
569,628;10,67
569,874;10,62
570,12;10,59
570,366;10,55
570,612;10,54
570,857;10,5
571,103;10,48
571,349;10,44
571,595;10,41
571,84;10,37
572,086;10,35
572,332;10,33
572,578;10,3
572,823;10,27
573,069;10,25
573,315;10,22
573,56;10,17
573,806;10,13
574,051;10,12
574,297;10,09
574,542;10,07
574,788;10,06
575,034;10,05
575,279;10,02
575,524;10,01
575,77;9,97
576,015;9,96
576,261;9,93
576,506;9,92
576,752;9,9
576,997;9,87
577,242;9,84
577,488;9,81
577,733;9,78
577,978;9,77
578,223;9,74
578,469;9,74
578,714;9,71
578,959;9,7
579,204;9,68
579,45;9,65
579,695;9,61
579,94;9,58
580,185;9,55
580,43;9,52
580,675;9,5
580,92;9,48
581,165;9,44
581,41;9,42
581,655;9,39
581,9;9,36
582,145;9,33
582,39;9,31
582,635;9,28
582,88;9,26
583,125;9,23
583,37;9,21
583,615;9,16
583,86;9,14
584,105;9,08
584,349;9,06
584,594;9,02
584,839;9
585,084;8,96
585,328;8,93
585,573;8,9
585,818;8,85
586,063;8,81
586,307;8,79
586,552;8,74
586,797;8,73
587,041;8,69
587,286;8,67
587,53;8,62
587,775;8,59
588,019;8,55
588,264;8,52
588,508;8,47
588,753;8,45
588,997;8,4
589,242;8,37
589,486;8,33
589,731;8,32
589,975;8,27
590,22;8,26
590,464;8,22
590,708;8,2
590,953;8,18
591,197;8,16
591,441;8,13
591,685;8,13
591,93;8,08
592,174;8,06
592,418;8,02
592,662;8
592,907;7,97
593,151;7,95
593,395;7,92
593,639;7,89
593,883;7,86
594,127;7,83
594,371;7,8
594,615;7,76
594,859;7,72
595,103;7,71
595,347;7,66
595,591;7,64
595,835;7,62
596,079;7,59
596,323;7,57
596,567;7,54
596,811;7,52
597,055;7,51
597,299;7,48
597,542;7,47
597,786;7,44
598,03;7,44
598,274;7,41
598,518;7,39
598,761;7,38
599,005;7,36
599,249;7,34
599,492;7,33
599,736;7,32
599,98;7,32
600,223;7,29
600,467;7,29
600,711;7,25
600,954;7,23
601,198;7,21
601,441;7,19
601,685;7,17
601,928;7,14
602,172;7,1
602,415;7,09
602,659;7,08
602,902;7,06
603,145;7,02
603,389;7,01
603,632;7
603,876;6,99
604,119;6,98
604,362;6,96
604,606;6,94
604,849;6,93
605,092;6,89
605,335;6,86
605,579;6,83
605,822;6,81
606,065;6,79
606,308;6,77
606,551;6,74
606,794;6,72
607,037;6,7
607,281;6,69
607,524;6,66
607,767;6,63
608,01;6,61
608,253;6,6
608,496;6,57
608,739;6,56
608,982;6,53
609,225;6,5
609,468;6,48
609,711;6,45
609,953;6,42
610,196;6,43
610,439;6,41
610,682;6,41
610,925;6,39
611,168;6,37
611,41;6,34
611,653;6,33
611,896;6,31
612,139;6,3
612,381;6,28
612,624;6,28
612,867;6,25
613,109;6,25
613,352;6,23
613,595;6,23
613,837;6,21
614,08;6,2
614,322;6,19
614,565;6,19
614,807;6,18
615,05;6,16
615,292;6,13
615,535;6,14
615,777;6,12
616,02;6,11
616,262;6,11
616,505;6,12
616,747;6,12
616,989;6,12
617,232;6,12
617,474;6,11
617,716;6,09
617,959;6,09
618,201;6,07
618,443;6,06
618,685;6,04
618,927;6,04
619,17;6,03
619,412;6,05
619,654;6,02
619,896;6,03
620,138;6,03
620,38;6,03
620,622;6,01
620,864;6,01
621,107;6
621,349;6
621,591;5,99
621,833;5,98
622,075;5,99
622,316;5,98
622,558;5,98
622,8;5,98
623,042;5,97
623,284;5,98
623,526;5,96
623,768;5,96
624,01;5,96
624,251;5,97
624,493;5,96
624,735;5,95
624,977;5,96
625,218;5,96
625,46;5,95
625,702;5,94
625,943;5,93
626,185;5,93
626,427;5,91
626,668;5,9
626,91;5,89
627,152;5,86
627,393;5,85
627,635;5,82
627,876;5,82
628,118;5,81
628,359;5,79
628,601;5,79
628,842;5,8
629,084;5,78
629,325;5,74
629,566;5,73
629,808;5,74
630,049;5,72
630,29;5,71
630,532;5,71
630,773;5,69
631,014;5,69
631,256;5,69
631,497;5,68
631,738;5,65
631,979;5,63
632,22;5,64
632,462;5,63
632,703;5,63
632,944;5,62
633,185;5,6
633,426;5,63
633,667;5,61
633,908;5,59
634,149;5,58
634,39;5,6
634,631;5,57
634,872;5,56
635,113;5,54
635,354;5,53
635,595;5,53
635,836;5,53
636,077;5,51
636,318;5,49
636,559;5,48
636,8;5,49
637,04;5,48
637,281;5,46
637,522;5,47
637,763;5,45
638,003;5,45
638,244;5,43
638,485;5,4
638,726;5,39
638,966;5,37
639,207;5,38
639,448;5,35
639,688;5,35
639,929;5,33
640,169;5,35
640,41;5,34
640,65;5,34
640,891;5,33
641,131;5,32
641,372;5,32
641,612;5,31
641,853;5,3
642,093;5,29
642,334;5,32
642,574;5,28
642,814;5,29
643,055;5,29
643,295;5,3
643,535;5,31
643,776;5,31
644,016;5,31
644,256;5,31
644,496;5,3
644,737;5,29
644,977;5,29
645,217;5,26
645,457;5,26
645,697;5,26
645,938;5,27
646,178;5,26
646,418;5,26
646,658;5,27
646,898;5,26
647,138;5,25
647,378;5,24
647,618;5,24
647,858;5,24
648,098;5,24
648,338;5,22
648,578;5,22
648,818;5,22
649,057;5,21
649,297;5,2
649,537;5,18
649,777;5,19
650,017;5,18
650,257;5,2
650,496;5,19
650,736;5,18
650,976;5,16
661,267;4,99
661,506;4,97
661,744;4,97
661,983;5
662,222;4,99
662,461;5,01
662,7;5
662,939;4,98
663,177;4,97
663,416;4,96
663,655;4,95
663,894;4,92
664,132;4,94
664,371;4,91
664,61;4,92
664,848;4,92
665,087;4,9
665,326;4,9
665,564;4,93
665,803;4,92
666,041;4,92
666,28;4,94
666,518;4,92
666,757;4,92
666,995;4,9
667,234;4,89
667,472;4,88
667,711;4,89
667,949;4,91
668,187;4,91
668,426;4,91
668,664;4,93
668,902;4,95
669,141;4,92
669,379;4,91
669,617;4,9
669,856;4,91
670,094;4,94
670,332;4,94
670,57;4,93
670,808;4,93
671,046;4,96
671,285;4,95
671,523;4,96
671,761;4,95
671,999;4,96
672,237;4,98
672,475;4,99
672,713;4,99
672,951;5
673,189;5,01
673,427;4,99
673,665;4,98
673,903;4,98
674,141;4,99
674,379;5,03
674,617;5,06
674,854;5,07
675,092;5,08
675,33;5,08
675,568;5,09
675,806;5,13
676,043;5,12
676,281;5,13
676,519;5,13
676,756;5,14
676,994;5,15
677,232;5,16
677,469;5,17
677,707;5,21
677,945;5,21
678,182;5,26
678,42;5,28
678,657;5,3
678,895;5,32
679,132;5,33
679,37;5,32
679,607;5,32
679,845;5,32
680,082;5,32
680,32;5,33
680,557;5,35
680,794;5,34
681,032;5,34
681,269;5,37
681,507;5,39
681,744;5,4
681,981;5,44
682,218;5,43
682,456;5,43
682,693;5,43
682,93;5,46
683,167;5,44
683,404;5,44
683,642;5,45
683,879;5,46
684,116;5,49
684,353;5,52
684,59;5,54
684,827;5,56
685,064;5,59
685,301;5,59
685,538;5,6
685,775;5,61
686,012;5,64
686,249;5,64
686,486;5,65
686,723;5,66
686,96;5,67
687,197;5,71
687,433;5,73
687,67;5,75
687,907;5,74
688,144;5,77
688,381;5,8
688,617;5,83
688,854;5,86
689,091;5,87
689,327;5,89
689,564;5,91
689,801;5,93
690,037;5,93
690,274;5,95
690,511;5,97
690,747;5,99
690,984;6,01
691,22;6,05
691,457;6,08
691,693;6,11
691,93;6,12
692,166;6,13
692,403;6,17
692,639;6,17
692,876;6,2
693,112;6,21
693,348;6,21
693,585;6,21
693,821;6,22
694,057;6,24
694,294;6,24
694,53;6,27
694,766;6,27
695,002;6,29
695,239;6,32
695,475;6,36
695,711;6,34
695,947;6,35
696,183;6,33
696,419;6,36
696,656;6,37
696,892;6,39
697,128;6,4
697,364;6,38
697,6;6,39
697,836;6,41
698,072;6,43
698,308;6,45
698,544;6,46
698,78;6,49
699,016;6,47
699,251;6,47
699,487;6,47
699,723;6,5
699,959;6,53
700,195;6,53
700,431;6,54
700,666;6,57
700,902;6,61
701,138;6,63
701,374;6,62
701,609;6,63
701,845;6,63
702,081;6,64
702,316;6,67
702,552;6,69
702,788;6,71
703,023;6,71
703,259;6,72
703,494;6,73
703,73;6,76
703,965;6,79
704,201;6,82
704,436;6,83
704,672;6,85
704,907;6,86
705,143;6,89
705,378;6,89
705,613;6,89
705,849;6,88
706,084;6,88
706,319;6,9
706,555;6,92
706,79;6,93
707,025;6,95
707,26;6,95
707,496;6,97
707,731;6,97
707,966;6,99
708,201;7,01
708,436;7,03
708,671;7,03
708,907;7,04
709,142;7,04
709,377;7,06
709,612;7,07
709,847;7,07
710,082;7,05
710,317;7,05
710,552;7,06
710,787;7,06
711,022;7,08
711,257;7,09
711,492;7,1
711,726;7,12
711,961;7,14
712,196;7,14
712,431;7,13
712,666;7,12
712,901;7,11
713,135;7,11
713,37;7,12
713,605;7,11
713,839;7,11
714,074;7,13
714,309;7,14
714,543;7,12
714,778;7,13
715,013;7,14
715,247;7,15
715,482;7,15
715,716;7,18
715,951;7,2
716,185;7,21
716,42;7,2
716,654;7,19
716,889;7,2
717,123;7,22
717,358;7,22
717,592;7,21
717,827;7,21
718,061;7,23
718,295;7,2
718,53;7,2
718,764;7,21
718,998;7,2
719,232;7,2
719,467;7,22
719,701;7,22
719,935;7,22
720,169;7,23
720,403;7,24
720,638;7,27
720,872;7,24
721,106;7,24
721,34;7,25
721,574;7,24
721,808;7,23
722,042;7,24
722,276;7,24
722,51;7,29
722,744;7,32
722,978;7,32
723,212;7,34
723,446;7,35
723,68;7,35
723,914;7,38
724,147;7,4
724,381;7,4
724,615;7,41
724,849;7,42
725,083;7,44
725,316;7,42
725,55;7,4
725,784;7,43
726,018;7,42
726,251;7,43
726,485;7,45
726,719;7,45
726,952;7,44
727,186;7,46
727,419;7,44
727,653;7,43
727,887;7,44
728,12;7,45
728,354;7,45
728,587;7,46
728,821;7,46
729,054;7,45
729,287;7,47
729,521;7,45
729,754;7,45
729,988;7,42
730,221;7,47
730,454;7,47
730,688;7,45
730,921;7,47
731,154;7,46
731,387;7,47
731,621;7,5
731,854;7,49
732,087;7,48
732,32;7,53
732,553;7,53
732,787;7,52
733,02;7,55
733,253;7,54
733,486;7,51
733,719;7,52
733,952;7,49
734,185;7,48
734,418;7,5
734,651;7,47
734,884;7,51
735,117;7,47
735,35;7,47
735,583;7,47
735,816;7,48
736,049;7,46
736,281;7,47
736,514;7,46
736,747;7,47
736,98;7,5
737,213;7,5
737,445;7,49
737,678;7,48
737,911;7,46
738,144;7,46
738,376;7,48
738,609;7,49
738,842;7,5
739,074;7,49
739,307;7,51
739,539;7,53
739,772;7,51
740,004;7,53
740,237;7,53
740,469;7,54
740,702;7,52
740,934;7,53
741,167;7,5
741,399;7,5
741,632;7,49
741,864;7,46
742,096;7,42
742,329;7,44
742,561;7,45
742,793;7,45
743,026;7,46
743,258;7,46
743,49;7,45
743,723;7,42
743,955;7,41
744,187;7,38
744,419;7,39
744,651;7,38
744,883;7,38
745,115;7,39
745,348;7,36
745,58;7,36
745,812;7,34
746,044;7,34
746,276;7,32
746,508;7,33
746,74;7,34
746,972;7,35
747,204;7,32
747,436;7,31
747,667;7,31
747,899;7,3
748,131;7,27
748,363;7,25
748,595;7,26
748,827;7,26
749,058;7,24
749,29;7,24
749,522;7,23
749,754;7,22
749,985;7,2
750,217;7,18
750,449;7,17
750,68;7,17
750,912;7,18
751,144;7,21
751,375;7,2
751,607;7,19
751,838;7,17
752,07;7,19
752,301;7,19
752,533;7,17
752,764;7,17
752,996;7,19
753,227;7,21
753,459;7,24
753,69;7,23
753,921;7,24
754,153;7,25
754,384;7,24
754,615;7,25
754,847;7,28
755,078;7,34
755,309;7,38
755,54;7,39
755,772;7,37
756,003;7,36
756,234;7,36
756,465;7,37
756,696;7,37
756,927;7,34
757,159;7,32
757,39;7,33
757,621;7,34
757,852;7,33
758,083;7,31
758,314;7,29
758,545;7,32
758,776;7,33
759,007;7,31
759,238;7,32
759,469;7,34
759,699;7,31
759,93;7,27
760,161;7,23
760,392;7,23
760,623;7,23
760,854;7,23
761,084;7,22
761,315;7,23
761,546;7,2
761,776;7,2
762,007;7,23
762,238;7,22
762,468;7,21
762,699;7,25
762,93;7,27
763,16;7,25
763,391;7,23
763,621;7,22
763,852;7,23
764,083;7,21
764,313;7,17
764,543;7,18
764,774;7,19
765,004;7,19
765,235;7,19
765,465;7,19
765,696;7,18
765,926;7,21
766,156;7,18
766,387;7,2
766,617;7,2
766,847;7,22
767,077;7,21
767,308;7,21
767,538;7,21
767,768;7,16
767,998;7,19
768,228;7,17
768,459;7,15
768,689;7,15
768,919;7,17
769,149;7,22
769,379;7,22
769,609;7,25
769,839;7,29
770,069;7,31
770,299;7,28
770,529;7,28
770,759;7,27
770,989;7,29
771,219;7,28
771,449;7,29
771,678;7,26
771,908;7,26
772,138;7,26
772,368;7,23
772,598;7,26
772,827;7,25
773,057;7,27
773,287;7,29
773,517;7,27
773,746;7,27
773,976;7,23
774,206;7,21
774,435;7,19
774,665;7,14
774,894;7,14
775,124;7,16
775,354;7,15
775,583;7,13
775,813;7,1
776,042;7,09
776,272;7,09
776,501;7,08
776,73;7,06
776,96;7,09
777,189;7,06
777,419;7,09
777,648;7,07
777,877;7,07
778,107;7,03
778,336;7,04
778,565;7,02
778,794;7,07
779,024;7,09
779,253;7,1
779,482;7,1
779,711;7,09
779,94;7,09
780,17;7,07
780,399;7,07
780,628;7,12
780,857;7,15
781,086;7,13
781,315;7,17
781,544;7,23
781,773;7,22
782,002;7,23
782,231;7,21
782,46;7,2
782,689;7,2
782,918;7,2
783,147;7,21
783,375;7,21
783,604;7,18
783,833;7,16
784,062;7,13
784,291;7,16
784,519;7,19
784,748;7,18
784,977;7,2
785,206;7,19
785,434;7,17
785,663;7,16
785,892;7,17
786,12;7,17
786,349;7,16
786,577;7,14
786,806;7,15
787,034;7,16
787,263;7,17
787,492;7,18
787,72;7,24
787,948;7,27
788,177;7,29
788,405;7,28
788,634;7,31
788,862;7,32
789,09;7,3
789,319;7,3
789,547;7,31
789,775;7,29
790,004;7,29
790,232;7,28
790,46;7,28
790,688;7,27
790,917;7,25
791,145;7,2
791,373;7,21
791,601;7,24
791,829;7,21
792,057;7,23
792,286;7,21
792,514;7,16
792,742;7,12
792,97;7,13
793,198;7,14
793,426;7,13
793,654;7,09
793,882;7,11
794,109;7,08
794,337;7,09
794,565;7,11
794,793;7,14
795,021;7,15
795,249;7,15
795,477;7,12
795,704;7,11
795,932;7,11
796,16;7,07
796,388;7,04
796,615;7,04
796,843;7,01
797,071;7,05
797,298;7,07
797,526;7,06
797,754;7,04
797,981;6,98
798,209;6,97
798,436;7,02
798,664;7
798,891;7,02
799,119;6,98
799,346;6,94
799,574;6,93
799,801;6,94
800,029;6,92
800,256;6,96
800,483;6,99
800,711;7,02
800,938;7,02
801,165;7,04
801,393;7,08
801,62;7,1
801,847;7,1
802,074;7,07
802,302;7,08
802,529;7,11
802,756;7,16
802,983;7,18
803,21;7,16
803,437;7,14
803,665;7,12
803,892;7,19
804,119;7,19
804,346;7,17
804,573;7,19
804,8;7,21
805,027;7,23
805,254;7,21
805,481;7,24
805,708;7,24
805,934;7,21
806,161;7,17
806,388;7,13
806,615;7,12
806,842;7,16
807,069;7,19
807,295;7,17
807,522;7,18
807,749;7,17
807,976;7,18
808,202;7,24
808,429;7,22
808,656;7,19
808,882;7,25
809,109;7,26
809,335;7,25
809,562;7,22
809,789;7,17
810,015;7,18
810,242;7,17
810,468;7,23
810,695;7,24
810,921;7,29
811,147;7,3
811,374;7,28
811,6;7,27
811,827;7,29
812,053;7,26
812,279;7,26
812,506;7,23
812,732;7,27
812,958;7,25
813,185;7,27
813,411;7,22
813,637;7,18
813,863;7,19
814,089;7,2
814,315;7,23
814,542;7,23
814,768;7,23
814,994;7,23
815,22;7,18
815,446;7,23
815,672;7,21
815,898;7,28
816,124;7,22
816,35;7,21
816,576;7,18
816,802;7,25
817,028;7,22
817,254;7,28
817,48;7,24
817,705;7,25
817,931;7,25
818,157;7,31
818,383;7,31
818,609;7,31
818,834;7,26
819,06;7,25
819,286;7,3
819,512;7,35
819,737;7,32
819,963;7,37
820,189;7,34
820,414;7,33
820,64;7,31
820,865;7,41
821,091;7,4
821,316;7,4
821,542;7,31
821,767;7,34
821,993;7,31
822,218;7,3
822,444;7,28
822,669;7,26
822,895;7,28
823,12;7,28
823,345;7,28
823,571;7,23
823,796;7,27
824,021;7,21
824,247;7,16
824,472;7,16
824,697;7,14
824,922;7,14
825,147;7,15
825,373;7,16
825,598;7,15
825,823;7,19
826,048;7,18
826,273;7,21
826,498;7,3
826,723;7,29
826,948;7,3
827,173;7,31
827,398;7,35
827,623;7,31
827,848;7,34
828,073;7,34
828,298;7,39
828,523;7,34
828,748;7,38
828,973;7,37
829,197;7,38
829,422;7,32
829,647;7,35
829,872;7,32
830,097;7,35
830,321;7,4
830,546;7,38
830,771;7,4
830,995;7,42
831,22;7,34
831,445;7,35
831,669;7,38
831,894;7,34
832,118;7,33
832,343;7,31
832,567;7,27
832,792;7,29
833,016;7,32
833,241;7,31
833,465;7,29
833,69;7,29
833,914;7,26
834,139;7,34
834,363;7,28
834,587;7,27
834,812;7,23
835,036;7,18
835,26;7,16
835,485;7,17
835,709;7,19
835,933;7,22
836,157;7,21
836,381;7,23
836,606;7,25
836,83;7,27
837,054;7,29
837,278;7,28
837,502;7,3
837,726;7,28
837,95;7,29
838,174;7,33
838,398;7,37
838,622;7,39
838,846;7,33
839,07;7,36
839,294;7,35
839,518;7,36
839,742;7,35
839,966;7,41
840,189;7,38
840,413;7,36
840,637;7,31
840,861;7,3
841,085;7,24
841,308;7,26
841,532;7,22
841,756;7,25
841,979;7,28
842,203;7,28
842,427;7,32
842,65;7,35
842,874;7,3
843,098;7,29
843,321;7,29
843,545;7,36
843,768;7,35
843,992;7,37
844,215;7,35
844,439;7,35
844,662;7,33
844,886;7,34
845,109;7,35
845,332;7,37
845,556;7,38
845,779;7,4
846,002;7,38
846,226;7,39
846,449;7,34
846,672;7,34
846,895;7,32
847,119;7,33
847,342;7,28
847,565;7,34
847,788;7,32
848,011;7,34
848,234;7,38
848,457;7,38
848,681;7,39
848,904;7,41
849,127;7,44
849,35;7,46
849,573;7,5
849,796;7,51
850,019;7,55
850,241;7,6
850,464;7,61
850,687;7,68
850,91;7,65
851,133;7,75
851,356;7,81
851,579;7,85
851,801;7,8
852,024;7,88
852,247;7,86
852,47;7,89
852,692;7,85
852,915;7,8
853,138;7,86
853,36;7,9
853,583;7,82
853,806;7,81
854,028;7,75
854,251;7,68
854,473;7,65
854,696;7,6
854,918;7,54
855,141;7,58
855,363;7,53
855,586;7,56
855,808;7,49
856,031;7,39
856,253;7,37
856,475;7,45
856,698;7,32
856,92;7,32
857,142;7,31
857,365;7,35
857,587;7,3
857,809;7,27
858,031;7,23
858,253;7,24
858,476;7,22
858,698;7,21
858,92;7,22
859,142;7,24
859,364;7,27
859,586;7,33
859,808;7,33
860,03;7,3
860,252;7,3
860,474;7,34
860,696;7,43
860,918;7,41
861,14;7,4
861,362;7,5
861,584;7,47
861,806;7,48
862,028;7,48
862,25;7,55
862,471;7,51
862,693;7,51
862,915;7,57
863,137;7,62
863,358;7,68
863,58;7,74
863,802;7,73
864,024;7,78
864,245;7,68
864,467;7,68
864,688;7,7
864,91;7,74
865,132;7,73
865,353;7,72
865,575;7,7
865,796;7,61
866,018;7,61
866,239;7,69
866,461;7,74
866,682;7,75
866,903;7,79
867,125;7,83
867,346;7,83
867,567;7,86
867,789;7,82
868,01;7,81
868,231;7,76
868,453;7,76
868,674;7,7
868,895;7,83
869,116;7,82
869,337;7,89
869,559;7,84
869,78;7,86
870,001;7,9
870,222;7,96
870,443;8,03
870,664;8,01
870,885;7,99
871,106;7,97
871,327;7,91
871,548;7,85
871,769;7,83
871,99;7,94
872,211;7,92
872,432;7,92
872,653;7,94
872,874;7,98
873,094;8
873,315;8
873,536;7,94
873,757;7,95
873,978;7,94
874,198;7,95
874,419;7,94
874,64;7,88
874,86;7,89
875,081;7,88
875,302;7,91
875,522;7,95
875,743;7,93
875,963;8,03
876,184;8,02
876,404;7,99
876,625;7,86
876,845;7,92
877,066;7,92
877,286;8
877,507;8,06
877,727;8,05
877,947;8,08
878,168;8,12
878,388;8,18
878,609;8,18
878,829;8,25
879,049;8,27
879,269;8,27
879,49;8,21
879,71;8,21
879,93;8,22
880,15;8,22
880,37;8,28
880,59;8,2
880,811;8,22
881,031;8,28
881,251;8,32
881,471;8,3
881,691;8,4
881,911;8,35
882,131;8,23
882,351;8,32
882,571;8,26
882,791;8,31
883,011;8,22
883,23;8,27
883,45;8,3
883,67;8,37
883,89;8,37
884,11;8,44
884,33;8,47
884,549;8,52
884,769;8,48
884,989;8,42
885,209;8,4
885,428;8,54
885,648;8,46
885,868;8,49
886,087;8,39
886,307;8,28
886,526;8,25
886,746;8,39
886,965;8,38
887,185;8,46
887,404;8,47
887,624;8,58
887,843;8,58
888,063;8,44
888,282;8,4
888,502;8,44
888,721;8,47
888,94;8,51
889,16;8,53
889,379;8,57
889,598;8,61
889,818;8,72
890,037;8,62
890,256;8,73
890,475;8,71
890,694;8,85
890,914;8,91
891,133;8,92
891,352;8,93
891,571;8,9
891,79;8,92
892,009;8,88
892,228;8,85
892,447;8,92
892,666;8,97
892,885;9,01
893,104;9,02
893,323;9,06
893,542;9,04
893,761;9,04
893,98;9,1
894,199;9,05
894,417;9
894,636;9,04
894,855;9,02
895,074;9,03
895,293;9,02
895,511;8,99
895,73;9,08
895,949;9,05
896,167;9,08
896,386;9,11
896,605;9,15
896,823;9,11
897,042;8,97
897,26;8,97
897,479;8,95
897,697;8,92
897,916;8,93
898,134;8,96
898,353;8,95
898,571;8,84
898,79;8,92
899,008;8,95
899,227;9,01
899,445;9,06
899,663;9,13
899,882;9,14
900,1;9,18
900,318;9,1
900,536;9,12
900,755;9,25
900,973;9,2
901,191;9,22
901,409;9,21
901,627;9,15
901,846;9,33
902,064;9,3
902,282;9,34
902,5;9,22
902,718;9,16
902,936;9,04
903,154;9,07
903,372;9,04
903,59;9,06
903,808;8,99
904,026;9,04
904,244;9,03
904,462;9,01
904,679;9,01
904,897;9,06
905,115;9,15
905,333;9,13
905,551;9,21
905,768;9,24
905,986;9,2
906,204;9,24
906,422;9,16
906,639;9,21
906,857;9,2
907,074;9,22
907,292;9,24
907,51;9,32
907,727;9,38
907,945;9,46
908,162;9,54
908,38;9,57
908,597;9,53
908,815;9,54
909,032;9,53
909,25;9,52
909,467;9,63
909,684;9,55
909,902;9,47
910,119;9,37
910,337;9,35
910,554;9,38
910,771;9,35
910,988;9,33
911,206;9,38
911,423;9,37
911,64;9,46
911,857;9,49
912,074;9,53
912,291;9,42
912,509;9,32
912,726;9,35
912,943;9,28
913,16;9,21
913,377;9,11
913,594;9,09
913,811;9,2
914,028;9,09
914,245;9,15
914,462;9,12
914,679;9,12
914,896;9,15
915,112;9,27
915,329;9,5
915,546;9,49
915,763;9,45
915,98;9,42
916,196;9,33
916,413;9,45
916,63;9,46
916,847;9,61
917,063;9,66
917,28;9,49
917,497;9,59
917,713;9,72
917,93;9,86
918,146;9,93
918,363;10,02
918,579;10,11
918,796;10,07
919,012;10,22
919,229;10,21
919,445;10,27
919,662;10,23
919,878;10,07
920,095;10,2
920,311;10,23
920,527;10,33
920,744;10,37
920,96;10,36
921,176;10,28
921,392;10,24
921,609;10,21
921,825;10,38
922,041;10,4
922,257;10,26
922,473;10,2
922,69;10,23
922,906;10,1
923,122;10,04
923,338;10,05
923,554;9,9
923,77;10,02
923,986;9,91
924,202;10,1
924,418;10,23
924,634;10,07
924,85;10,16
925,066;10,16
925,282;10,16
925,497;10,18
925,713;10,3
925,929;10,4
926,145;10,48
926,361;10,52
926,576;10,57
926,792;10,61
927,008;10,67
927,224;10,77
927,439;10,79
927,655;10,73
927,871;10,72
928,086;10,78
928,302;10,76
928,517;10,65
928,733;10,65
928,948;10,66
929,164;10,63
929,379;10,58
929,595;10,62
929,81;10,77
930,026;10,69
930,241;10,67
930,456;10,46
930,672;10,56
930,887;10,48
931,102;10,46
931,318;10,6
931,533;10,69
931,748;10,52
931,964;10,53
932,179;10,62
932,394;10,66
932,609;10,74
932,824;10,75
933,039;10,79
933,255;10,66
933,47;10,61
933,685;10,71
933,9;10,75
934,115;10,72
934,33;10,63
934,545;10,78
934,76;10,94
934,975;11,22
935,19;11,29
935,404;11,36
935,619;11,44
935,834;11,43
936,049;11,37
936,264;11,64
936,479;11,67
936,693;11,67
936,908;11,82
937,123;11,86
937,338;11,99
937,552;12,18
937,767;12,25
937,982;12,42
938,196;12,4
938,411;12,24
938,625;12,47
938,84;12,52
939,055;12,38
939,269;12,14
939,484;12,53
939,698;12,18
939,912;12,32
940,127;12,1
940,341;11,71
940,556;11,68
940,77;11,44
940,984;11,55
941,199;11,71
941,413;11,41
941,627;11,37
941,842;11,93
942,056;11,96
942,27;12,38
942,484;12,68
942,699;12,96
942,913;13,24
943,127;12,8
943,341;12,81
943,555;13,04
943,769;13,43
943,983;12,8
944,197;13,05
944,411;13,04
944,625;13,66
944,839;14,42
945,053;14,44
945,267;14,49
945,481;14,34
945,695;14,34
945,909;14,43
946,123;13,93
946,336;13,74
946,55;13,92
946,764;13,73
946,978;13,49
947,192;13,67
947,405;13,88
947,619;14,5
947,833;14,72
948,046;14,93
948,26;14,43
948,474;14,59
948,687;14,68
948,901;14,77
949,114;14,73
949,328;15,05
949,541;14,68
949,755;14,82
949,968;14,88
950,182;14,69
950,395;14,75
950,609;15,12
950,822;14,85
951,035;14,83
951,249;13,89
951,462;14,13
951,675;13,72
951,889;13,49
952,102;13,08
952,315;13,08
952,528;12,78
952,741;13,02
952,955;13,01
953,168;12,92
953,381;12,65
953,594;12,63
953,807;12,43
954,02;12,89
954,233;12,57
954,446;12,37
954,659;12,53
954,872;12,01
955,085;12,13
955,298;12,11
955,511;12,03
955,724;12,62
955,937;12,41
956,15;12,43
956,362;12,95
956,575;13,4
956,788;13,36
957,001;13,49
957,214;13,41
957,426;13,63
957,639;13,4
957,852;13,4
958,064;13,04
958,277;12,6
958,49;12,48
958,702;13,01
958,915;12,92
959,127;12,82
959,34;13,25
959,552;13,17
959,765;12,95
959,977;13,22
960,19;13,64
960,402;13,58
960,615;13,7
960,827;13,27
961,039;13
961,252;12,6
961,464;12,78
961,676;13,08
961,889;12,64
962,101;12,94
962,313;13,04
962,525;13,27
962,738;13,53
962,95;13,49
963,162;13,33
963,374;13,46
963,586;13,55
963,798;13,39
964,01;13,06
964,222;13
964,434;12,83
964,646;12,36
964,858;12,04
965,07;12,11
965,282;12,21
965,494;12,21
965,706;12,66
965,918;12,82
966,13;12,7
966,342;12,84
966,553;12,74
966,765;12,85
966,977;12,85
967,189;13,13
967,401;12,86
967,612;12,58
967,824;13,09
968,036;12,99
968,247;13,14
968,459;13,42
968,67;13,3
968,882;13,28
969,094;13,37
969,305;14,17
969,517;13,97
969,728;13,95
969,94;14,21
970,151;14,18
970,362;13,77
970,574;13,59
970,785;13,86
970,997;13,9
971,208;14,13
971,419;14,08
971,631;13,94
971,842;14,66
972,053;15,18
972,264;14,77
972,476;15,15
972,687;15,19
972,898;15,01
973,109;15,14
973,32;15,33
973,531;15,21
973,742;14,75
973,954;15,5
974,165;15,43
974,376;15,2
974,587;15,33
974,798;15,3
975,009;15,31
975,22;15,47
975,43;15,81
975,641;15,74
975,852;15,92
976,063;15,97
976,274;15,71
976,485;15,35
976,695;15,58
976,906;15,39
977,117;15,54
977,328;15,67
977,538;15,71
977,749;15,61
977,96;15,81
978,17;15,96
978,381;15,34
978,592;15,7
978,802;15,81
979,013;16,05
979,223;16,04
979,434;15,83
979,644;15,79
979,855;15,64
980,065;15,73
980,276;15,56
980,486;15,71
980,696;15,6
980,907;15,43
981,117;15,51
981,327;15,39
981,538;15,32
981,748;15,11
981,958;15,47
982,169;15,55
982,379;15,39
982,589;15,07
982,799;15,36
983,009;15,1
983,219;14,94
983,43;14,57
983,64;14,26
983,85;15,3
984,06;15,24
984,27;14,98
984,48;15,12
984,69;14,74
984,9;14,49
985,11;14,8
985,32;15,03
985,529;15,23
985,739;15,16
985,949;15,1
986,159;15,54
986,369;15,41
986,579;15,55
986,788;16,51
986,998;17,03
987,208;16,87
987,417;16,74
987,627;16,76
987,837;16,82
988,046;16,94
988,256;16,41
988,466;16,44
988,675;16,57
988,885;16,33
989,094;17,21
989,304;17,28
989,513;17,4
989,723;17,46
989,932;17,01
990,142;17,39
990,351;17,29
990,56;17,31
990,77;17,44
990,979;17,34
991,188;16,99
991,398;16,67
991,607;16,61
991,816;17,22
992,025;17,69
992,235;18,05
992,444;19,16
992,653;19,14
992,862;18,59
993,071;18,7
993,28;19,25
993,489;18,63
993,698;18,43
993,908;18,21
994,117;18,16
994,326;18,35
994,534;17,87
994,743;18,04
994,952;18,02
995,161;17,92
995,37;18,23
995,579;18,09
995,788;18,63
995,997;18,65
996,205;18,44
996,414;18,52
996,623;18,46
996,832;17,88
997,04;18,94
997,249;19,44
997,458;19,13
997,666;19,02
997,875;19,25
998,084;19,21
998,292;18,71
998,501;19,42
998,709;19,51
998,918;20,1
999,126;20,59
999,335;20,93
999,543;21,48
999,752;20,77
999,96;20,34
1000,169;19,81
1000,377;19,76
1000,585;19,49
1000,794;18,96
1001,002;18,87
1001,21;18,79
1001,418;17,62
1001,627;17,52
1001,835;17,92
1002,043;17,04
1002,251;17,11
1002,459;17,84
1002,668;17,97
1002,876;17,84
1003,084;17,61
1003,292;17,75
1003,5;17,3
1003,708;17,41
1003,916;16,31
1004,124;16,56
1004,332;16,81
1004,54;17,02
1004,748;17,02
1004,956;16,91
1005,163;17,71
1005,371;17,11
1005,579;17,61
1005,787;17,73
1005,995;18,31
1006,202;17,98
1006,41;18,59
1006,618;18,73
1006,826;18,4
1007,033;18,48
1007,241;18,18
1007,449;17,65
1007,656;17,25
1007,864;16,87
1008,071;16,91
1008,279;18,03
1008,486;18,52
1008,694;17,83
1008,901;17,39
1009,109;17,75
1009,316;18,17
1009,524;18,04
1009,731;18,57
1009,938;18,13
1010,146;18,26
1010,353;17,66
1010,56;17,54
1010,768;18,03
1010,975;17,82
1011,182;17,2
1011,389;16,98
1011,597;16,78
1011,804;17,72
1012,011;17,34
1012,218;17,9
1012,425;18,05
1012,632;17,81
1012,839;17,7
1013,046;18,01
1013,253;18,57
1013,46;18,7
1013,667;18,17
1013,874;17,01
1014,081;17,35
1014,288;16,6
1014,495;16,12
1014,702;15,99
1014,909;16,49
1015,116;15,8
1015,323;16,47
1015,529;17,47
1015,736;17,95
1015,943;18,26
1016,15;18,4
1016,356;18,88
1016,563;19,19
1016,77;18,34
1016,976;18,63
1017,183;17,96
1017,389;18,73
1017,596;19,11
1017,803;19,11
1018,009;20,51
1018,216;20,82
1018,422;20,78
1018,629;22,01
1018,835;22,23
1019,041;22,9
1019,248;22,53
1019,454;22,78
1019,661;21,6
1019,867;20,61
1020,073;21,91
1020,279;22,27
1020,486;21,9
1020,692;22,62
1020,898;21,72
1021,104;21,89
1021,311;20,7
1021,517;20,76
1021,723;21,11
1021,929;19,58
1022,135;19,84
1022,341;19,12
1022,547;20,16
1022,753;20,88
1022,959;20,45
1023,165;21,02
1023,371;21,04
1023,577;20,39
1023,783;18,53
1023,989;20,05
1024,195;21,1
1024,401;20,29
1024,607;20,16
1024,812;20,84
1025,018;19,92
1025,224;19,7
1025,43;20,15
1025,635;19,94
1025,841;21,19
1026,047;19,44
1026,252;21,39
1026,458;20,75
1026,664;20
1026,869;19,75
1027,075;20
1027,28;19,81
1027,486;20,41
1027,691;20,08
1027,897;22,09
1028,102;22,84
1028,308;21,88
1028,513;21,33
1028,719;20,79
1028,924;20,33
1029,129;19,16
1029,335;19,76
1029,54;21,96
1029,745;21,87
1029,95;23,43
1030,156;23,37
1030,361;24,98
1030,566;25,31
1030,771;26,15
1030,976;26,81
1031,182;26,75
1031,387;23,82
1031,592;23,62
1031,797;22,08
1032,002;20,43
1032,207;19,22
1032,412;19,1
1032,617;20,04
1032,822;18,89
1033,027;20,19
1033,232;19,51
1033,437;19,81
1033,642;19,19
1033,846;19,3
1034,051;16,86
1034,256;16,3
1034,461;15,09
1034,666;13,24
1034,87;10,79
1035,075;8,78
1035,28;6,92
1035,484;6,02
1035,689;8,3
1035,894;8,25
1036,098;8,41
1036,303;10,93
1036,507;9,65
1036,712;11,9
1036,917;11,44
1037,121;13,05
1037,325;11,88
1037,53;13,37
1037,734;13,8
1037,939;14,93
1038,143;11,92
1038,348;12,6
1038,552;13,28
1038,756;11,81
1038,961;13,4
1039,165;15,19
1039,369;16,74
1039,573;17,36
1039,778;18,22
1039,982;17,88
1040,186;18,93
1040,39;18,35
1040,594;16,71
1040,798;20,29
1041,002;18,39
1041,206;16,53
1041,41;14,78
1041,614;14,35
1041,818;14,33
1042,022;12,55
1042,226;12,17
1042,43;16,62
1042,634;17,25
1042,838;16,92
1043,042;16,75
1043,246;14,92
1043,45;13,28
1043,653;13,97
1043,857;15,48
1044,061;14,45
1044,265;14,41
1044,468;12,83
1044,672;13,15
1044,876;14,32
1045,079;10,7
1045,283;13,37
1045,487;13,36
1045,69;15,57
1045,894;16,84
1046,097;18,69
1046,301;20,48
1046,504;24,73
1046,708;19,47
1046,911;21,91
1047,115;18,99
1047,318;21,39
1047,522;25,41
1047,725;25,32
1047,928;25,5
1048,132;22,91
1048,335;24,62
1048,538;22,63
1048,741;24,36
1048,945;25,58
1049,148;27,99
1049,351;26,7
1049,554;27,76
1049,757;31,35
1049,96;29,98
1050,163;31,12
1050,367;26,46
1050,57;26,64
1050,773;20,78
1050,976;21,96
1051,179;20,96
1051,382;23,13
1051,585;25,31
1051,787;23,1
1051,99;24,14
1052,193;20,88
1052,396;23,38
1052,599;20,79
1052,802;24,38
1053,005;22,45
1053,207;24,7
1053,41;20,62
1053,613;21,71
1053,815;16,5
1054,018;16,76
1054,221;15,59
1054,423;12,39
1054,626;14,26
1054,829;13,44
1055,031;13,94
1055,234;14,26
1055,436;13,05
1055,639;12,98
1055,841;9,5
1056,044;9,45
1056,246;7,81
