Data from malachiteVSwhite_Reflection__0__48.txt Node;
"Date: Wed Sep 10 12:48:53 CEST 2025 User: sycur Spectrometer: SR400348 Trigger mode: 0 Integration Time (sec): 1,000000E-2 Scans to average: 10 Electric dark correction enabled: true Nonlinearity correction enabled: false Boxcar width: 10 XAxis mode: Wavelengths Number of Pixels in Spectrum: 3648 >>>>>Begin Spectral Data<<<<<";
186,01;74,65
186,281;48,96
186,552;50,66
186,822;113,17
187,093;166,67
187,364;586,54
187,635;160,96
187,905;85,93
188,176;75,34
188,447;49,91
188,717;38,39
188,988;33,93
189,258;34,84
189,529;33,68
189,8;29,5
190,07;31,36
190,341;26,76
190,611;28,12
190,882;25,82
191,152;24,57
191,423;25,33
191,693;27,54
191,964;27,62
192,234;28,23
192,505;26,19
192,775;29,17
193,045;27,12
193,316;24,71
193,586;25,75
193,856;25,32
194,127;25,94
194,397;26,49
194,667;27,26
194,938;25,8
195,208;23,82
195,478;23,28
195,748;23,03
196,019;23,88
196,289;21,91
196,559;21,08
196,829;20,3
197,099;19,95
197,37;17,82
197,64;17,83
197,91;16,04
198,18;15,05
198,45;14,2
198,72;13,29
198,99;13,67
199,26;12,39
199,53;11,47
199,8;11,27
200,07;10,73
200,34;9,77
200,61;9,95
200,88;9,83
201,15;9,67
201,42;9,18
201,69;8,19
201,96;8,17
202,23;9,02
202,499;9,65
202,769;8,72
203,039;8,44
203,309;7,31
203,579;8,4
203,849;8,76
204,118;8,59
204,388;8,79
204,658;8,92
204,927;9,05
205,197;8,92
205,467;8,89
205,736;8,96
206,006;8,75
206,276;8,94
206,545;8,95
206,815;9,04
207,085;9,06
207,354;9,27
207,624;8,97
207,893;8,67
208,163;8,4
208,432;8,72
208,702;8,72
208,971;9,09
209,241;8,72
209,51;8,74
209,78;8,65
210,049;8,71
210,318;8,25
210,588;8,05
210,857;8
211,127;7,95
211,396;7,52
211,665;7,64
211,935;7,58
212,204;7,61
212,473;7,65
212,742;7,22
213,012;7,34
213,281;7,58
213,55;7,86
213,819;7,86
214,088;7,67
214,358;7,85
214,627;7,83
214,896;7,62
215,165;7,44
215,434;7,24
215,703;7
215,972;7,14
216,241;7,3
216,51;7,37
216,779;7,4
217,048;7,69
217,317;7,4
217,586;7,38
217,855;7,3
218,124;7,23
218,393;7,21
218,662;7,09
218,931;6,92
219,2;6,61
219,469;6,62
219,738;6,67
220,006;6,56
220,275;6,46
220,544;6,57
220,813;6,58
221,082;6,45
221,35;6,48
221,619;6,47
221,888;6,3
222,157;6,27
222,425;6,16
222,694;5,96
222,963;5,99
223,231;5,86
223,5;5,83
223,769;5,71
224,037;5,72
224,306;5,57
224,574;5,6
224,843;5,59
225,111;5,46
225,38;5,3
225,648;5,23
225,917;5,24
226,185;5,19
226,454;5,16
226,722;5,33
226,991;5,24
227,259;5,24
227,528;5,18
227,796;5,09
228,064;4,99
228,333;4,95
228,601;4,9
228,869;4,86
229,138;4,76
229,406;4,8
229,674;4,8
229,942;4,84
230,211;4,91
230,479;4,87
230,747;4,87
231,015;4,9
231,283;4,93
231,552;4,85
231,82;4,76
232,088;4,74
232,356;4,68
232,624;4,68
232,892;4,59
233,16;4,63
233,428;4,62
233,696;4,63
233,964;4,68
234,232;4,68
234,5;4,68
234,768;4,67
235,036;4,68
235,304;4,71
235,572;4,73
235,84;4,61
236,108;4,58
236,376;4,55
236,644;4,54
236,912;4,5
237,179;4,58
237,447;4,61
237,715;4,57
237,983;4,57
238,251;4,56
238,518;4,59
238,786;4,61
239,054;4,62
239,322;4,63
239,589;4,61
239,857;4,59
240,125;4,58
240,392;4,58
240,66;4,58
240,927;4,54
241,195;4,46
241,463;4,52
241,73;4,52
241,998;4,52
242,265;4,5
242,533;4,49
242,8;4,44
243,068;4,42
243,335;4,4
243,603;4,37
243,87;4,37
244,138;4,35
244,405;4,31
244,672;4,32
244,94;4,31
245,207;4,32
245,474;4,34
245,742;4,35
246,009;4,33
246,276;4,33
246,544;4,32
246,811;4,37
247,078;4,35
247,345;4,4
247,613;4,4
247,88;4,39
248,147;4,37
248,414;4,37
248,681;4,37
248,948;4,43
249,215;4,46
249,483;4,47
249,75;4,47
250,017;4,46
250,284;4,45
250,551;4,45
250,818;4,46
251,085;4,44
251,352;4,45
251,619;4,49
251,886;4,46
252,153;4,45
252,42;4,44
252,687;4,44
252,953;4,41
253,22;4,4
253,487;4,42
253,754;4,46
254,021;4,47
254,288;4,46
254,555;4,44
254,821;4,43
255,088;4,39
255,355;4,38
255,622;4,4
255,888;4,42
256,155;4,39
256,422;4,36
256,688;4,38
256,955;4,41
257,222;4,4
257,488;4,43
257,755;4,46
258,022;4,47
258,288;4,48
258,555;4,48
258,821;4,49
259,088;4,5
259,354;4,49
259,621;4,52
259,887;4,56
260,154;4,57
260,42;4,58
260,687;4,62
260,953;4,66
261,219;4,7
261,486;4,68
261,752;4,73
262,019;4,75
262,285;4,75
262,551;4,75
262,818;4,79
263,084;4,77
263,35;4,76
263,616;4,76
263,883;4,78
264,149;4,83
264,415;4,88
264,681;4,88
264,947;4,9
265,214;4,9
265,48;4,91
265,746;4,93
266,012;4,96
266,278;4,96
266,544;4,96
266,81;4,95
267,076;4,97
267,342;4,94
267,608;4,96
267,874;4,98
268,14;4,99
268,406;5
268,672;5,04
268,938;5,06
269,204;5,06
269,47;5,04
269,736;5,04
270,002;5
270,268;5,04
270,533;5,07
270,799;5,06
271,065;5,05
271,331;5,05
271,597;5,06
271,862;5,08
272,128;5,09
272,394;5,13
272,66;5,16
272,925;5,18
273,191;5,2
273,457;5,22
273,722;5,23
273,988;5,21
274,254;5,21
274,519;5,23
274,785;5,24
275,05;5,25
275,316;5,29
275,582;5,31
275,847;5,33
276,113;5,31
276,378;5,36
276,644;5,4
276,909;5,39
277,174;5,4
277,44;5,43
277,705;5,43
277,971;5,43
278,236;5,43
278,501;5,47
278,767;5,48
279,032;5,5
279,297;5,49
279,563;5,5
279,828;5,57
280,093;5,56
280,358;5,57
280,624;5,6
280,889;5,61
281,154;5,62
281,419;5,65
281,684;5,69
281,95;5,67
282,215;5,69
282,48;5,73
282,745;5,75
283,01;5,76
283,275;5,78
283,54;5,79
283,805;5,79
284,07;5,83
284,335;5,85
284,6;5,87
284,865;5,91
285,13;5,91
285,395;5,9
285,66;5,95
285,925;6
286,19;6,04
286,455;6,07
286,72;6,08
286,985;6,06
287,249;6,07
287,514;6,1
287,779;6,1
288,044;6,13
288,309;6,16
288,573;6,16
288,838;6,2
289,103;6,26
289,367;6,28
289,632;6,28
289,897;6,3
290,161;6,33
290,426;6,37
290,691;6,44
290,955;6,45
291,22;6,47
291,484;6,46
291,749;6,45
292,014;6,45
292,278;6,49
292,543;6,55
292,807;6,6
293,072;6,61
293,336;6,62
293,6;6,64
293,865;6,64
294,129;6,66
294,394;6,69
294,658;6,69
294,922;6,7
295,187;6,72
295,451;6,75
295,715;6,76
295,98;6,78
296,244;6,78
296,508;6,81
296,773;6,85
297,037;6,91
297,301;6,96
297,565;7,03
297,829;7,04
298,094;7,07
298,358;7,1
298,622;7,15
298,886;7,21
299,15;7,26
299,414;7,3
299,678;7,38
299,942;7,41
300,206;7,46
300,47;7,52
300,734;7,57
300,998;7,6
301,262;7,64
301,526;7,68
301,79;7,74
302,054;7,79
302,318;7,82
302,582;7,87
302,846;7,88
303,11;7,92
303,374;7,97
303,637;8,02
303,901;8,04
304,165;8,1
304,429;8,12
304,693;8,18
304,956;8,24
305,22;8,27
305,484;8,31
305,747;8,36
306,011;8,41
306,275;8,42
306,538;8,49
306,802;8,55
307,066;8,58
307,329;8,6
307,593;8,64
307,856;8,67
308,12;8,69
308,384;8,77
308,647;8,81
308,911;8,85
309,174;8,9
309,438;8,91
309,701;8,94
309,964;8,98
310,228;9,01
310,491;9,04
310,755;9,09
311,018;9,13
311,281;9,18
311,545;9,21
311,808;9,26
312,071;9,29
312,335;9,29
312,598;9,35
312,861;9,42
313,124;9,48
313,388;9,58
313,651;9,62
313,914;9,62
314,177;9,66
314,44;9,7
314,704;9,74
314,967;9,83
315,23;9,89
315,493;9,95
315,756;9,99
316,019;10,06
316,282;10,13
316,545;10,15
316,808;10,21
317,071;10,25
317,334;10,3
317,597;10,39
317,86;10,49
318,123;10,57
318,386;10,6
318,649;10,63
318,912;10,67
319,175;10,74
319,437;10,81
319,7;10,85
319,963;10,94
320,226;10,98
320,489;11,03
320,751;11,07
321,014;11,1
321,277;11,16
321,54;11,23
321,802;11,26
322,065;11,33
322,328;11,36
322,59;11,43
322,853;11,48
323,116;11,52
323,378;11,55
323,641;11,56
323,903;11,63
324,166;11,71
324,428;11,74
324,691;11,8
324,953;11,86
325,216;11,93
325,478;11,99
325,741;12,02
326,003;12,07
326,266;12,14
326,528;12,18
326,791;12,21
327,053;12,27
327,315;12,33
327,578;12,42
327,84;12,49
328,102;12,55
328,365;12,63
328,627;12,65
328,889;12,7
329,151;12,74
329,414;12,83
329,676;12,87
329,938;12,95
330,2;12,98
330,462;13,04
330,725;13,08
330,987;13,14
331,249;13,21
331,511;13,29
331,773;13,34
332,035;13,46
332,297;13,55
332,559;13,55
332,821;13,59
333,083;13,61
333,345;13,66
333,607;13,74
333,869;13,84
334,131;13,94
334,393;14,03
334,655;14,1
334,917;14,12
335,179;14,19
335,44;14,3
335,702;14,39
335,964;14,45
336,226;14,56
336,488;14,58
336,749;14,66
337,011;14,69
337,273;14,77
337,535;14,82
337,796;14,87
338,058;14,96
338,32;15,02
338,581;15,09
338,843;15,16
339,105;15,22
339,366;15,25
339,628;15,33
339,889;15,4
340,151;15,49
340,412;15,54
340,674;15,58
340,935;15,62
341,197;15,72
341,458;15,76
341,72;15,78
341,981;15,85
342,243;15,92
342,504;16,02
342,766;16,1
343,027;16,14
343,288;16,21
343,55;16,3
343,811;16,39
344,072;16,4
344,334;16,44
344,595;16,5
344,856;16,54
345,117;16,62
345,379;16,65
345,64;16,72
345,901;16,84
346,162;16,93
346,423;16,96
346,684;16,98
346,946;17,04
347,207;17,07
347,468;17,15
347,729;17,19
347,99;17,26
348,251;17,31
348,512;17,39
348,773;17,39
349,034;17,42
349,295;17,43
349,556;17,62
349,817;17,73
350,078;17,79
350,339;17,84
350,6;17,87
350,86;17,99
351,121;18,01
351,382;18,03
351,643;18,04
351,904;18,06
352,165;18,07
352,425;18,14
352,686;18,22
352,947;18,27
353,208;18,35
353,468;18,39
353,729;18,44
353,99;18,47
354,25;18,56
354,511;18,62
354,772;18,68
355,032;18,67
355,293;18,7
355,553;18,75
355,814;18,85
356,074;18,84
356,335;18,88
356,596;19
356,856;19,06
357,116;19,18
357,377;19,3
357,637;19,42
357,898;19,49
358,158;19,56
358,419;19,62
358,679;19,71
358,939;19,74
359,2;19,77
359,46;19,84
359,72;19,91
359,981;20,01
360,241;20,08
360,501;20,15
360,761;20,2
361,022;20,26
361,282;20,27
361,542;20,37
361,802;20,4
362,062;20,41
362,323;20,48
362,583;20,52
362,843;20,55
363,103;20,6
363,363;20,62
363,623;20,67
363,883;20,74
364,143;20,73
364,403;20,79
364,663;20,9
364,923;21
365,183;21,07
365,443;21,15
365,703;21,18
365,963;21,23
366,223;21,32
366,483;21,41
366,743;21,5
367,002;21,57
367,262;21,63
367,522;21,7
367,782;21,69
368,042;21,75
368,301;21,8
368,561;21,86
368,821;21,96
369,081;21,99
369,34;22,04
369,6;22,11
369,86;22,17
370,119;22,2
370,379;22,21
370,638;22,26
370,898;22,25
371,158;22,34
371,417;22,4
371,677;22,36
371,936;22,39
372,196;22,44
372,455;22,51
372,715;22,55
372,974;22,64
373,234;22,72
373,493;22,8
373,753;22,9
374,012;22,9
374,271;22,99
374,531;23,11
374,79;23,16
375,049;23,28
375,309;23,34
375,568;23,4
375,827;23,46
376,086;23,55
376,346;23,63
376,605;23,71
376,864;23,76
377,123;23,87
377,383;23,93
377,642;24,02
377,901;24,11
378,16;24,19
378,419;24,22
378,678;24,23
378,937;24,26
379,196;24,3
379,455;24,43
379,714;24,45
379,973;24,51
380,232;24,53
380,491;24,59
380,75;24,66
381,009;24,71
381,268;24,77
381,527;24,81
381,786;24,88
382,045;24,95
382,304;25
382,563;25,11
382,821;25,24
383,08;25,3
383,339;25,35
383,598;25,43
383,857;25,52
384,115;25,63
384,374;25,71
384,633;25,78
384,891;25,82
385,15;25,87
385,409;25,96
385,667;26,02
385,926;26,07
386,185;26,15
386,443;26,24
386,702;26,28
386,96;26,33
387,219;26,36
387,477;26,41
387,736;26,45
387,994;26,48
388,253;26,47
388,511;26,49
388,77;26,51
389,028;26,55
389,287;26,57
389,545;26,63
389,803;26,62
390,062;26,72
390,32;26,75
390,578;26,84
390,837;26,85
391,095;26,92
391,353;27
391,612;27,05
391,87;27,08
392,128;27,13
392,386;27,17
392,644;27,21
392,903;27,2
393,161;27,26
393,419;27,3
393,677;27,36
393,935;27,41
394,193;27,45
394,451;27,49
394,709;27,48
394,967;27,54
395,225;27,6
395,483;27,61
395,741;27,66
395,999;27,72
396,257;27,77
396,515;27,79
396,773;27,8
397,031;27,81
397,289;27,87
397,547;27,9
397,805;27,96
398,062;28,03
398,32;28,05
398,578;28,12
398,836;28,09
399,094;28,07
399,351;28,1
399,609;28,14
399,867;28,22
400,124;28,28
400,382;28,3
400,64;28,33
400,897;28,29
401,155;28,31
401,413;28,26
401,67;28,27
401,928;28,38
402,185;28,41
402,443;28,44
402,701;28,46
402,958;28,52
403,216;28,5
403,473;28,5
403,73;28,57
403,988;28,59
404,245;28,66
404,503;28,73
404,76;28,75
405,018;28,81
405,275;28,82
405,532;28,93
405,79;28,93
406,047;28,98
406,304;29,11
406,561;29,18
406,819;29,27
407,076;29,26
407,333;29,23
407,59;29,3
407,848;29,32
408,105;29,32
408,362;29,37
408,619;29,45
408,876;29,52
409,133;29,5
409,39;29,58
409,647;29,66
409,904;29,65
410,161;29,66
410,418;29,66
410,675;29,66
410,932;29,6
411,189;29,65
411,446;29,65
411,703;29,6
411,96;29,56
412,217;29,61
412,474;29,6
412,731;29,62
412,988;29,61
413,245;29,64
413,501;29,67
413,758;29,65
414,015;29,65
414,272;29,65
414,529;29,73
414,785;29,68
415,042;29,75
415,299;29,8
415,555;29,82
415,812;29,86
416,069;29,85
416,325;29,9
416,582;29,98
416,838;30,11
417,095;30,15
417,352;30,22
417,608;30,23
417,865;30,34
418,121;30,39
418,378;30,45
418,634;30,5
418,891;30,57
419,147;30,59
419,403;30,66
419,66;30,7
419,916;30,73
420,173;30,74
420,429;30,68
420,685;30,71
420,942;30,77
421,198;30,75
421,454;30,8
421,711;30,81
421,967;30,81
422,223;30,75
422,479;30,8
422,735;30,82
422,992;30,83
423,248;30,76
423,504;30,74
423,76;30,76
424,016;30,76
424,272;30,78
424,528;30,81
424,784;30,8
425,041;30,81
425,297;30,85
425,553;30,92
425,809;30,94
426,065;30,96
426,32;30,99
426,576;31,1
426,832;31,1
427,088;31,18
427,344;31,21
427,6;31,31
427,856;31,3
428,112;31,34
428,368;31,35
428,623;31,45
428,879;31,51
429,135;31,49
429,391;31,52
429,646;31,59
429,902;31,55
430,158;31,6
430,414;31,65
430,669;31,68
430,925;31,71
431,181;31,77
431,436;31,84
431,692;31,85
431,947;31,84
432,203;31,9
432,458;31,84
432,714;31,91
432,97;31,9
433,225;32,01
433,481;32,03
433,736;32,08
433,991;32,07
434,247;32,07
434,502;32,15
434,758;32,2
435,013;32,22
435,268;32,31
435,524;32,26
435,779;32,27
436,034;32,27
436,29;32,29
436,545;32,26
436,8;32,26
437,056;32,3
437,311;32,29
437,566;32,3
437,821;32,37
438,076;32,38
438,331;32,4
438,587;32,37
438,842;32,44
439,097;32,52
439,352;32,62
439,607;32,62
439,862;32,59
440,117;32,64
440,372;32,61
440,627;32,65
440,882;32,78
441,137;32,82
441,392;32,91
441,647;32,94
441,902;33,02
442,157;33,11
442,412;33,13
442,667;33,18
442,921;33,25
443,176;33,3
443,431;33,29
443,686;33,34
443,941;33,34
444,195;33,31
444,45;33,32
444,705;33,33
444,96;33,44
445,214;33,45
445,469;33,45
445,724;33,52
445,978;33,56
446,233;33,57
446,487;33,59
446,742;33,52
446,997;33,56
447,251;33,56
447,506;33,59
447,76;33,6
448,015;33,57
448,269;33,61
448,524;33,61
448,778;33,63
449,033;33,65
449,287;33,72
449,541;33,77
449,796;33,78
450,05;33,8
450,305;33,8
450,559;33,89
450,813;33,91
451,067;33,87
451,322;33,85
451,576;33,84
451,83;33,9
452,084;34
452,339;34,01
452,593;34,05
452,847;33,97
453,101;33,99
453,355;34,08
453,609;34,08
453,864;34,1
454,118;34,07
454,372;34,05
454,626;34,12
454,88;34,16
455,134;34,17
455,388;34,19
455,642;34,24
455,896;34,25
456,15;34,25
456,404;34,32
456,658;34,34
456,912;34,32
457,165;34,26
457,419;34,25
457,673;34,29
457,927;34,3
458,181;34,44
458,435;34,49
458,688;34,5
458,942;34,52
459,196;34,56
459,45;34,66
459,703;34,72
459,957;34,72
460,211;34,7
460,464;34,7
460,718;34,76
460,972;34,77
461,225;34,79
461,479;34,82
461,732;34,88
461,986;34,94
462,239;35,02
462,493;35,12
462,746;35,2
463;35,19
463,253;35,31
463,507;35,28
463,76;35,33
464,014;35,36
464,267;35,42
464,52;35,5
464,774;35,51
465,027;35,55
465,28;35,62
465,534;35,7
465,787;35,78
466,04;35,77
466,294;35,8
466,547;35,78
466,8;35,85
467,053;35,84
467,306;35,86
467,56;35,87
467,813;35,87
468,066;35,91
468,319;35,99
468,572;35,96
468,825;35,98
469,078;36,05
469,331;36,13
469,584;36,2
469,837;36,26
470,09;36,32
470,343;36,4
470,596;36,48
470,849;36,55
471,102;36,61
471,355;36,73
471,608;36,81
471,861;36,97
472,114;37
472,367;37,14
472,619;37,24
472,872;37,38
473,125;37,44
473,378;37,56
473,631;37,62
473,883;37,69
474,136;37,76
474,389;37,84
474,641;37,87
474,894;37,93
475,147;37,95
475,399;38,03
475,652;38,05
475,905;38,09
476,157;38,14
476,41;38,19
476,662;38,2
476,915;38,28
477,167;38,36
477,42;38,44
477,672;38,45
477,925;38,5
478,177;38,56
478,43;38,61
478,682;38,65
478,934;38,67
479,187;38,7
479,439;38,79
479,691;38,84
479,944;38,9
480,196;38,94
480,448;39,01
480,701;39,08
480,953;39,17
481,205;39,23
481,457;39,3
489,77;40,69
490,022;40,74
490,274;40,75
490,525;40,78
490,777;40,83
491,028;40,88
491,28;40,88
491,531;40,94
491,783;40,93
492,034;40,96
492,286;40,95
492,537;41,02
492,789;41,07
493,04;41,09
493,291;41,14
493,543;41,13
493,794;41,15
494,045;41,17
494,297;41,19
494,548;41,21
494,799;41,22
495,051;41,26
495,302;41,3
495,553;41,32
495,804;41,37
496,056;41,41
496,307;41,43
496,558;41,48
496,809;41,49
497,06;41,54
497,311;41,58
497,562;41,61
497,813;41,66
498,064;41,7
498,316;41,73
498,567;41,77
498,818;41,77
499,069;41,86
499,319;41,91
499,57;41,93
499,821;41,93
500,072;41,99
500,323;42,05
500,574;42,09
500,825;42,14
501,076;42,18
501,327;42,19
501,577;42,21
501,828;42,21
502,079;42,28
502,33;42,3
502,58;42,34
502,831;42,31
503,082;42,33
503,333;42,33
503,583;42,39
503,834;42,43
504,084;42,47
504,335;42,47
504,586;42,49
504,836;42,55
505,087;42,57
505,337;42,59
505,588;42,58
505,838;42,58
506,089;42,64
506,339;42,63
506,59;42,67
506,84;42,67
507,091;42,76
507,341;42,76
507,591;42,81
507,842;42,86
508,092;42,95
508,343;42,94
508,593;42,98
508,843;42,97
509,093;42,92
509,344;42,91
509,594;42,92
509,844;42,94
510,094;42,94
510,345;42,99
510,595;43,03
510,845;43,04
511,095;43,06
511,345;43,04
511,595;43,07
511,845;43,08
512,095;43,11
512,345;43,07
512,595;43,08
512,845;43,08
513,095;43,06
513,345;43,05
513,595;43,07
513,845;43,06
514,095;43,08
514,345;43,12
514,595;43,18
514,845;43,19
515,095;43,14
515,345;43,15
515,594;43,19
515,844;43,16
516,094;43,21
516,344;43,23
516,593;43,22
516,843;43,24
517,093;43,23
517,343;43,26
517,592;43,27
517,842;43,28
518,092;43,3
518,341;43,31
518,591;43,33
518,84;43,31
519,09;43,34
519,34;43,35
519,589;43,34
519,839;43,33
520,088;43,35
520,338;43,39
520,587;43,39
520,836;43,36
521,086;43,36
521,335;43,32
521,585;43,32
521,834;43,34
522,083;43,31
522,333;43,31
522,582;43,32
522,831;43,31
523,081;43,33
523,33;43,29
523,579;43,3
523,828;43,31
524,078;43,3
524,327;43,3
524,576;43,28
524,825;43,28
525,074;43,29
525,323;43,29
525,573;43,32
525,822;43,32
526,071;43,33
526,32;43,35
526,569;43,32
526,818;43,36
527,067;43,36
527,316;43,34
527,565;43,38
527,814;43,36
528,063;43,36
528,312;43,33
528,56;43,32
528,809;43,3
529,058;43,31
529,307;43,34
529,556;43,32
529,805;43,32
530,053;43,35
530,302;43,34
530,551;43,33
530,8;43,31
531,048;43,3
531,297;43,29
531,546;43,25
531,794;43,29
532,043;43,22
532,292;43,2
532,54;43,22
532,789;43,19
533,037;43,16
533,286;43,11
533,535;43,1
533,783;43,1
534,032;43,08
534,28;43,03
534,528;43
534,777;43
535,025;43,01
535,274;42,91
535,522;42,88
535,771;42,84
536,019;42,81
536,267;42,8
536,516;42,76
536,764;42,77
537,012;42,75
537,26;42,73
537,509;42,72
537,757;42,69
538,005;42,65
538,253;42,62
538,501;42,64
538,75;42,57
538,998;42,53
539,246;42,53
539,494;42,5
539,742;42,46
539,99;42,4
540,238;42,33
540,486;42,34
540,734;42,26
540,982;42,22
541,23;42,21
541,478;42,15
541,726;42,09
541,974;42,05
542,222;42,02
542,47;41,99
542,718;41,96
542,966;41,9
543,213;41,86
543,461;41,85
543,709;41,81
543,957;41,83
544,205;41,77
544,452;41,74
544,7;41,68
544,948;41,64
545,196;41,61
545,443;41,6
545,691;41,57
545,939;41,58
546,186;41,57
546,434;41,51
546,681;41,49
546,929;41,48
547,176;41,4
547,424;41,35
547,671;41,28
547,919;41,23
548,166;41,23
548,414;41,22
548,661;41,17
548,909;41,12
549,156;41,07
549,404;41,05
549,651;40,99
549,898;40,95
550,146;40,91
550,393;40,9
550,64;40,85
550,888;40,83
551,135;40,79
551,382;40,74
551,629;40,69
551,876;40,66
552,124;40,64
552,371;40,65
552,618;40,61
552,865;40,6
553,112;40,54
553,359;40,47
553,606;40,4
553,854;40,38
554,101;40,34
554,348;40,29
554,595;40,27
554,842;40,2
555,089;40,16
555,336;40,15
555,582;40,06
555,829;40
556,076;39,94
556,323;39,89
556,57;39,83
556,817;39,8
557,064;39,71
557,311;39,66
557,557;39,58
557,804;39,55
558,051;39,5
558,298;39,49
558,544;39,47
558,791;39,45
559,038;39,35
559,284;39,3
559,531;39,25
559,778;39,19
560,024;39,15
560,271;39,1
560,517;39,02
560,764;39
561,011;38,95
561,257;38,9
561,504;38,84
561,75;38,81
561,997;38,73
562,243;38,71
562,489;38,65
562,736;38,61
562,982;38,53
563,229;38,49
563,475;38,44
563,721;38,38
563,968;38,32
564,214;38,33
564,46;38,29
564,707;38,26
564,953;38,2
565,199;38,2
565,445;38,16
565,691;38,14
565,938;38,1
566,184;38,07
566,43;38,01
566,676;37,98
566,922;37,95
567,168;37,92
567,414;37,88
567,66;37,85
567,906;37,82
568,152;37,79
568,398;37,79
568,644;37,76
568,89;37,72
569,136;37,68
569,382;37,63
569,628;37,6
569,874;37,54
570,12;37,52
570,366;37,47
570,612;37,46
570,857;37,44
571,103;37,41
571,349;37,39
571,595;37,38
571,84;37,35
572,086;37,31
572,332;37,29
572,578;37,26
572,823;37,22
573,069;37,19
573,315;37,17
573,56;37,11
573,806;37,05
574,051;37,03
574,297;36,99
574,542;36,94
574,788;36,92
575,034;36,91
575,279;36,87
575,524;36,83
575,77;36,8
576,015;36,77
576,261;36,73
576,506;36,7
576,752;36,66
576,997;36,63
577,242;36,61
577,488;36,58
577,733;36,53
577,978;36,51
578,223;36,5
578,469;36,48
578,714;36,45
578,959;36,44
579,204;36,41
579,45;36,38
579,695;36,34
579,94;36,3
580,185;36,25
580,43;36,22
580,675;36,19
580,92;36,17
581,165;36,14
581,41;36,12
581,655;36,08
581,9;36,05
582,145;36,02
582,39;36,01
582,635;35,97
582,88;35,97
583,125;35,93
583,37;35,89
583,615;35,83
583,86;35,78
584,105;35,75
584,349;35,73
584,594;35,68
584,839;35,67
585,084;35,66
585,328;35,65
585,573;35,63
585,818;35,6
586,063;35,55
586,307;35,52
586,552;35,47
586,797;35,45
587,041;35,41
587,286;35,35
587,53;35,29
587,775;35,28
588,019;35,23
588,264;35,2
588,508;35,16
588,753;35,17
588,997;35,14
589,242;35,11
589,486;35,07
589,731;35,07
589,975;35,04
590,22;35
590,464;34,95
590,708;34,92
590,953;34,9
591,197;34,86
591,441;34,83
591,685;34,81
591,93;34,77
592,174;34,79
592,418;34,79
592,662;34,75
592,907;34,7
593,151;34,67
593,395;34,63
593,639;34,61
593,883;34,56
594,127;34,54
594,371;34,49
594,615;34,47
594,859;34,43
595,103;34,39
595,347;34,36
595,591;34,35
595,835;34,3
596,079;34,27
596,323;34,26
596,567;34,22
596,811;34,19
597,055;34,16
597,299;34,1
597,542;34,06
597,786;34,03
598,03;34,01
598,274;33,98
598,518;33,95
598,761;33,91
599,005;33,87
599,249;33,85
599,492;33,84
599,736;33,8
599,98;33,79
600,223;33,76
600,467;33,71
600,711;33,65
600,954;33,61
601,198;33,58
601,441;33,55
601,685;33,52
601,928;33,49
602,172;33,47
602,415;33,45
602,659;33,42
602,902;33,39
603,145;33,37
603,389;33,37
603,632;33,36
603,876;33,36
604,119;33,33
604,362;33,3
604,606;33,25
604,849;33,23
605,092;33,19
605,335;33,18
605,579;33,14
605,822;33,13
606,065;33,09
606,308;33,06
606,551;33,04
606,794;33,03
607,037;33
607,281;32,96
607,524;32,93
607,767;32,9
608,01;32,86
608,253;32,83
608,496;32,79
608,739;32,77
608,982;32,72
609,225;32,71
609,468;32,67
609,711;32,63
609,953;32,61
610,196;32,59
610,439;32,55
610,682;32,57
610,925;32,54
611,168;32,52
611,41;32,48
611,653;32,44
611,896;32,4
612,139;32,38
612,381;32,37
612,624;32,34
612,867;32,32
613,109;32,3
613,352;32,27
613,595;32,25
613,837;32,21
614,08;32,21
614,322;32,19
614,565;32,18
614,807;32,18
615,05;32,16
615,292;32,12
615,535;32,09
615,777;32,05
616,02;32,03
616,262;32,04
616,505;32,07
616,747;32,07
616,989;32,08
617,232;32,06
617,474;32,04
617,716;32,02
617,959;31,99
618,201;31,98
618,443;31,98
618,685;31,95
618,927;31,93
619,17;31,89
619,412;31,88
619,654;31,85
619,896;31,83
620,138;31,83
620,38;31,83
620,622;31,82
620,864;31,81
621,107;31,79
621,349;31,78
621,591;31,72
621,833;31,71
622,075;31,68
622,316;31,71
622,558;31,73
622,8;31,74
623,042;31,73
623,284;31,73
623,526;31,73
623,768;31,74
624,01;31,72
624,251;31,73
624,493;31,69
624,735;31,69
624,977;31,67
625,218;31,65
625,46;31,63
625,702;31,62
625,943;31,62
626,185;31,61
626,427;31,57
626,668;31,56
626,91;31,54
627,152;31,53
627,393;31,48
627,635;31,43
627,876;31,41
628,118;31,39
628,359;31,38
628,601;31,35
628,842;31,32
629,084;31,32
629,325;31,27
629,566;31,28
629,808;31,26
630,049;31,25
630,29;31,23
630,532;31,23
630,773;31,21
631,014;31,18
631,256;31,16
631,497;31,2
631,738;31,19
631,979;31,17
632,22;31,16
632,462;31,14
632,703;31,14
632,944;31,14
633,185;31,12
633,426;31,11
633,667;31,08
633,908;31,06
634,149;31,03
634,39;31,05
634,631;31,03
634,872;31,05
635,113;31,04
635,354;31,04
635,595;31,02
635,836;31,01
636,077;30,98
636,318;30,99
636,559;30,94
636,8;30,95
637,04;30,93
637,281;30,88
637,522;30,85
637,763;30,83
638,003;30,78
638,244;30,76
638,485;30,73
638,726;30,7
638,966;30,69
639,207;30,69
639,448;30,64
639,688;30,61
639,929;30,57
640,169;30,54
640,41;30,48
640,65;30,46
640,891;30,43
641,131;30,44
641,372;30,39
641,612;30,37
641,853;30,34
642,093;30,31
642,334;30,32
642,574;30,29
642,814;30,28
643,055;30,3
643,295;30,3
643,535;30,29
643,776;30,28
644,016;30,25
644,256;30,23
644,496;30,2
644,737;30,19
644,977;30,18
645,217;30,17
645,457;30,18
645,697;30,16
645,938;30,15
646,178;30,13
646,418;30,16
646,658;30,14
646,898;30,11
647,138;30,1
647,378;30,09
647,618;30,06
647,858;30,03
648,098;29,99
648,338;29,96
648,578;29,93
648,818;29,93
649,057;29,93
649,297;29,93
649,537;29,96
649,777;29,95
650,017;29,94
650,257;29,94
650,496;29,91
650,736;29,94
650,976;29,92
660,55;29,45
660,789;29,43
661,028;29,44
661,267;29,45
661,506;29,44
661,744;29,43
661,983;29,43
662,222;29,44
662,461;29,43
662,7;29,4
662,939;29,35
663,177;29,32
663,416;29,29
663,655;29,27
663,894;29,26
664,132;29,29
664,371;29,27
664,61;29,23
664,848;29,24
665,087;29,25
665,326;29,26
665,564;29,28
665,803;29,27
666,041;29,26
666,28;29,27
666,518;29,27
666,757;29,26
666,995;29,25
667,234;29,25
667,472;29,24
667,711;29,26
667,949;29,29
668,187;29,29
668,426;29,3
668,664;29,33
668,902;29,34
669,141;29,29
669,379;29,28
669,617;29,32
669,856;29,31
670,094;29,29
670,332;29,25
670,57;29,24
670,808;29,24
671,046;29,25
671,285;29,24
671,523;29,27
671,761;29,29
671,999;29,27
672,237;29,3
672,475;29,32
672,713;29,29
672,951;29,32
673,189;29,3
673,427;29,29
673,665;29,31
673,903;29,29
674,141;29,33
674,379;29,33
674,617;29,32
674,854;29,33
675,092;29,36
675,33;29,38
675,568;29,39
675,806;29,42
676,043;29,43
676,281;29,45
676,519;29,45
676,756;29,44
676,994;29,48
677,232;29,47
677,469;29,45
677,707;29,49
677,945;29,5
678,182;29,54
678,42;29,57
678,657;29,58
678,895;29,61
679,132;29,62
679,37;29,63
679,607;29,62
679,845;29,64
680,082;29,66
680,32;29,69
680,557;29,68
680,794;29,69
681,032;29,71
681,269;29,74
681,507;29,77
681,744;29,79
681,981;29,85
682,218;29,84
682,456;29,88
682,693;29,91
682,93;29,95
683,167;29,96
683,404;29,98
683,642;29,97
683,879;30
684,116;30,04
684,353;30,09
684,59;30,13
684,827;30,15
685,064;30,15
685,301;30,16
685,538;30,23
685,775;30,23
686,012;30,24
686,249;30,26
686,486;30,29
686,723;30,32
686,96;30,33
687,197;30,38
687,433;30,4
687,67;30,44
687,907;30,44
688,144;30,5
688,381;30,53
688,617;30,56
688,854;30,58
689,091;30,59
689,327;30,63
689,564;30,67
689,801;30,7
690,037;30,73
690,274;30,78
690,511;30,77
690,747;30,82
690,984;30,83
691,22;30,85
691,457;30,87
691,693;30,87
691,93;30,88
692,166;30,9
692,403;30,95
692,639;30,95
692,876;30,98
693,112;30,98
693,348;31
693,585;31,01
693,821;31,06
694,057;31,07
694,294;31,09
694,53;31,09
694,766;31,15
695,002;31,17
695,239;31,23
695,475;31,28
695,711;31,26
695,947;31,29
696,183;31,32
696,419;31,33
696,656;31,38
696,892;31,42
697,128;31,45
697,364;31,45
697,6;31,45
697,836;31,47
698,072;31,51
698,308;31,54
698,544;31,58
698,78;31,6
699,016;31,63
699,251;31,65
699,487;31,7
699,723;31,71
699,959;31,74
700,195;31,75
700,431;31,75
700,666;31,78
700,902;31,8
701,138;31,8
701,374;31,84
701,609;31,86
701,845;31,87
702,081;31,89
702,316;31,9
702,552;31,9
702,788;31,93
703,023;31,95
703,259;31,95
703,494;31,98
703,73;31,99
703,965;32,01
704,201;32,03
704,436;32,05
704,672;32,07
704,907;32,09
705,143;32,11
705,378;32,14
705,613;32,18
705,849;32,2
706,084;32,25
706,319;32,25
706,555;32,27
706,79;32,29
707,025;32,28
707,26;32,31
707,496;32,38
707,731;32,39
707,966;32,4
708,201;32,43
708,436;32,45
708,671;32,47
708,907;32,48
709,142;32,47
709,377;32,5
709,612;32,5
709,847;32,49
710,082;32,51
710,317;32,53
710,552;32,56
710,787;32,59
711,022;32,6
711,257;32,64
711,492;32,66
711,726;32,65
711,961;32,69
712,196;32,71
712,431;32,68
712,666;32,69
712,901;32,69
713,135;32,7
713,37;32,71
713,605;32,73
713,839;32,73
714,074;32,78
714,309;32,77
714,543;32,79
714,778;32,79
715,013;32,77
715,247;32,8
715,482;32,78
715,716;32,77
715,951;32,77
716,185;32,79
716,42;32,78
716,654;32,8
716,889;32,81
717,123;32,8
717,358;32,83
717,592;32,82
717,827;32,85
718,061;32,86
718,295;32,82
718,53;32,83
718,764;32,86
718,998;32,82
719,232;32,83
719,467;32,83
719,701;32,83
719,935;32,85
720,169;32,85
720,403;32,83
720,638;32,86
720,872;32,87
721,106;32,83
721,34;32,85
721,574;32,84
721,808;32,85
722,042;32,85
722,276;32,86
722,51;32,85
722,744;32,86
722,978;32,84
723,212;32,83
723,446;32,82
723,68;32,82
723,914;32,85
724,147;32,9
724,381;32,89
724,615;32,94
724,849;32,94
725,083;32,97
725,316;32,99
725,55;32,98
725,784;33
726,018;33,01
726,251;33,04
726,485;33,05
726,719;33,07
726,952;33,06
727,186;33,1
727,419;33,11
727,653;33,14
727,887;33,18
728,12;33,23
728,354;33,23
728,587;33,22
728,821;33,22
729,054;33,2
729,287;33,22
729,521;33,23
729,754;33,23
729,988;33,24
730,221;33,27
730,454;33,3
730,688;33,29
730,921;33,3
731,154;33,31
731,387;33,3
731,621;33,31
731,854;33,32
732,087;33,31
732,32;33,35
732,553;33,32
732,787;33,31
733,02;33,32
733,253;33,32
733,486;33,31
733,719;33,33
733,952;33,33
734,185;33,3
734,418;33,28
734,651;33,27
734,884;33,25
735,117;33,22
735,35;33,18
735,583;33,19
735,816;33,18
736,049;33,18
736,281;33,2
736,514;33,2
736,747;33,24
736,98;33,24
737,213;33,2
737,445;33,2
737,678;33,21
737,911;33,2
738,144;33,2
738,376;33,23
738,609;33,25
738,842;33,25
739,074;33,26
739,307;33,26
739,539;33,27
739,772;33,29
740,004;33,3
740,237;33,32
740,469;33,3
740,702;33,29
740,934;33,26
741,167;33,25
741,399;33,22
741,632;33,22
741,864;33,21
742,096;33,23
742,329;33,23
742,561;33,23
742,793;33,21
743,026;33,22
743,258;33,19
743,49;33,17
743,723;33,14
743,955;33,15
744,187;33,14
744,419;33,16
744,651;33,16
744,883;33,15
745,115;33,13
745,348;33,15
745,58;33,14
745,812;33,1
746,044;33,12
746,276;33,12
746,508;33,1
746,74;33,11
746,972;33,11
747,204;33,13
747,436;33,1
747,667;33,14
747,899;33,12
748,131;33,11
748,363;33,08
748,595;33,12
748,827;33,1
749,058;33,12
749,29;33,08
749,522;33,06
749,754;33,06
749,985;33,07
750,217;33,04
750,449;33,05
750,68;33,07
750,912;33,1
751,144;33,14
751,375;33,11
751,607;33,08
751,838;33,07
752,07;33,05
752,301;33,05
752,533;33,01
752,764;33,02
752,996;33,02
753,227;33,06
753,459;33
753,69;33,01
753,921;32,99
754,153;33
754,384;33,01
754,615;33,02
754,847;33,02
755,078;33,07
755,309;33,1
755,54;33,13
755,772;33,08
756,003;33,05
756,234;33,05
756,465;33,09
756,696;33,1
756,927;33,12
757,159;33,11
757,39;33,14
757,621;33,17
757,852;33,18
758,083;33,17
758,314;33,22
758,545;33,25
758,776;33,26
759,007;33,27
759,238;33,25
759,469;33,26
759,699;33,28
759,93;33,24
760,161;33,22
760,392;33,19
760,623;33,22
760,854;33,23
761,084;33,2
761,315;33,18
761,546;33,15
761,776;33,12
762,007;33,15
762,238;33,15
762,468;33,11
762,699;33,14
762,93;33,13
763,16;33,08
763,391;33,07
763,621;33,04
763,852;33,08
764,083;33,12
764,313;33,08
764,543;33,03
764,774;33,01
765,004;32,98
765,235;32,98
765,465;32,97
765,696;32,95
765,926;32,96
766,156;32,95
766,387;32,96
766,617;32,99
766,847;32,99
767,077;32,96
767,308;32,95
767,538;32,9
767,768;32,89
767,998;32,9
768,228;32,91
768,459;32,91
768,689;32,87
768,919;32,86
769,149;32,89
769,379;32,93
769,609;32,96
769,839;32,99
770,069;33,03
770,299;33,03
770,529;33,03
770,759;33,07
770,989;33,06
771,219;33,06
771,449;33,04
771,678;33,01
771,908;33
772,138;33,04
772,368;33,09
772,598;33,07
772,827;33,13
773,057;33,09
773,287;33,1
773,517;33,1
773,746;33,09
773,976;33,07
774,206;33,05
774,435;33,03
774,665;33,03
774,894;32,98
775,124;32,95
775,354;32,92
775,583;32,86
775,813;32,86
776,042;32,85
776,272;32,85
776,501;32,83
776,73;32,87
776,96;32,83
777,189;32,76
777,419;32,82
777,648;32,79
777,877;32,8
778,107;32,77
778,336;32,79
778,565;32,76
778,794;32,77
779,024;32,78
779,253;32,77
779,482;32,76
779,711;32,79
779,94;32,81
780,17;32,84
780,399;32,85
780,628;32,86
780,857;32,87
781,086;32,89
781,315;32,93
781,544;32,94
781,773;32,93
782,002;32,96
782,231;32,94
782,46;32,91
782,689;32,89
782,918;32,91
783,147;32,88
783,375;32,91
783,604;32,92
783,833;32,9
784,062;32,92
784,291;32,93
784,519;32,93
784,748;32,93
784,977;32,96
785,206;32,95
785,434;32,94
785,663;32,93
785,892;32,93
786,12;32,94
786,349;32,92
786,577;32,94
786,806;32,94
787,034;32,94
787,263;32,93
787,492;32,93
787,72;32,94
787,948;32,95
788,177;32,9
788,405;32,85
788,634;32,85
788,862;32,85
789,09;32,8
789,319;32,77
789,547;32,77
789,775;32,76
790,004;32,76
790,232;32,79
790,46;32,78
790,688;32,74
790,917;32,7
791,145;32,69
791,373;32,67
791,601;32,66
791,829;32,65
792,057;32,68
792,286;32,7
792,514;32,7
792,742;32,71
792,97;32,74
793,198;32,76
793,426;32,73
793,654;32,75
793,882;32,77
794,109;32,8
794,337;32,81
794,565;32,75
794,793;32,76
795,021;32,72
795,249;32,7
795,477;32,74
795,704;32,77
795,932;32,76
796,16;32,76
796,388;32,76
796,615;32,71
796,843;32,71
797,071;32,69
797,298;32,7
797,526;32,69
797,754;32,67
797,981;32,61
798,209;32,64
798,436;32,62
798,664;32,64
798,891;32,57
799,119;32,54
799,346;32,55
799,574;32,52
799,801;32,53
800,029;32,58
800,256;32,6
800,483;32,62
800,711;32,58
800,938;32,54
801,165;32,54
801,393;32,55
801,62;32,57
801,847;32,57
802,074;32,53
802,302;32,53
802,529;32,52
802,756;32,61
802,983;32,57
803,21;32,55
803,437;32,53
803,665;32,59
803,892;32,6
804,119;32,6
804,346;32,64
804,573;32,68
804,8;32,67
805,027;32,62
805,254;32,57
805,481;32,61
805,708;32,65
805,934;32,63
806,161;32,62
806,388;32,61
806,615;32,61
806,842;32,58
807,069;32,58
807,295;32,61
807,522;32,63
807,749;32,68
807,976;32,67
808,202;32,69
808,429;32,66
808,656;32,65
808,882;32,65
809,109;32,59
809,335;32,57
809,562;32,55
809,789;32,55
810,015;32,52
810,242;32,5
810,468;32,49
810,695;32,46
810,921;32,51
811,147;32,49
811,374;32,49
811,6;32,56
811,827;32,55
812,053;32,5
812,279;32,46
812,506;32,41
812,732;32,41
812,958;32,38
813,185;32,37
813,411;32,38
813,637;32,39
813,863;32,43
814,089;32,44
814,315;32,4
814,542;32,42
814,768;32,48
814,994;32,47
815,22;32,45
815,446;32,5
815,672;32,43
815,898;32,44
816,124;32,44
816,35;32,42
816,576;32,41
816,802;32,43
817,028;32,43
817,254;32,46
817,48;32,46
817,705;32,52
817,931;32,56
818,157;32,56
818,383;32,59
818,609;32,55
818,834;32,49
819,06;32,53
819,286;32,52
819,512;32,52
819,737;32,53
819,963;32,51
820,189;32,54
820,414;32,59
820,64;32,55
820,865;32,59
821,091;32,58
821,316;32,56
821,542;32,53
821,767;32,5
821,993;32,5
822,218;32,51
822,444;32,46
822,669;32,44
822,895;32,45
823,12;32,45
823,345;32,48
823,571;32,48
823,796;32,52
824,021;32,51
824,247;32,5
824,472;32,51
824,697;32,53
824,922;32,56
825,147;32,57
825,373;32,62
825,598;32,62
825,823;32,6
826,048;32,61
826,273;32,61
826,498;32,65
826,723;32,67
826,948;32,64
827,173;32,64
827,398;32,6
827,623;32,59
827,848;32,6
828,073;32,58
828,298;32,62
828,523;32,6
828,748;32,61
828,973;32,56
829,197;32,55
829,422;32,56
829,647;32,47
829,872;32,45
830,097;32,48
830,321;32,53
830,546;32,6
830,771;32,62
830,995;32,71
831,22;32,7
831,445;32,65
831,669;32,69
831,894;32,67
832,118;32,71
832,343;32,71
832,567;32,67
832,792;32,68
833,016;32,69
833,241;32,67
833,465;32,62
833,69;32,65
833,914;32,67
834,139;32,71
834,363;32,77
834,587;32,74
834,812;32,72
835,036;32,64
835,26;32,57
835,485;32,58
835,709;32,49
835,933;32,51
836,157;32,51
836,381;32,53
836,606;32,54
836,83;32,51
837,054;32,5
837,278;32,47
837,502;32,48
837,726;32,43
837,95;32,44
838,174;32,46
838,398;32,45
838,622;32,4
838,846;32,35
839,07;32,27
839,294;32,28
839,518;32,24
839,742;32,28
839,966;32,36
840,189;32,33
840,413;32,42
840,637;32,45
840,861;32,46
841,085;32,4
841,308;32,36
841,532;32,4
841,756;32,45
841,979;32,42
842,203;32,44
842,427;32,43
842,65;32,46
842,874;32,5
843,098;32,45
843,321;32,55
843,545;32,57
843,768;32,65
843,992;32,67
844,215;32,69
844,439;32,69
844,662;32,64
844,886;32,64
845,109;32,59
845,332;32,54
845,556;32,54
845,779;32,55
846,002;32,59
846,226;32,56
846,449;32,49
846,672;32,48
846,895;32,41
847,119;32,44
847,342;32,34
847,565;32,38
847,788;32,42
848,011;32,38
848,234;32,33
848,457;32,3
848,681;32,28
848,904;32,21
849,127;32,19
849,35;32,2
849,573;32,25
849,796;32,32
850,019;32,32
850,241;32,4
850,464;32,45
850,687;32,53
850,91;32,58
851,133;32,65
851,356;32,69
851,579;32,73
851,801;32,79
852,024;32,9
852,247;32,86
852,47;32,89
852,692;32,86
852,915;32,87
853,138;32,87
853,36;32,91
853,583;32,94
853,806;32,96
854,028;32,9
854,251;32,82
854,473;32,81
854,696;32,79
854,918;32,77
855,141;32,77
855,363;32,77
855,586;32,78
855,808;32,74
856,031;32,77
856,253;32,83
856,475;32,81
856,698;32,73
856,92;32,8
857,142;32,84
857,365;32,85
857,587;32,84
857,809;32,85
858,031;32,9
858,253;32,85
858,476;32,9
858,698;32,96
858,92;32,97
859,142;33
859,364;33,02
859,586;33,08
859,808;33,05
860,03;32,99
860,252;32,97
860,474;33,01
860,696;33,08
860,918;32,98
861,14;33,04
861,362;33,09
861,584;33,01
861,806;32,99
862,028;32,98
862,25;33,04
862,471;33,03
862,693;33
862,915;33,01
863,137;32,95
863,358;32,96
863,58;33,06
863,802;32,97
864,024;33,02
864,245;32,93
864,467;32,98
864,688;33,01
864,91;33,03
865,132;32,99
865,353;32,95
865,575;33,01
865,796;32,94
866,018;33
866,239;33,04
866,461;33,07
866,682;33,17
866,903;33,15
867,125;33,18
867,346;33,19
867,567;33,26
867,789;33,27
868,01;33,3
868,231;33,18
868,453;33,32
868,674;33,3
868,895;33,34
869,116;33,26
869,337;33,26
869,559;33,22
869,78;33,29
870,001;33,25
870,222;33,23
870,443;33,25
870,664;33,12
870,885;33,12
871,106;33,1
871,327;33,05
871,548;33,14
871,769;33,12
871,99;33,14
872,211;33,13
872,432;33,13
872,653;33,15
872,874;33,25
873,094;33,16
873,315;33,19
873,536;33,22
873,757;33,26
873,978;33,27
874,198;33,33
874,419;33,24
874,64;33,22
874,86;33,22
875,081;33,25
875,302;33,37
875,522;33,36
875,743;33,39
875,963;33,41
876,184;33,43
876,404;33,38
876,625;33,37
876,845;33,4
877,066;33,47
877,286;33,45
877,507;33,48
877,727;33,45
877,947;33,46
878,168;33,42
878,388;33,45
878,609;33,51
878,829;33,56
879,049;33,58
879,269;33,68
879,49;33,74
879,71;33,75
879,93;33,73
880,15;33,75
880,37;33,69
880,59;33,64
880,811;33,61
881,031;33,68
881,251;33,65
881,471;33,62
881,691;33,66
881,911;33,7
882,131;33,59
882,351;33,69
882,571;33,66
882,791;33,69
883,011;33,64
883,23;33,6
883,45;33,58
883,67;33,68
883,89;33,63
884,11;33,65
884,33;33,6
884,549;33,65
884,769;33,58
884,989;33,66
885,209;33,68
885,428;33,62
885,648;33,6
885,868;33,66
886,087;33,77
886,307;33,64
886,526;33,55
886,746;33,67
886,965;33,6
887,185;33,69
887,404;33,74
887,624;33,87
887,843;33,88
888,063;33,88
888,282;33,87
888,502;33,86
888,721;33,9
888,94;33,9
889,16;33,9
889,379;33,95
889,598;34,02
889,818;34,06
890,037;34,16
890,256;34,19
890,475;34,24
890,694;34,13
890,914;34,28
891,133;34,32
891,352;34,48
891,571;34,47
891,79;34,39
892,009;34,36
892,228;34,33
892,447;34,31
892,666;34,37
892,885;34,38
893,104;34,51
893,323;34,59
893,542;34,74
893,761;34,76
893,98;34,79
894,199;34,73
894,417;34,68
894,636;34,75
894,855;34,78
895,074;34,68
895,293;34,77
895,511;34,7
895,73;34,73
895,949;34,59
896,167;34,66
896,386;34,79
896,605;34,78
896,823;34,83
897,042;34,86
897,26;34,8
897,479;34,87
897,697;34,87
897,916;34,75
898,134;34,62
898,353;34,72
898,571;34,69
898,79;34,73
899,008;34,8
899,227;34,73
899,445;34,76
899,663;34,89
899,882;34,87
900,1;34,94
900,318;34,93
900,536;35
900,755;35,11
900,973;35,02
901,191;35,01
901,409;35,01
901,627;35,05
901,846;35,16
902,064;35,13
902,282;35,14
902,5;35,17
902,718;35,21
902,936;35,09
903,154;35,14
903,372;35,07
903,59;35,07
903,808;35,14
904,026;35,21
904,244;35,17
904,462;35,1
904,679;35,12
904,897;35,1
905,115;35
905,333;34,96
905,551;34,97
905,768;34,99
905,986;35,02
906,204;34,98
906,422;34,93
906,639;34,83
906,857;34,9
907,074;34,84
907,292;34,84
907,51;34,84
907,727;34,97
907,945;35,24
908,162;35,22
908,38;35,14
908,597;35,12
908,815;35,21
909,032;35,31
909,25;35,13
909,467;35,12
909,684;35,16
909,902;35,19
910,119;35,22
910,337;35,34
910,554;35,37
910,771;35,35
910,988;35,34
911,206;35,45
911,423;35,38
911,64;35,52
911,857;35,53
912,074;35,49
912,291;35,32
912,509;35,11
912,726;35,16
912,943;35,25
913,16;35,27
913,377;35,25
913,594;35,27
913,811;35,47
914,028;35,63
914,245;35,6
914,462;35,58
914,679;35,62
914,896;35,64
915,112;35,54
915,329;35,69
915,546;35,67
915,763;35,71
915,98;35,69
916,196;35,62
916,413;35,88
916,63;35,96
916,847;36,1
917,063;36,18
917,28;36,16
917,497;36,2
917,713;36,22
917,93;36,29
918,146;36,25
918,363;36,37
918,579;36,31
918,796;36,5
919,012;36,59
919,229;36,58
919,445;36,65
919,662;36,85
919,878;36,7
920,095;36,96
920,311;36,91
920,527;36,98
920,744;37,15
920,96;37,08
921,176;37,05
921,392;37,13
921,609;37,2
921,825;37,38
922,041;37,47
922,257;37,42
922,473;37,36
922,69;37,36
922,906;37,3
923,122;37,38
923,338;37,38
923,554;37,33
923,77;37,34
923,986;37,23
924,202;37,26
924,418;37,43
924,634;37,25
924,85;37,37
925,066;37,35
925,282;37,3
925,497;37,31
925,713;37,39
925,929;37,37
926,145;37,34
926,361;37,25
926,576;37,16
926,792;37,15
927,008;37,26
927,224;37,4
927,439;37,28
927,655;37,16
927,871;37,18
928,086;37,23
928,302;37,23
928,517;37,33
928,733;37,28
928,948;37,24
929,164;37,32
929,379;37,32
929,595;37,32
929,81;37,43
930,026;37,4
930,241;37,37
930,456;37,22
930,672;37,28
930,887;37,33
931,102;37,35
931,318;37,41
931,533;37,32
931,748;37,3
931,964;37,37
932,179;37,38
932,394;37,31
932,609;37,28
932,824;37,27
933,039;37,21
933,255;37,13
933,47;37,06
933,685;36,98
933,9;37,04
934,115;37,01
934,33;36,87
934,545;36,87
934,76;36,98
934,975;37,24
935,19;37,23
935,404;37,15
935,619;37,2
935,834;37,1
936,049;37,31
936,264;37,32
936,479;37,49
936,693;37,59
936,908;37,77
937,123;37,81
937,338;38,14
937,552;38,05
937,767;38,14
937,982;38,45
938,196;38,62
938,411;38,53
938,625;38,84
938,84;39
939,055;38,94
939,269;38,95
939,484;39,05
939,698;39,19
939,912;39,78
940,127;39,76
940,341;40,17
940,556;39,99
940,77;40,39
940,984;40,16
941,199;40,84
941,413;40,58
941,627;40,58
941,842;40,41
942,056;40,95
942,27;41,34
942,484;41,25
942,699;41,3
942,913;41,66
943,127;41,51
943,341;41,37
943,555;41,87
943,769;42,33
943,983;42,11
944,197;41,64
944,411;41,11
944,625;41,13
944,839;41,24
945,053;41,46
945,267;41,27
945,481;41,57
945,695;41,5
945,909;42,12
946,123;42,5
946,336;42,82
946,55;43,43
946,764;43,63
946,978;44,01
947,192;44,14
947,405;43,87
947,619;44,16
947,833;44,85
948,046;45,08
948,26;45,11
948,474;44,76
948,687;45,12
948,901;45,53
949,114;45,24
949,328;45,22
949,541;44,7
949,755;44,6
949,968;44,27
950,182;44,01
950,395;43,68
950,609;43,67
950,822;43,59
951,035;42,92
951,249;42,44
951,462;42,38
951,675;42,26
951,889;41,91
952,102;42,03
952,315;41,81
952,528;41,65
952,741;41,49
952,955;41,71
953,168;41,68
953,381;41,26
953,594;41,73
953,807;41,73
954,02;42,31
954,233;41,94
954,446;42,01
954,659;42,18
954,872;41,96
955,085;41,83
955,298;41,64
955,511;41,56
955,724;41,6
955,937;41,76
956,15;41,69
956,362;41,73
956,575;41,97
956,788;41,75
957,001;41,55
957,214;41,46
957,426;41,44
957,639;41,38
957,852;41,22
958,064;41,14
958,277;40,88
958,49;41,06
958,702;41,23
958,915;41,37
959,127;41,45
959,34;41,53
959,552;41,45
959,765;41,52
959,977;41,68
960,19;41,52
960,402;41,23
960,615;41,31
960,827;41,4
961,039;40,82
961,252;40,87
961,464;40,92
961,676;41,18
961,889;41,24
962,101;41,34
962,313;41,75
962,525;41,8
962,738;41,99
962,95;41,52
963,162;42,06
963,374;42,06
963,586;41,84
963,798;42,13
964,01;42,28
964,222;42,6
964,434;42,83
964,646;42,89
964,858;42,6
965,07;42,74
965,282;42,99
965,494;43,21
965,706;43,31
965,918;43,44
966,13;43,25
966,342;43,17
966,553;43,05
966,765;43,08
966,977;42,95
967,189;43,05
967,401;43,19
967,612;42,71
967,824;42,66
968,036;42,44
968,247;42,02
968,459;42,05
968,67;41,79
968,882;41,65
969,094;41,88
969,305;42,52
969,517;42,52
969,728;42,43
969,94;42,7
970,151;42,59
970,362;42,5
970,574;42,64
970,785;42,92
970,997;43,2
971,208;43,11
971,419;43,26
971,631;43,66
971,842;44,05
972,053;44,22
972,264;44,53
972,476;44,83
972,687;45,19
972,898;45,14
973,109;44,83
973,32;44,91
973,531;44,92
973,742;44,7
973,954;44,88
974,165;45,06
974,376;44,85
974,587;45,22
974,798;45,12
975,009;44,91
975,22;44,97
975,43;44,79
975,641;45,23
975,852;45,38
976,063;45,39
976,274;44,77
976,485;45,03
976,695;44,82
976,906;44,97
977,117;45,09
977,328;45,55
977,538;45,69
977,749;45,55
977,96;45,9
978,17;46,03
978,381;45,71
978,592;45,58
978,802;45,84
979,013;45,84
979,223;45,93
979,434;46,05
979,644;46,41
979,855;46,73
980,065;46,59
980,276;46,08
980,486;45,71
980,696;45,82
980,907;45,38
981,117;45,75
981,327;45,84
981,538;45,8
981,748;45,15
981,958;45,28
982,169;45,5
982,379;45,05
982,589;44,88
982,799;45,1
983,009;45,1
983,219;44,61
983,43;44,11
983,64;44,11
983,85;44,38
984,06;43,94
984,27;43,59
984,48;43,68
984,69;44,02
984,9;43,62
985,11;44,05
985,32;44,28
985,529;43,91
985,739;43,55
985,949;43,53
986,159;43,42
986,369;43,57
986,579;43,53
986,788;44,06
986,998;44,18
987,208;44,38
987,417;44,36
987,627;44,41
987,837;45,01
988,046;44,92
988,256;44,56
988,466;44,59
988,675;44,78
988,885;44,27
989,094;44,49
989,304;45,11
989,513;44,77
989,723;45,2
989,932;45,08
990,142;45,46
990,351;45,78
990,56;45,97
990,77;45,85
990,979;45,76
991,188;45,71
991,398;45,83
991,607;45,45
991,816;45,98
992,025;46,01
992,235;45,74
992,444;46,62
992,653;47,46
992,862;47,57
993,071;47,84
993,28;48,44
993,489;48,8
993,698;48,78
993,908;48,85
994,117;48,44
994,326;48,75
994,534;48,67
994,743;48,27
994,952;48,59
995,161;48,28
995,37;48,71
995,579;48,68
995,788;48,72
995,997;49,27
996,205;49,8
996,414;49,59
996,623;49,78
996,832;49,4
997,04;48,9
997,249;48,11
997,458;47,94
997,666;47,85
997,875;47,22
998,084;46,87
998,292;46,77
998,501;46,84
998,709;46,2
998,918;46,25
999,126;46,27
999,335;46,41
999,543;46,68
999,752;46,72
999,96;46,5
1000,169;45,76
1000,377;45,59
1000,585;44,32
1000,794;44,87
1001,002;44,72
1001,21;44,63
1001,418;44,26
1001,627;45,6
1001,835;45,92
1002,043;45,91
1002,251;46,37
1002,459;47,58
1002,668;47,63
1002,876;47,94
1003,084;48,63
1003,292;48,58
1003,5;48,34
1003,708;48,38
1003,916;48,19
1004,124;48,05
1004,332;48,32
1004,54;49,29
1004,748;49,65
1004,956;50,82
1005,163;50,22
1005,371;49,68
1005,579;50,05
1005,787;50,12
1005,995;49,92
1006,202;49,82
1006,41;49,83
1006,618;49,36
1006,826;48,49
1007,033;48,33
1007,241;48,37
1007,449;48,78
1007,656;48,92
1007,864;49,52
1008,071;50,09
1008,279;51
1008,486;50,79
1008,694;51,01
1008,901;50,66
1009,109;49,97
1009,316;49,48
1009,524;50,46
1009,731;51,28
1009,938;50,75
1010,146;51,06
1010,353;50,99
1010,56;50,4
1010,768;50,62
1010,975;51,2
1011,182;51,1
1011,389;50,94
1011,597;50,23
1011,804;50,44
1012,011;50,65
1012,218;50,36
1012,425;49,51
1012,632;49,57
1012,839;49,92
1013,046;49,36
1013,253;49,33
1013,46;49,79
1013,667;49,29
1013,874;48,78
1014,081;49,56
1014,288;49,41
1014,495;49,28
1014,702;48,33
1014,909;48,68
1015,116;48,53
1015,323;48,57
1015,529;48,59
1015,736;49,9
1015,943;50,45
1016,15;49,99
1016,356;49,98
1016,563;50,31
1016,77;50,62
1016,976;49,9
1017,183;49,62
1017,389;49,65
1017,596;48,87
1017,803;47,97
1018,009;47,57
1018,216;47,93
1018,422;46,9
1018,629;47,53
1018,835;48,03
1019,041;49,17
1019,248;49,53
1019,454;49,62
1019,661;50,16
1019,867;50,84
1020,073;51,17
1020,279;50,29
1020,486;49,88
1020,692;50,58
1020,898;50,13
1021,104;49,98
1021,311;49,44
1021,517;48,39
1021,723;49,9
1021,929;50,65
1022,135;51,75
1022,341;52,89
1022,547;53,95
1022,753;55,63
1022,959;54,64
1023,165;55,02
1023,371;54,95
1023,577;55,15
1023,783;53,76
1023,989;52,1
1024,195;52,31
1024,401;52,02
1024,607;52,77
1024,812;53,78
1025,018;53,4
1025,224;53,7
1025,43;54,45
1025,635;54,33
1025,841;56,73
1026,047;54,97
1026,252;55,83
1026,458;56,95
1026,664;56,81
1026,869;55,35
1027,075;54,06
1027,28;54,66
1027,486;53,72
1027,691;53,73
1027,897;53,83
1028,102;54,05
1028,308;54,14
1028,513;53,68
1028,719;52,43
1028,924;52,61
1029,129;52,03
1029,335;51,89
1029,54;51,23
1029,745;50,45
1029,95;50,99
1030,156;50,11
1030,361;50,74
1030,566;52,2
1030,771;49,52
1030,976;49,21
1031,182;50,67
1031,387;50,65
1031,592;51,66
1031,797;52,8
1032,002;51,34
1032,207;52,58
1032,412;54,34
1032,617;55,59
1032,822;54,28
1033,027;55,88
1033,232;57,12
1033,437;56,27
1033,642;57,14
1033,846;59,01
1034,051;59,88
1034,256;61,92
1034,461;61,68
1034,666;60,83
1034,87;56,55
1035,075;57,13
1035,28;56,65
1035,484;56,04
1035,689;54,28
1035,894;50,89
1036,098;47,21
1036,303;47,76
1036,507;46,01
1036,712;43,94
1036,917;43,79
1037,121;45,89
1037,325;45,18
1037,53;44,43
1037,734;44,62
1037,939;45,42
1038,143;44,85
1038,348;45,71
1038,552;46,61
1038,756;46,49
1038,961;46,63
1039,165;47,55
1039,369;46,73
1039,573;47,4
1039,778;44,82
1039,982;45,66
1040,186;48,26
1040,39;52,41
1040,594;53,71
1040,798;53,19
1041,002;54,83
1041,206;52,51
1041,41;52,84
1041,614;53,43
1041,818;54,07
1042,022;54,5
1042,226;51,28
1042,43;53,11
1042,634;52,79
1042,838;50,68
1043,042;49,52
1043,246;49,21
1043,45;50,5
1043,653;51,43
1043,857;51,69
1044,061;52,89
1044,265;52,59
1044,468;53,66
1044,672;53,16
1044,876;52,25
1045,079;52,68
1045,283;54,21
1045,487;56,51
1045,69;55,09
1045,894;52,3
1046,097;53,72
1046,301;53,83
1046,504;54,6
1046,708;51,65
1046,911;50,86
1047,115;51,4
1047,318;52,94
1047,522;54,32
1047,725;54,72
1047,928;57,43
1048,132;57,65
1048,335;57,52
1048,538;59,46
1048,741;60,8
1048,945;59,87
1049,148;60,03
1049,351;58,54
1049,554;57,69
1049,757;57,67
1049,96;57,35
1050,163;61,82
1050,367;59,17
1050,57;60,25
1050,773;58,71
1050,976;62,26
1051,179;59,99
1051,382;58,95
1051,585;62,38
1051,787;62,11
1051,99;62,05
1052,193;62,94
1052,396;61,36
1052,599;62,16
1052,802;63,91
1053,005;62,31
1053,207;60,73
1053,41;62,1
1053,613;62,2
1053,815;61,01
1054,018;62,92
1054,221;63,13
1054,423;61,51
1054,626;60,95
1054,829;60,35
1055,031;63,61
1055,234;60,41
1055,436;64,52
1055,639;66,18
1055,841;59,27
1056,044;61,36
1056,246;60,5
