Data from malachiteVSwhite_Reflection__2__50.txt Node;
"Date: Wed Sep 10 12:51:55 CEST 2025 User: sycur Spectrometer: SR400348 Trigger mode: 0 Integration Time (sec): 1,000000E-2 Scans to average: 10 Electric dark correction enabled: true Nonlinearity correction enabled: false Boxcar width: 10 XAxis mode: Wavelengths Number of Pixels in Spectrum: 3648 >>>>>Begin Spectral Data<<<<<";
186,01;37,87
186,281;52,4
186,552;70,23
186,822;82,34
187,093;466,67
187,364;310,37
187,635;136,45
187,905;96,35
188,176;77,54
188,447;46,83
188,717;34,97
188,988;32,02
189,258;33,19
189,529;34,82
189,8;26,94
190,07;25,65
190,341;21,07
190,611;22,99
190,882;17,51
191,152;16,2
191,423;14,65
191,693;15,04
191,964;15,9
192,234;15,43
192,505;15,31
192,775;17,05
193,045;17,15
193,316;15,2
193,586;15,44
193,856;14,34
194,127;14,88
194,397;15,21
194,667;15,28
194,938;13,74
195,208;13,68
195,478;14,91
195,748;14,05
196,019;13,91
196,289;12,86
196,559;13,18
196,829;11,05
197,099;12,14
197,37;11,97
197,64;11,39
197,91;10,68
198,18;10,12
198,45;9,47
198,72;8,7
198,99;8,33
199,26;7,25
199,53;7,95
199,8;8
200,07;8,07
200,34;7,61
200,61;7,87
200,88;7,79
201,15;7,08
201,42;6,8
201,69;6,43
201,96;6,43
202,23;7,22
202,499;8,71
202,769;8,24
203,039;7,73
203,309;7
203,579;6,97
203,849;7,33
204,118;7,11
204,388;7,1
204,658;6,87
204,927;7,02
205,197;6,26
205,467;6,25
205,736;6,25
206,006;6,15
206,276;5,85
206,545;5,82
206,815;5,98
207,085;6,3
207,354;6,64
207,624;6,37
207,893;5,97
208,163;5,25
208,432;5,24
208,702;5,08
208,971;4,88
209,241;4,89
209,51;4,87
209,78;5,09
210,049;5,01
210,318;5,34
210,588;5,21
210,857;5,53
211,127;5,47
211,396;5,08
211,665;5,3
211,935;5,68
212,204;5,85
212,473;5,83
212,742;5,62
213,012;5,57
213,281;5,76
213,55;5,89
213,819;5,95
214,088;5,97
214,358;6,03
214,627;6,24
214,896;6,15
215,165;5,96
215,434;5,68
215,703;5,47
215,972;5,19
216,241;5,07
216,51;4,74
216,779;4,5
217,048;4,52
217,317;4,21
217,586;4,07
217,855;3,89
218,124;3,7
218,393;3,64
218,662;3,67
218,931;3,72
219,2;3,37
219,469;3,46
219,738;3,49
220,006;3,52
220,275;3,4
220,544;3,52
220,813;3,56
221,082;3,68
221,35;3,81
221,619;3,86
221,888;3,96
222,157;4,15
222,425;4,26
222,694;4,24
222,963;4,32
223,231;4,25
223,5;4,3
223,769;4,28
224,037;4,28
224,306;4,14
224,574;4
224,843;4,1
225,111;4,03
225,38;3,9
225,648;3,89
225,917;3,85
226,185;3,77
226,454;3,77
226,722;3,78
226,991;3,65
227,259;3,61
227,528;3,52
227,796;3,42
228,064;3,32
228,333;3,37
228,601;3,36
228,869;3,33
229,138;3,23
229,406;3,26
229,674;3,24
229,942;3,25
230,211;3,26
230,479;3,22
230,747;3,22
231,015;3,22
231,283;3,21
231,552;3,2
231,82;3,12
232,088;3,07
232,356;3,04
232,624;3,08
232,892;3,11
233,16;3,14
233,428;3,15
233,696;3,17
233,964;3,17
234,232;3,16
234,5;3,14
234,768;3,12
235,036;3,13
235,304;3,12
235,572;3,17
235,84;3,11
236,108;3,12
236,376;3,09
236,644;3,05
236,912;3,02
237,179;3,06
237,447;3,06
237,715;3,07
237,983;3,03
238,251;2,98
238,518;2,96
238,786;2,93
239,054;2,86
239,322;2,86
239,589;2,8
239,857;2,77
240,125;2,77
240,392;2,79
240,66;2,77
240,927;2,72
241,195;2,68
241,463;2,73
241,73;2,72
241,998;2,72
242,265;2,71
242,533;2,71
242,8;2,69
243,068;2,71
243,335;2,68
243,603;2,72
243,87;2,71
244,138;2,71
244,405;2,73
244,672;2,74
244,94;2,7
245,207;2,72
245,474;2,75
245,742;2,72
246,009;2,67
246,276;2,69
246,544;2,69
246,811;2,65
247,078;2,64
247,345;2,66
247,613;2,67
247,88;2,65
248,147;2,64
248,414;2,63
248,681;2,63
248,948;2,64
249,215;2,59
249,483;2,59
249,75;2,57
250,017;2,52
250,284;2,52
250,551;2,53
250,818;2,54
251,085;2,52
251,352;2,55
251,619;2,6
251,886;2,56
252,153;2,57
252,42;2,57
252,687;2,57
252,953;2,55
253,22;2,51
253,487;2,52
253,754;2,55
254,021;2,54
254,288;2,54
254,555;2,52
254,821;2,55
255,088;2,56
255,355;2,55
255,622;2,56
255,888;2,57
256,155;2,56
256,422;2,53
256,688;2,52
256,955;2,51
257,222;2,5
257,488;2,51
257,755;2,51
258,022;2,54
258,288;2,52
258,555;2,5
258,821;2,5
259,088;2,51
259,354;2,47
259,621;2,48
259,887;2,51
260,154;2,52
260,42;2,49
260,687;2,49
260,953;2,51
261,219;2,52
261,486;2,48
261,752;2,5
262,019;2,49
262,285;2,48
262,551;2,46
262,818;2,46
263,084;2,45
263,35;2,44
263,616;2,42
263,883;2,42
264,149;2,43
264,415;2,45
264,681;2,43
264,947;2,44
265,214;2,44
265,48;2,39
265,746;2,4
266,012;2,41
266,278;2,38
266,544;2,4
266,81;2,39
267,076;2,42
267,342;2,38
267,608;2,41
267,874;2,41
268,14;2,44
268,406;2,45
268,672;2,45
268,938;2,45
269,204;2,47
269,47;2,47
269,736;2,45
270,002;2,42
270,268;2,45
270,533;2,47
270,799;2,48
271,065;2,45
271,331;2,43
271,597;2,45
271,862;2,46
272,128;2,44
272,394;2,47
272,66;2,44
272,925;2,49
273,191;2,46
273,457;2,47
273,722;2,45
273,988;2,44
274,254;2,44
274,519;2,45
274,785;2,43
275,05;2,42
275,316;2,43
275,582;2,45
275,847;2,44
276,113;2,41
276,378;2,4
276,644;2,46
276,909;2,46
277,174;2,46
277,44;2,48
277,705;2,48
277,971;2,47
278,236;2,5
278,501;2,48
278,767;2,48
279,032;2,49
279,297;2,51
279,563;2,48
279,828;2,48
280,093;2,45
280,358;2,45
280,624;2,45
280,889;2,47
281,154;2,47
281,419;2,47
281,684;2,46
281,95;2,43
282,215;2,43
282,48;2,42
282,745;2,4
283,01;2,39
283,275;2,36
283,54;2,34
283,805;2,31
284,07;2,33
284,335;2,32
284,6;2,31
284,865;2,31
285,13;2,3
285,395;2,32
285,66;2,33
285,925;2,35
286,19;2,35
286,455;2,33
286,72;2,33
286,985;2,3
287,249;2,32
287,514;2,34
287,779;2,31
288,044;2,31
288,309;2,31
288,573;2,3
288,838;2,36
289,103;2,38
289,367;2,39
289,632;2,4
289,897;2,41
290,161;2,41
290,426;2,4
290,691;2,43
290,955;2,4
291,22;2,4
291,484;2,38
291,749;2,37
292,014;2,37
292,278;2,37
292,543;2,41
292,807;2,43
293,072;2,43
293,336;2,43
293,6;2,41
293,865;2,4
294,129;2,39
294,394;2,37
294,658;2,37
294,922;2,34
295,187;2,33
295,451;2,32
295,715;2,32
295,98;2,31
296,244;2,31
296,508;2,3
296,773;2,32
297,037;2,33
297,301;2,35
297,565;2,37
297,829;2,35
298,094;2,33
298,358;2,3
298,622;2,32
298,886;2,34
299,15;2,39
299,414;2,4
299,678;2,44
299,942;2,42
300,206;2,42
300,47;2,45
300,734;2,45
300,998;2,46
301,262;2,47
301,526;2,47
301,79;2,46
302,054;2,49
302,318;2,49
302,582;2,53
302,846;2,51
303,11;2,52
303,374;2,53
303,637;2,54
303,901;2,55
304,165;2,52
304,429;2,52
304,693;2,5
304,956;2,52
305,22;2,52
305,484;2,53
305,747;2,55
306,011;2,53
306,275;2,5
306,538;2,51
306,802;2,51
307,066;2,53
307,329;2,51
307,593;2,5
307,856;2,5
308,12;2,44
308,384;2,48
308,647;2,45
308,911;2,44
309,174;2,43
309,438;2,4
309,701;2,41
309,964;2,42
310,228;2,43
310,491;2,42
310,755;2,41
311,018;2,43
311,281;2,45
311,545;2,46
311,808;2,5
312,071;2,48
312,335;2,47
312,598;2,48
312,861;2,53
313,124;2,56
313,388;2,6
313,651;2,61
313,914;2,6
314,177;2,58
314,44;2,57
314,704;2,56
314,967;2,58
315,23;2,62
315,493;2,64
315,756;2,62
316,019;2,61
316,282;2,6
316,545;2,57
316,808;2,56
317,071;2,57
317,334;2,58
317,597;2,6
317,86;2,63
318,123;2,63
318,386;2,6
318,649;2,57
318,912;2,54
319,175;2,55
319,437;2,54
319,7;2,56
319,963;2,61
320,226;2,63
320,489;2,62
320,751;2,6
321,014;2,57
321,277;2,58
321,54;2,58
321,802;2,59
322,065;2,61
322,328;2,59
322,59;2,58
322,853;2,58
323,116;2,55
323,378;2,52
323,641;2,5
323,903;2,51
324,166;2,5
324,428;2,48
324,691;2,51
324,953;2,52
325,216;2,53
325,478;2,51
325,741;2,5
326,003;2,51
326,266;2,51
326,528;2,48
326,791;2,47
327,053;2,5
327,315;2,49
327,578;2,49
327,84;2,5
328,102;2,47
328,365;2,48
328,627;2,46
328,889;2,48
329,151;2,48
329,414;2,51
329,676;2,51
329,938;2,53
330,2;2,5
330,462;2,51
330,725;2,51
330,987;2,53
331,249;2,54
331,511;2,54
331,773;2,55
332,035;2,61
332,297;2,64
332,559;2,61
332,821;2,6
333,083;2,59
333,345;2,58
333,607;2,63
333,869;2,65
334,131;2,69
334,393;2,71
334,655;2,7
334,917;2,69
335,179;2,68
335,44;2,7
335,702;2,7
335,964;2,69
336,226;2,7
336,488;2,68
336,749;2,67
337,011;2,68
337,273;2,67
337,535;2,65
337,796;2,65
338,058;2,69
338,32;2,73
338,581;2,72
338,843;2,71
339,105;2,71
339,366;2,71
339,628;2,72
339,889;2,72
340,151;2,75
340,412;2,72
340,674;2,73
340,935;2,7
341,197;2,75
341,458;2,75
341,72;2,74
341,981;2,73
342,243;2,72
342,504;2,74
342,766;2,77
343,027;2,77
343,288;2,78
343,55;2,82
343,811;2,8
344,072;2,8
344,334;2,85
344,595;2,82
344,856;2,81
345,117;2,85
345,379;2,86
345,64;2,88
345,901;2,9
346,162;2,94
346,423;2,95
346,684;2,9
346,946;2,92
347,207;2,94
347,468;2,98
347,729;3
347,99;3,04
348,251;3,02
348,512;3,03
348,773;3,02
349,034;2,99
349,295;3,03
349,556;3,05
349,817;3,02
350,078;3,06
350,339;3,08
350,6;3,07
350,86;3,08
351,121;3,04
351,382;3,07
351,643;3,03
351,904;3,04
352,165;3,03
352,425;3,03
352,686;3,05
352,947;3,05
353,208;3,05
353,468;3,04
353,729;3,02
353,99;3,07
354,25;3,09
354,511;3,11
354,772;3,14
355,032;3,18
355,293;3,21
355,553;3,21
355,814;3,18
356,074;3,17
356,335;3,17
356,596;3,23
356,856;3,22
357,116;3,23
357,377;3,27
357,637;3,31
357,898;3,31
358,158;3,3
358,419;3,31
358,679;3,34
358,939;3,33
359,2;3,35
359,46;3,36
359,72;3,35
359,981;3,34
360,241;3,26
360,501;3,24
360,761;3,24
361,022;3,24
361,282;3,28
361,542;3,32
361,802;3,29
362,062;3,26
362,323;3,28
362,583;3,33
362,843;3,32
363,103;3,36
363,363;3,36
363,623;3,41
363,883;3,44
364,143;3,47
364,403;3,51
364,663;3,54
364,923;3,55
365,183;3,63
365,443;3,63
365,703;3,67
365,963;3,72
366,223;3,79
366,483;3,8
366,743;3,82
367,002;3,84
367,262;3,86
367,522;3,9
367,782;3,93
368,042;3,96
368,301;4,01
368,561;4,02
368,821;4,05
369,081;4,04
369,34;4,06
369,6;4,06
369,86;4,07
370,119;4,07
370,379;4,11
370,638;4,12
370,898;4,14
371,158;4,19
371,417;4,19
371,677;4,19
371,936;4,25
372,196;4,26
372,455;4,27
372,715;4,31
372,974;4,36
373,234;4,36
373,493;4,37
373,753;4,4
374,012;4,4
374,271;4,44
374,531;4,48
374,79;4,53
375,049;4,6
375,309;4,61
375,568;4,62
375,827;4,63
376,086;4,6
376,346;4,66
376,605;4,71
376,864;4,72
377,123;4,75
377,383;4,74
377,642;4,8
377,901;4,85
378,16;4,87
378,419;4,86
378,678;4,9
378,937;4,94
379,196;4,94
379,455;5,02
379,714;5,06
379,973;5,11
380,232;5,14
380,491;5,14
380,75;5,17
381,009;5,23
381,268;5,28
381,527;5,33
381,786;5,35
382,045;5,34
382,304;5,43
382,563;5,48
382,821;5,59
383,08;5,6
383,339;5,66
383,598;5,76
383,857;5,81
384,115;5,88
384,374;5,92
384,633;6,03
384,891;6,08
385,15;6,13
385,409;6,22
385,667;6,26
385,926;6,32
386,185;6,37
386,443;6,43
386,702;6,46
386,96;6,49
387,219;6,53
387,477;6,62
387,736;6,63
387,994;6,69
388,253;6,67
388,511;6,71
388,77;6,73
389,028;6,75
389,287;6,78
389,545;6,84
389,803;6,86
390,062;6,86
390,32;6,86
390,578;6,9
390,837;6,91
391,095;6,97
391,353;7,04
391,612;7,09
391,87;7,11
392,128;7,18
392,386;7,23
392,644;7,3
392,903;7,3
393,161;7,32
393,419;7,36
393,677;7,4
393,935;7,45
394,193;7,48
394,451;7,53
394,709;7,53
394,967;7,57
395,225;7,64
395,483;7,75
395,741;7,8
395,999;7,86
396,257;7,9
396,515;7,91
396,773;7,93
397,031;8
397,289;8,08
397,547;8,13
397,805;8,21
398,062;8,26
398,32;8,32
398,578;8,42
398,836;8,4
399,094;8,42
399,351;8,45
399,609;8,56
399,867;8,57
400,124;8,64
400,382;8,74
400,64;8,81
400,897;8,88
401,155;8,92
401,413;8,96
401,67;8,97
401,928;9,05
402,185;9,1
402,443;9,09
402,701;9,14
402,958;9,2
403,216;9,2
403,473;9,19
403,73;9,27
403,988;9,26
404,245;9,35
404,503;9,45
404,76;9,53
405,018;9,49
405,275;9,63
405,532;9,73
405,79;9,72
406,047;9,73
406,304;9,72
406,561;9,76
406,819;9,84
407,076;9,88
407,333;9,91
407,59;9,95
407,848;10,01
408,105;10,04
408,362;10,08
408,619;10,16
408,876;10,2
409,133;10,2
409,39;10,31
409,647;10,4
409,904;10,37
410,161;10,42
410,418;10,5
410,675;10,47
410,932;10,46
411,189;10,54
411,446;10,55
411,703;10,56
411,96;10,64
412,217;10,65
412,474;10,69
412,731;10,69
412,988;10,78
413,245;10,87
413,501;10,89
413,758;10,89
414,015;10,87
414,272;10,96
414,529;11,04
414,785;11,02
415,042;11,06
415,299;11,14
415,555;11,12
415,812;11,08
416,069;11,14
416,325;11,2
416,582;11,21
416,838;11,27
417,095;11,34
417,352;11,34
417,608;11,4
417,865;11,46
418,121;11,55
418,378;11,53
418,634;11,52
418,891;11,65
419,147;11,75
419,403;11,82
419,66;11,85
419,916;11,89
420,173;11,93
420,429;11,94
420,685;11,99
420,942;12,07
421,198;12,17
421,454;12,2
421,711;12,18
421,967;12,23
422,223;12,26
422,479;12,3
422,735;12,35
422,992;12,37
423,248;12,36
423,504;12,4
423,76;12,45
424,016;12,47
424,272;12,47
424,528;12,48
424,784;12,49
425,041;12,53
425,297;12,54
425,553;12,6
425,809;12,63
426,065;12,65
426,32;12,71
426,576;12,75
426,832;12,77
427,088;12,9
427,344;12,91
427,6;12,98
427,856;12,97
428,112;13,03
428,368;13,06
428,623;13,14
428,879;13,18
429,135;13,22
429,391;13,29
429,646;13,34
429,902;13,38
430,158;13,47
430,414;13,48
430,669;13,56
430,925;13,6
431,181;13,65
431,436;13,72
431,692;13,73
431,947;13,78
432,203;13,82
432,458;13,79
432,714;13,87
432,97;13,85
433,225;13,91
433,481;13,91
433,736;13,94
433,991;13,95
434,247;13,95
434,502;14
434,758;14,03
435,013;14,02
435,268;14,02
435,524;14,01
435,779;14,07
436,034;14,1
436,29;14,12
436,545;14,12
436,8;14,14
437,056;14,2
437,311;14,24
437,566;14,28
437,821;14,34
438,076;14,36
438,331;14,47
438,587;14,53
438,842;14,6
439,097;14,7
439,352;14,77
439,607;14,79
439,862;14,79
440,117;14,84
440,372;14,88
440,627;14,95
440,882;14,99
441,137;15,06
441,392;15,05
441,647;15,1
441,902;15,19
442,157;15,24
442,412;15,25
442,667;15,28
442,921;15,32
443,176;15,4
443,431;15,45
443,686;15,47
443,941;15,47
444,195;15,53
444,45;15,49
444,705;15,49
444,96;15,61
445,214;15,67
445,469;15,65
445,724;15,69
445,978;15,74
446,233;15,8
446,487;15,81
446,742;15,85
446,997;15,91
447,251;15,88
447,506;15,91
447,76;15,93
448,015;15,95
448,269;16,05
448,524;16,05
448,778;16,06
449,033;16,09
449,287;16,14
449,541;16,18
449,796;16,27
450,05;16,38
450,305;16,36
450,559;16,42
450,813;16,54
451,067;16,58
451,322;16,6
451,576;16,62
451,83;16,69
452,084;16,75
452,339;16,81
452,593;16,9
452,847;16,93
453,101;17,01
453,355;17,13
453,609;17,11
453,864;17,13
454,118;17,14
454,372;17,2
454,626;17,26
454,88;17,31
455,134;17,37
455,388;17,36
455,642;17,4
455,896;17,45
456,15;17,47
456,404;17,53
456,658;17,54
456,912;17,55
457,165;17,56
457,419;17,58
457,673;17,62
457,927;17,6
458,181;17,71
458,435;17,72
458,688;17,69
458,942;17,73
459,196;17,74
459,45;17,81
459,703;17,85
459,957;17,88
460,211;17,91
460,464;17,94
460,718;18,03
460,972;18,13
461,225;18,14
461,479;18,19
461,732;18,22
461,986;18,32
462,239;18,4
462,493;18,48
462,746;18,57
463;18,6
463,253;18,72
463,507;18,74
463,76;18,86
464,014;18,94
464,267;19,04
464,52;19,16
464,774;19,24
465,027;19,31
465,28;19,38
465,534;19,41
465,787;19,45
466,04;19,5
466,294;19,54
466,547;19,58
466,8;19,66
467,053;19,74
467,306;19,79
467,56;19,86
467,813;19,93
468,066;20,01
468,319;20,06
468,572;20,11
468,825;20,17
469,078;20,22
469,331;20,26
469,584;20,31
469,837;20,4
470,09;20,47
470,343;20,5
470,596;20,59
470,849;20,68
471,102;20,73
471,355;20,79
471,608;20,88
471,861;20,99
472,114;21,05
472,367;21,07
472,619;21,13
472,872;21,18
473,125;21,25
473,378;21,3
473,631;21,4
473,883;21,46
474,136;21,5
474,389;21,62
474,641;21,71
474,894;21,75
475,147;21,8
475,399;21,87
475,652;21,97
475,905;22,04
476,157;22,12
476,41;22,21
476,662;22,29
476,915;22,35
477,167;22,42
477,42;22,52
477,672;22,67
477,925;22,75
478,177;22,88
478,43;22,92
478,682;22,99
478,934;23,05
479,187;23,11
479,439;23,23
479,691;23,29
479,944;23,35
480,196;23,42
480,448;23,47
480,701;23,54
480,953;23,6
490,022;25,95
490,274;26,01
490,525;26,04
490,777;26,05
491,028;26,09
491,28;26,13
491,531;26,22
491,783;26,27
492,034;26,37
492,286;26,39
492,537;26,46
492,789;26,54
493,04;26,6
493,291;26,64
493,543;26,7
493,794;26,72
494,045;26,79
494,297;26,85
494,548;26,92
494,799;26,94
495,051;27
495,302;27,04
495,553;27,07
495,804;27,12
496,056;27,2
496,307;27,24
496,558;27,29
496,809;27,31
497,06;27,35
497,311;27,36
497,562;27,43
497,813;27,48
498,064;27,54
498,316;27,59
498,567;27,66
498,818;27,66
499,069;27,69
499,319;27,69
499,57;27,75
499,821;27,76
500,072;27,81
500,323;27,88
500,574;27,94
500,825;27,99
501,076;28,05
501,327;28,12
501,577;28,16
501,828;28,17
502,079;28,21
502,33;28,25
502,58;28,32
502,831;28,35
503,082;28,37
503,333;28,4
503,583;28,43
503,834;28,44
504,084;28,49
504,335;28,54
504,586;28,61
504,836;28,63
505,087;28,7
505,337;28,74
505,588;28,75
505,838;28,76
506,089;28,84
506,339;28,86
506,59;28,9
506,84;28,91
507,091;29,01
507,341;29,08
507,591;29,14
507,842;29,16
508,092;29,21
508,343;29,22
508,593;29,26
508,843;29,27
509,093;29,3
509,344;29,35
509,594;29,37
509,844;29,38
510,094;29,41
510,345;29,43
510,595;29,48
510,845;29,49
511,095;29,52
511,345;29,5
511,595;29,51
511,845;29,51
512,095;29,56
512,345;29,51
512,595;29,52
512,845;29,51
513,095;29,49
513,345;29,51
513,595;29,54
513,845;29,53
514,095;29,58
514,345;29,62
514,595;29,64
514,845;29,66
515,095;29,68
515,345;29,64
515,594;29,64
515,844;29,63
516,094;29,63
516,344;29,64
516,593;29,65
516,843;29,65
517,093;29,66
517,343;29,65
517,592;29,68
517,842;29,68
518,092;29,7
518,341;29,69
518,591;29,68
518,84;29,66
519,09;29,66
519,34;29,61
519,589;29,54
519,839;29,49
520,088;29,46
520,338;29,42
520,587;29,43
520,836;29,4
521,086;29,35
521,335;29,33
521,585;29,28
521,834;29,26
522,083;29,25
522,333;29,21
522,582;29,17
522,831;29,15
523,081;29,06
523,33;29,01
523,579;29
523,828;28,96
524,078;28,91
524,327;28,87
524,576;28,86
524,825;28,84
525,074;28,85
525,323;28,84
525,573;28,85
525,822;28,83
526,071;28,78
526,32;28,77
526,569;28,73
526,818;28,7
527,067;28,65
527,316;28,61
527,565;28,59
527,814;28,53
528,063;28,46
528,312;28,44
528,56;28,4
528,809;28,35
529,058;28,33
529,307;28,28
529,556;28,22
529,805;28,16
530,053;28,13
530,302;28,04
530,551;27,97
530,8;27,88
531,048;27,82
531,297;27,78
531,546;27,72
531,794;27,67
532,043;27,63
532,292;27,58
532,54;27,52
532,789;27,43
533,037;27,38
533,286;27,3
533,535;27,28
533,783;27,19
534,032;27,13
534,28;27,04
534,528;27,01
534,777;26,97
535,025;26,92
535,274;26,83
535,522;26,79
535,771;26,7
536,019;26,66
536,267;26,59
536,516;26,53
536,764;26,49
537,012;26,43
537,26;26,35
537,509;26,31
537,757;26,24
538,005;26,18
538,253;26,12
538,501;26,07
538,75;25,94
538,998;25,9
539,246;25,82
539,494;25,73
539,742;25,66
539,99;25,57
540,238;25,45
540,486;25,43
540,734;25,31
540,982;25,27
541,23;25,18
541,478;25,09
541,726;25,02
541,974;24,93
542,222;24,84
542,47;24,75
542,718;24,67
542,966;24,59
543,213;24,51
543,461;24,45
543,709;24,39
543,957;24,35
544,205;24,28
544,452;24,23
544,7;24,15
544,948;24,09
545,196;24,03
545,443;24,02
545,691;23,9
545,939;23,84
546,186;23,76
546,434;23,69
546,681;23,62
546,929;23,55
547,176;23,46
547,424;23,38
547,671;23,32
547,919;23,24
548,166;23,16
548,414;23,08
548,661;23
548,909;22,92
549,156;22,84
549,404;22,74
549,651;22,65
549,898;22,6
550,146;22,52
550,393;22,44
550,64;22,32
550,888;22,27
551,135;22,21
551,382;22,12
551,629;22,04
551,876;21,95
552,124;21,9
552,371;21,84
552,618;21,76
552,865;21,68
553,112;21,58
553,359;21,48
553,606;21,41
553,854;21,33
554,101;21,23
554,348;21,15
554,595;21,08
554,842;21,01
555,089;20,92
555,336;20,84
555,582;20,75
555,829;20,69
556,076;20,61
556,323;20,51
556,57;20,44
556,817;20,36
557,064;20,27
557,311;20,18
557,557;20,07
557,804;20,01
558,051;19,91
558,298;19,83
558,544;19,76
558,791;19,68
559,038;19,59
559,284;19,52
559,531;19,43
559,778;19,33
560,024;19,24
560,271;19,16
560,517;19,07
560,764;18,98
561,011;18,87
561,257;18,8
561,504;18,72
561,75;18,63
561,997;18,51
562,243;18,44
562,489;18,34
562,736;18,26
562,982;18,18
563,229;18,12
563,475;18,03
563,721;17,95
563,968;17,9
564,214;17,84
564,46;17,76
564,707;17,7
564,953;17,62
565,199;17,56
565,445;17,5
565,691;17,44
565,938;17,37
566,184;17,32
566,43;17,25
566,676;17,2
566,922;17,14
567,168;17,12
567,414;17,06
567,66;17,01
567,906;16,97
568,152;16,93
568,398;16,89
568,644;16,89
568,89;16,81
569,136;16,77
569,382;16,73
569,628;16,7
569,874;16,65
570,12;16,62
570,366;16,58
570,612;16,55
570,857;16,49
571,103;16,45
571,349;16,4
571,595;16,35
571,84;16,29
572,086;16,26
572,332;16,22
572,578;16,19
572,823;16,14
573,069;16,1
573,315;16,04
573,56;16
573,806;15,94
574,051;15,92
574,297;15,86
574,542;15,82
574,788;15,77
575,034;15,74
575,279;15,7
575,524;15,67
575,77;15,61
576,015;15,58
576,261;15,54
576,506;15,51
576,752;15,49
576,997;15,45
577,242;15,41
577,488;15,39
577,733;15,35
577,978;15,33
578,223;15,3
578,469;15,29
578,714;15,25
578,959;15,21
579,204;15,2
579,45;15,18
579,695;15,14
579,94;15,13
580,185;15,08
580,43;15,04
580,675;14,99
580,92;14,96
581,165;14,93
581,41;14,91
581,655;14,87
581,9;14,83
582,145;14,8
582,39;14,77
582,635;14,73
582,88;14,7
583,125;14,66
583,37;14,63
583,615;14,58
583,86;14,54
584,105;14,5
584,349;14,44
584,594;14,39
584,839;14,34
585,084;14,28
585,328;14,25
585,573;14,21
585,818;14,19
586,063;14,15
586,307;14,1
586,552;14,05
586,797;14,01
587,041;13,96
587,286;13,92
587,53;13,86
587,775;13,83
588,019;13,77
588,264;13,73
588,508;13,66
588,753;13,63
588,997;13,56
589,242;13,54
589,486;13,48
589,731;13,44
589,975;13,39
590,22;13,36
590,464;13,32
590,708;13,27
590,953;13,22
591,197;13,18
591,441;13,15
591,685;13,13
591,93;13,07
592,174;13,04
592,418;13
592,662;12,97
592,907;12,92
593,151;12,89
593,395;12,86
593,639;12,83
593,883;12,78
594,127;12,74
594,371;12,69
594,615;12,66
594,859;12,62
595,103;12,59
595,347;12,54
595,591;12,51
595,835;12,46
596,079;12,43
596,323;12,4
596,567;12,37
596,811;12,33
597,055;12,31
597,299;12,28
597,542;12,26
597,786;12,24
598,03;12,23
598,274;12,2
598,518;12,16
598,761;12,13
599,005;12,11
599,249;12,09
599,492;12,06
599,736;12,02
599,98;12,01
600,223;11,98
600,467;11,95
600,711;11,9
600,954;11,88
601,198;11,85
601,441;11,83
601,685;11,79
601,928;11,76
602,172;11,72
602,415;11,68
602,659;11,64
602,902;11,6
603,145;11,54
603,389;11,52
603,632;11,48
603,876;11,47
604,119;11,42
604,362;11,38
604,606;11,35
604,849;11,35
605,092;11,29
605,335;11,27
605,579;11,24
605,822;11,23
606,065;11,21
606,308;11,18
606,551;11,14
606,794;11,12
607,037;11,09
607,281;11,07
607,524;11,05
607,767;11,02
608,01;10,98
608,253;10,95
608,496;10,92
608,739;10,91
608,982;10,87
609,225;10,86
609,468;10,82
609,711;10,78
609,953;10,73
610,196;10,72
610,439;10,68
610,682;10,68
610,925;10,64
611,168;10,62
611,41;10,57
611,653;10,55
611,896;10,51
612,139;10,48
612,381;10,45
612,624;10,42
612,867;10,39
613,109;10,36
613,352;10,34
613,595;10,33
613,837;10,3
614,08;10,28
614,322;10,25
614,565;10,25
614,807;10,23
615,05;10,22
615,292;10,2
615,535;10,19
615,777;10,15
616,02;10,12
616,262;10,1
616,505;10,09
616,747;10,08
616,989;10,07
617,232;10,06
617,474;10,06
617,716;10,05
617,959;10,05
618,201;10,04
618,443;10,04
618,685;10,02
618,927;10,01
619,17;10
619,412;9,99
619,654;9,97
619,896;9,99
620,138;9,99
620,38;9,98
620,622;9,96
620,864;9,98
621,107;9,98
621,349;9,98
621,591;9,98
621,833;9,98
622,075;9,96
622,316;9,96
622,558;9,93
622,8;9,92
623,042;9,89
623,284;9,9
623,526;9,87
623,768;9,86
624,01;9,86
624,251;9,85
624,493;9,86
624,735;9,83
624,977;9,81
625,218;9,78
625,46;9,77
625,702;9,76
625,943;9,73
626,185;9,72
626,427;9,7
626,668;9,68
626,91;9,65
627,152;9,63
627,393;9,61
627,635;9,6
627,876;9,57
628,118;9,58
628,359;9,54
628,601;9,54
628,842;9,52
629,084;9,48
629,325;9,44
629,566;9,43
629,808;9,44
630,049;9,43
630,29;9,42
630,532;9,39
630,773;9,36
631,014;9,34
631,256;9,32
631,497;9,32
631,738;9,3
631,979;9,3
632,22;9,29
632,462;9,27
632,703;9,24
632,944;9,24
633,185;9,22
633,426;9,23
633,667;9,19
633,908;9,18
634,149;9,16
634,39;9,16
634,631;9,12
634,872;9,1
635,113;9,09
635,354;9,07
635,595;9,06
635,836;9,06
636,077;9,03
636,318;9,01
636,559;8,97
636,8;8,96
637,04;8,95
637,281;8,93
637,522;8,93
637,763;8,92
638,003;8,9
638,244;8,87
638,485;8,84
638,726;8,84
638,966;8,82
639,207;8,84
639,448;8,81
639,688;8,8
639,929;8,8
640,169;8,77
640,41;8,74
640,65;8,74
640,891;8,72
641,131;8,72
641,372;8,71
641,612;8,71
641,853;8,69
642,093;8,66
642,334;8,66
642,574;8,64
642,814;8,65
643,055;8,62
643,295;8,62
643,535;8,61
643,776;8,6
644,016;8,58
644,256;8,55
644,496;8,53
644,737;8,52
644,977;8,49
645,217;8,5
645,457;8,51
645,697;8,48
645,938;8,48
646,178;8,47
646,418;8,48
646,658;8,45
646,898;8,44
647,138;8,44
647,378;8,43
647,618;8,42
647,858;8,41
648,098;8,41
648,338;8,4
648,578;8,4
648,818;8,39
649,057;8,37
649,297;8,37
649,537;8,39
649,777;8,38
650,017;8,37
650,257;8,35
650,496;8,34
650,736;8,35
650,976;8,33
651,216;8,31
661,983;7,99
662,222;7,97
662,461;7,98
662,7;7,96
662,939;7,94
663,177;7,94
663,416;7,93
663,655;7,92
663,894;7,9
664,132;7,91
664,371;7,9
664,61;7,89
664,848;7,9
665,087;7,89
665,326;7,89
665,564;7,9
665,803;7,88
666,041;7,89
666,28;7,91
666,518;7,91
666,757;7,9
666,995;7,9
667,234;7,89
667,472;7,89
667,711;7,9
667,949;7,9
668,187;7,89
668,426;7,88
668,664;7,88
668,902;7,89
669,141;7,89
669,379;7,89
669,617;7,88
669,856;7,88
670,094;7,89
670,332;7,88
670,57;7,89
670,808;7,88
671,046;7,89
671,285;7,89
671,523;7,89
671,761;7,89
671,999;7,86
672,237;7,89
672,475;7,91
672,713;7,9
672,951;7,92
673,189;7,92
673,427;7,92
673,665;7,94
673,903;7,92
674,141;7,93
674,379;7,94
674,617;7,97
674,854;7,98
675,092;8
675,33;8,01
675,568;8,02
675,806;8,04
676,043;8,03
676,281;8,03
676,519;8,04
676,756;8,05
676,994;8,09
677,232;8,11
677,469;8,08
677,707;8,11
677,945;8,12
678,182;8,15
678,42;8,16
678,657;8,16
678,895;8,16
679,132;8,17
679,37;8,17
679,607;8,16
679,845;8,17
680,082;8,17
680,32;8,18
680,557;8,19
680,794;8,19
681,032;8,21
681,269;8,21
681,507;8,23
681,744;8,25
681,981;8,29
682,218;8,27
682,456;8,29
682,693;8,29
682,93;8,33
683,167;8,32
683,404;8,32
683,642;8,35
683,879;8,35
684,116;8,38
684,353;8,4
684,59;8,42
684,827;8,45
685,064;8,46
685,301;8,47
685,538;8,49
685,775;8,53
686,012;8,55
686,249;8,56
686,486;8,57
686,723;8,58
686,96;8,6
687,197;8,63
687,433;8,63
687,67;8,65
687,907;8,63
688,144;8,65
688,381;8,67
688,617;8,68
688,854;8,73
689,091;8,72
689,327;8,75
689,564;8,77
689,801;8,77
690,037;8,79
690,274;8,8
690,511;8,82
690,747;8,83
690,984;8,85
691,22;8,87
691,457;8,9
691,693;8,91
691,93;8,92
692,166;8,94
692,403;9
692,639;9,02
692,876;9,04
693,112;9,07
693,348;9,09
693,585;9,11
693,821;9,1
694,057;9,12
694,294;9,14
694,53;9,16
694,766;9,17
695,002;9,18
695,239;9,23
695,475;9,25
695,711;9,23
695,947;9,25
696,183;9,26
696,419;9,28
696,656;9,29
696,892;9,3
697,128;9,3
697,364;9,3
697,6;9,31
697,836;9,34
698,072;9,36
698,308;9,38
698,544;9,39
698,78;9,4
699,016;9,4
699,251;9,41
699,487;9,41
699,723;9,44
699,959;9,47
700,195;9,45
700,431;9,45
700,666;9,47
700,902;9,49
701,138;9,51
701,374;9,5
701,609;9,53
701,845;9,54
702,081;9,56
702,316;9,58
702,552;9,58
702,788;9,58
703,023;9,58
703,259;9,58
703,494;9,59
703,73;9,62
703,965;9,65
704,201;9,64
704,436;9,64
704,672;9,64
704,907;9,67
705,143;9,69
705,378;9,7
705,613;9,71
705,849;9,71
706,084;9,72
706,319;9,72
706,555;9,74
706,79;9,75
707,025;9,75
707,26;9,78
707,496;9,78
707,731;9,78
707,966;9,8
708,201;9,82
708,436;9,85
708,671;9,87
708,907;9,84
709,142;9,87
709,377;9,89
709,612;9,91
709,847;9,89
710,082;9,9
710,317;9,9
710,552;9,92
710,787;9,92
711,022;9,92
711,257;9,92
711,492;9,92
711,726;9,93
711,961;9,97
712,196;9,96
712,431;9,97
712,666;9,99
712,901;9,97
713,135;9,97
713,37;9,98
713,605;9,97
713,839;10
714,074;10,01
714,309;10
714,543;9,99
714,778;10
715,013;10
715,247;10,03
715,482;10,01
715,716;10,02
715,951;10,05
716,185;10,05
716,42;10,05
716,654;10,03
716,889;9,98
717,123;9,98
717,358;9,98
717,592;9,97
717,827;9,98
718,061;9,99
718,295;9,95
718,53;9,95
718,764;9,97
718,998;9,96
719,232;9,96
719,467;9,98
719,701;9,98
719,935;9,99
720,169;9,98
720,403;10
720,638;10,02
720,872;9,98
721,106;9,98
721,34;9,99
721,574;10
721,808;10,02
722,042;10,02
722,276;10,02
722,51;10,04
722,744;10,05
722,978;10,01
723,212;10,04
723,446;10,06
723,68;10,06
723,914;10,08
724,147;10,09
724,381;10,11
724,615;10,11
724,849;10,09
725,083;10,11
725,316;10,1
725,55;10,1
725,784;10,14
726,018;10,15
726,251;10,15
726,485;10,15
726,719;10,16
726,952;10,17
727,186;10,22
727,419;10,23
727,653;10,23
727,887;10,29
728,12;10,28
728,354;10,28
728,587;10,27
728,821;10,26
729,054;10,25
729,287;10,24
729,521;10,26
729,754;10,25
729,988;10,23
730,221;10,24
730,454;10,24
730,688;10,24
730,921;10,25
731,154;10,23
731,387;10,25
731,621;10,27
731,854;10,26
732,087;10,24
732,32;10,27
732,553;10,25
732,787;10,26
733,02;10,27
733,253;10,27
733,486;10,26
733,719;10,25
733,952;10,25
734,185;10,24
734,418;10,22
734,651;10,22
734,884;10,26
735,117;10,24
735,35;10,23
735,583;10,23
735,816;10,25
736,049;10,26
736,281;10,24
736,514;10,22
736,747;10,24
736,98;10,25
737,213;10,22
737,445;10,22
737,678;10,18
737,911;10,15
738,144;10,13
738,376;10,15
738,609;10,18
738,842;10,17
739,074;10,19
739,307;10,23
739,539;10,21
739,772;10,19
740,004;10,2
740,237;10,2
740,469;10,18
740,702;10,16
740,934;10,14
741,167;10,13
741,399;10,13
741,632;10,11
741,864;10,09
742,096;10,09
742,329;10,09
742,561;10,09
742,793;10,13
743,026;10,13
743,258;10,12
743,49;10,1
743,723;10,09
743,955;10,03
744,187;10
744,419;10,03
744,651;10,05
744,883;10,03
745,115;10,01
745,348;10,04
745,58;10,03
745,812;10,02
746,044;10,03
746,276;10,01
746,508;10
746,74;9,98
746,972;9,99
747,204;9,96
747,436;9,94
747,667;9,93
747,899;9,93
748,131;9,92
748,363;9,89
748,595;9,9
748,827;9,93
749,058;9,93
749,29;9,88
749,522;9,83
749,754;9,83
749,985;9,83
750,217;9,77
750,449;9,76
750,68;9,78
750,912;9,8
751,144;9,82
751,375;9,81
751,607;9,81
751,838;9,8
752,07;9,83
752,301;9,84
752,533;9,84
752,764;9,83
752,996;9,84
753,227;9,86
753,459;9,85
753,69;9,86
753,921;9,84
754,153;9,85
754,384;9,88
754,615;9,85
754,847;9,89
755,078;9,95
755,309;9,97
755,54;9,97
755,772;9,95
756,003;9,92
756,234;9,91
756,465;9,91
756,696;9,9
756,927;9,89
757,159;9,89
757,39;9,88
757,621;9,87
757,852;9,85
758,083;9,85
758,314;9,88
758,545;9,87
758,776;9,88
759,007;9,87
759,238;9,85
759,469;9,9
759,699;9,86
759,93;9,85
760,161;9,8
760,392;9,79
760,623;9,79
760,854;9,81
761,084;9,8
761,315;9,82
761,546;9,81
761,776;9,81
762,007;9,84
762,238;9,83
762,468;9,84
762,699;9,87
762,93;9,83
763,16;9,81
763,391;9,79
763,621;9,79
763,852;9,82
764,083;9,83
764,313;9,79
764,543;9,8
764,774;9,84
765,004;9,85
765,235;9,85
765,465;9,88
765,696;9,88
765,926;9,91
766,156;9,88
766,387;9,87
766,617;9,9
766,847;9,88
767,077;9,9
767,308;9,92
767,538;9,93
767,768;9,93
767,998;9,94
768,228;9,96
768,459;9,95
768,689;9,95
768,919;9,96
769,149;9,99
769,379;9,96
769,609;9,95
769,839;9,94
770,069;9,94
770,299;9,9
770,529;9,88
770,759;9,87
770,989;9,85
771,219;9,84
771,449;9,8
771,678;9,79
771,908;9,76
772,138;9,76
772,368;9,75
772,598;9,74
772,827;9,73
773,057;9,73
773,287;9,74
773,517;9,71
773,746;9,7
773,976;9,69
774,206;9,69
774,435;9,65
774,665;9,67
774,894;9,65
775,124;9,66
775,354;9,65
775,583;9,64
775,813;9,65
776,042;9,62
776,272;9,64
776,501;9,63
776,73;9,68
776,96;9,63
777,189;9,62
777,419;9,65
777,648;9,65
777,877;9,64
778,107;9,59
778,336;9,61
778,565;9,58
778,794;9,6
779,024;9,59
779,253;9,58
779,482;9,6
779,711;9,62
779,94;9,64
780,17;9,66
780,399;9,65
780,628;9,67
780,857;9,7
781,086;9,68
781,315;9,7
781,544;9,69
781,773;9,73
782,002;9,71
782,231;9,69
782,46;9,69
782,689;9,68
782,918;9,66
783,147;9,66
783,375;9,68
783,604;9,67
783,833;9,67
784,062;9,67
784,291;9,66
784,519;9,66
784,748;9,62
784,977;9,62
785,206;9,62
785,434;9,6
785,663;9,62
785,892;9,62
786,12;9,6
786,349;9,6
786,577;9,58
786,806;9,6
787,034;9,61
787,263;9,59
787,492;9,62
787,72;9,69
787,948;9,69
788,177;9,67
788,405;9,66
788,634;9,66
788,862;9,71
789,09;9,66
789,319;9,65
789,547;9,63
789,775;9,63
790,004;9,65
790,232;9,65
790,46;9,65
790,688;9,64
790,917;9,63
791,145;9,62
791,373;9,59
791,601;9,62
791,829;9,63
792,057;9,67
792,286;9,67
792,514;9,6
792,742;9,6
792,97;9,6
793,198;9,62
793,426;9,61
793,654;9,59
793,882;9,61
794,109;9,61
794,337;9,64
794,565;9,65
794,793;9,66
795,021;9,67
795,249;9,65
795,477;9,65
795,704;9,65
795,932;9,62
796,16;9,61
796,388;9,6
796,615;9,57
796,843;9,52
797,071;9,5
797,298;9,54
797,526;9,54
797,754;9,56
797,981;9,52
798,209;9,49
798,436;9,48
798,664;9,48
798,891;9,45
799,119;9,38
799,346;9,34
799,574;9,33
799,801;9,33
800,029;9,33
800,256;9,34
800,483;9,36
800,711;9,37
800,938;9,37
801,165;9,37
801,393;9,4
801,62;9,44
801,847;9,43
802,074;9,38
802,302;9,39
802,529;9,4
802,756;9,44
802,983;9,45
803,21;9,45
803,437;9,43
803,665;9,45
803,892;9,51
804,119;9,48
804,346;9,49
804,573;9,47
804,8;9,45
805,027;9,49
805,254;9,48
805,481;9,48
805,708;9,5
805,934;9,47
806,161;9,46
806,388;9,46
806,615;9,47
806,842;9,52
807,069;9,53
807,295;9,53
807,522;9,56
807,749;9,56
807,976;9,54
808,202;9,56
808,429;9,59
808,656;9,57
808,882;9,61
809,109;9,56
809,335;9,58
809,562;9,54
809,789;9,49
810,015;9,47
810,242;9,49
810,468;9,46
810,695;9,44
810,921;9,46
811,147;9,43
811,374;9,42
811,6;9,45
811,827;9,46
812,053;9,39
812,279;9,38
812,506;9,37
812,732;9,4
812,958;9,4
813,185;9,38
813,411;9,38
813,637;9,38
813,863;9,43
814,089;9,42
814,315;9,5
814,542;9,52
814,768;9,52
814,994;9,48
815,22;9,53
815,446;9,54
815,672;9,48
815,898;9,52
816,124;9,51
816,35;9,44
816,576;9,41
816,802;9,48
817,028;9,4
817,254;9,43
817,48;9,38
817,705;9,41
817,931;9,38
818,157;9,38
818,383;9,33
818,609;9,31
818,834;9,3
819,06;9,28
819,286;9,29
819,512;9,34
819,737;9,34
819,963;9,29
820,189;9,29
820,414;9,37
820,64;9,36
820,865;9,39
821,091;9,42
821,316;9,4
821,542;9,35
821,767;9,39
821,993;9,38
822,218;9,41
822,444;9,37
822,669;9,35
822,895;9,38
823,12;9,45
823,345;9,45
823,571;9,42
823,796;9,42
824,021;9,39
824,247;9,38
824,472;9,39
824,697;9,39
824,922;9,41
825,147;9,41
825,373;9,42
825,598;9,47
825,823;9,5
826,048;9,53
826,273;9,56
826,498;9,64
826,723;9,64
826,948;9,63
827,173;9,63
827,398;9,71
827,623;9,66
827,848;9,68
828,073;9,67
828,298;9,69
828,523;9,68
828,748;9,72
828,973;9,68
829,197;9,67
829,422;9,7
829,647;9,68
829,872;9,61
830,097;9,62
830,321;9,56
830,546;9,53
830,771;9,54
830,995;9,58
831,22;9,52
831,445;9,5
831,669;9,53
831,894;9,56
832,118;9,54
832,343;9,54
832,567;9,53
832,792;9,54
833,016;9,53
833,241;9,53
833,465;9,51
833,69;9,46
833,914;9,5
834,139;9,49
834,363;9,5
834,587;9,5
834,812;9,48
835,036;9,46
835,26;9,47
835,485;9,46
835,709;9,46
835,933;9,47
836,157;9,48
836,381;9,5
836,606;9,47
836,83;9,5
837,054;9,52
837,278;9,49
837,502;9,51
837,726;9,51
837,95;9,49
838,174;9,47
838,398;9,57
838,622;9,53
838,846;9,5
839,07;9,46
839,294;9,5
839,518;9,55
839,742;9,55
839,966;9,58
840,189;9,58
840,413;9,51
840,637;9,49
840,861;9,49
841,085;9,41
841,308;9,41
841,532;9,38
841,756;9,38
841,979;9,43
842,203;9,46
842,427;9,51
842,65;9,57
842,874;9,58
843,098;9,53
843,321;9,6
843,545;9,64
843,768;9,66
843,992;9,68
844,215;9,65
844,439;9,73
844,662;9,66
844,886;9,64
845,109;9,69
845,332;9,71
845,556;9,72
845,779;9,8
846,002;9,81
846,226;9,84
846,449;9,78
846,672;9,78
846,895;9,76
847,119;9,74
847,342;9,75
847,565;9,79
847,788;9,81
848,011;9,8
848,234;9,85
848,457;9,86
848,681;9,86
848,904;9,81
849,127;9,77
849,35;9,84
849,573;9,89
849,796;9,88
850,019;9,87
850,241;9,85
850,464;9,83
850,687;9,88
850,91;9,91
851,133;9,94
851,356;9,94
851,579;9,94
851,801;9,9
852,024;9,9
852,247;9,84
852,47;9,83
852,692;9,79
852,915;9,78
853,138;9,85
853,36;9,84
853,583;9,88
853,806;9,91
854,028;9,83
854,251;9,82
854,473;9,81
854,696;9,84
854,918;9,89
855,141;9,93
855,363;9,98
855,586;9,95
855,808;9,94
856,031;9,92
856,253;9,89
856,475;9,95
856,698;9,86
856,92;9,9
857,142;9,93
857,365;9,96
857,587;9,87
857,809;9,85
858,031;9,83
858,253;9,86
858,476;9,87
858,698;9,85
858,92;9,79
859,142;9,83
859,364;9,82
859,586;9,82
859,808;9,82
860,03;9,69
860,252;9,69
860,474;9,77
860,696;9,85
860,918;9,9
861,14;9,94
861,362;10,06
861,584;10,06
861,806;10,03
862,028;10,01
862,25;10,09
862,471;10,04
862,693;10,05
862,915;10
863,137;9,98
863,358;10,06
863,58;10,12
863,802;10,13
864,024;10,12
864,245;10,07
864,467;10,05
864,688;10,15
864,91;10,19
865,132;10,1
865,353;10,01
865,575;9,95
865,796;9,91
866,018;9,89
866,239;9,94
866,461;9,98
866,682;10,07
866,903;10,04
867,125;10,08
867,346;10,11
867,567;10,18
867,789;10,2
868,01;10,24
868,231;10,19
868,453;10,14
868,674;10,16
868,895;10,23
869,116;10,26
869,337;10,23
869,559;10,18
869,78;10,27
870,001;10,35
870,222;10,39
870,443;10,38
870,664;10,44
870,885;10,42
871,106;10,4
871,327;10,39
871,548;10,41
871,769;10,38
871,99;10,5
872,211;10,45
872,432;10,5
872,653;10,51
872,874;10,61
873,094;10,63
873,315;10,6
873,536;10,57
873,757;10,5
873,978;10,52
874,198;10,5
874,419;10,49
874,64;10,45
874,86;10,48
875,081;10,57
875,302;10,55
875,522;10,63
875,743;10,62
875,963;10,66
876,184;10,68
876,404;10,62
876,625;10,51
876,845;10,64
877,066;10,62
877,286;10,63
877,507;10,67
877,727;10,64
877,947;10,67
878,168;10,67
878,388;10,71
878,609;10,77
878,829;10,82
879,049;10,79
879,269;10,83
879,49;10,82
879,71;10,83
879,93;10,89
880,15;10,81
880,37;10,88
880,59;10,82
880,811;10,84
881,031;10,95
881,251;10,97
881,471;10,85
881,691;10,83
881,911;10,85
882,131;10,75
882,351;10,81
882,571;10,79
882,791;10,81
883,011;10,88
883,23;10,85
883,45;10,87
883,67;10,92
883,89;10,86
884,11;10,87
884,33;10,79
884,549;10,7
884,769;10,75
884,989;10,7
885,209;10,76
885,428;10,8
885,648;10,77
885,868;10,84
886,087;10,89
886,307;10,83
886,526;10,87
886,746;10,98
886,965;11,01
887,185;11,13
887,404;11,12
887,624;11,2
887,843;11,21
888,063;11,2
888,282;11,27
888,502;11,33
888,721;11,41
888,94;11,45
889,16;11,5
889,379;11,49
889,598;11,6
889,818;11,63
890,037;11,57
890,256;11,56
890,475;11,49
890,694;11,46
890,914;11,53
891,133;11,44
891,352;11,48
891,571;11,44
891,79;11,42
892,009;11,41
892,228;11,4
892,447;11,44
892,666;11,38
892,885;11,38
893,104;11,35
893,323;11,35
893,542;11,4
893,761;11,39
893,98;11,39
894,199;11,32
894,417;11,24
894,636;11,32
894,855;11,35
895,074;11,4
895,293;11,46
895,511;11,52
895,73;11,65
895,949;11,63
896,167;11,61
896,386;11,69
896,605;11,82
896,823;11,79
897,042;11,77
897,26;11,81
897,479;11,77
897,697;11,87
897,916;11,85
898,134;11,84
898,353;11,83
898,571;11,82
898,79;11,93
899,008;11,99
899,227;11,88
899,445;11,85
899,663;11,79
899,882;11,84
900,1;11,76
900,318;11,67
900,536;11,63
900,755;11,75
900,973;11,73
901,191;11,59
901,409;11,61
901,627;11,61
901,846;11,78
902,064;11,73
902,282;11,72
902,5;11,62
902,718;11,56
902,936;11,53
903,154;11,55
903,372;11,44
903,59;11,44
903,808;11,47
904,026;11,63
904,244;11,71
904,462;11,7
904,679;11,83
904,897;11,92
905,115;11,91
905,333;11,83
905,551;11,65
905,768;11,8
905,986;11,85
906,204;11,89
906,422;11,78
906,639;11,86
906,857;11,93
907,074;12,02
907,292;12,11
907,51;12,22
907,727;12,28
907,945;12,31
908,162;12,33
908,38;12,45
908,597;12,37
908,815;12,38
909,032;12,38
909,25;12,33
909,467;12,28
909,684;12,4
909,902;12,49
910,119;12,68
910,337;12,64
910,554;12,53
910,771;12,49
910,988;12,56
911,206;12,55
911,423;12,53
911,64;12,69
911,857;12,64
912,074;12,61
912,291;12,49
912,509;12,61
912,726;12,59
912,943;12,6
913,16;12,58
913,377;12,58
913,594;12,64
913,811;12,63
914,028;12,59
914,245;12,6
914,462;12,48
914,679;12,42
914,896;12,52
915,112;12,6
915,329;12,78
915,546;12,7
915,763;12,77
915,98;12,58
916,196;12,47
916,413;12,55
916,63;12,7
916,847;12,91
917,063;12,85
917,28;12,84
917,497;12,78
917,713;12,82
917,93;12,88
918,146;12,84
918,363;13,03
918,579;13,1
918,796;13,14
919,012;13,35
919,229;13,42
919,445;13,38
919,662;13,37
919,878;13,3
920,095;13,45
920,311;13,44
920,527;13,68
920,744;13,77
920,96;13,74
921,176;13,58
921,392;13,4
921,609;13,49
921,825;13,6
922,041;13,69
922,257;13,68
922,473;13,64
922,69;13,65
922,906;13,42
923,122;13,44
923,338;13,43
923,554;13,29
923,77;13,26
923,986;13,2
924,202;13,36
924,418;13,4
924,634;13,37
924,85;13,43
925,066;13,47
925,282;13,47
925,497;13,46
925,713;13,48
925,929;13,73
926,145;13,73
926,361;13,76
926,576;13,77
926,792;13,81
927,008;13,8
927,224;13,81
927,439;13,88
927,655;13,81
927,871;13,71
928,086;13,75
928,302;13,82
928,517;13,82
928,733;13,67
928,948;13,67
929,164;13,68
929,379;13,61
929,595;13,56
929,81;13,53
930,026;13,49
930,241;13,55
930,456;13,34
930,672;13,37
930,887;13,37
931,102;13,32
931,318;13,54
931,533;13,58
931,748;13,58
931,964;13,54
932,179;13,62
932,394;13,66
932,609;13,68
932,824;13,65
933,039;13,72
933,255;13,8
933,47;13,78
933,685;13,81
933,9;13,97
934,115;14,02
934,33;14,02
934,545;14,28
934,76;14,37
934,975;14,58
935,19;14,75
935,404;14,74
935,619;15,02
935,834;14,93
936,049;14,92
936,264;15,14
936,479;15,35
936,693;15,38
936,908;15,64
937,123;15,82
937,338;15,93
937,552;15,99
937,767;16,27
937,982;16,43
938,196;16,48
938,411;16,43
938,625;16,63
938,84;16,86
939,055;16,51
939,269;16,57
939,484;16,65
939,698;16,47
939,912;16,85
940,127;16,73
940,341;16,27
940,556;16,31
940,77;16,46
940,984;16,36
941,199;16,67
941,413;16,32
941,627;16,54
941,842;16,57
942,056;16,87
942,27;16,57
942,484;16,85
942,699;17,11
942,913;17,15
943,127;17,07
943,341;16,82
943,555;17,03
943,769;17,57
943,983;17,69
944,197;17,6
944,411;16,95
944,625;17,05
944,839;17,93
945,053;18,38
945,267;18,33
945,481;18,54
945,695;18,93
945,909;19,52
946,123;19,62
946,336;20,29
946,55;20,41
946,764;20,6
946,978;20,5
947,192;20,73
947,405;20,73
947,619;20,94
947,833;21,48
948,046;21,82
948,26;21,09
948,474;21,15
948,687;21,38
948,901;21,78
949,114;21,58
949,328;21,59
949,541;21,23
949,755;21,12
949,968;21,25
950,182;21,11
950,395;20,71
950,609;20,52
950,822;20,34
951,035;20,11
951,249;19,8
951,462;19,89
951,675;19,6
951,889;19,28
952,102;19,36
952,315;19,45
952,528;19,42
952,741;19,7
952,955;19,45
953,168;19,42
953,381;19,35
953,594;19,04
953,807;18,98
954,02;19,23
954,233;19,03
954,446;19,13
954,659;19,33
954,872;19,11
955,085;19,26
955,298;19,19
955,511;18,83
955,724;18,81
955,937;18,59
956,15;18,36
956,362;18,57
956,575;18,53
956,788;18,34
957,001;18,29
957,214;18,2
957,426;18,47
957,639;18,41
957,852;18,17
958,064;18,55
958,277;17,98
958,49;18,2
958,702;18,43
958,915;17,99
959,127;17,33
959,34;17,58
959,552;17,25
959,765;17,09
959,977;17,52
960,19;17,76
960,402;17,6
960,615;17,87
960,827;17,68
961,039;17,33
961,252;16,96
961,464;16,64
961,676;16,83
961,889;16,75
962,101;16,54
962,313;16,88
962,525;16,76
962,738;17,12
962,95;17,21
963,162;17,06
963,374;17,18
963,586;17,36
963,798;17,44
964,01;17,5
964,222;17,43
964,434;17,41
964,646;17,19
964,858;17,13
965,07;16,95
965,282;17,23
965,494;17,1
965,706;17,63
965,918;18,1
966,13;17,95
966,342;18,15
966,553;18,06
966,765;18
966,977;18,21
967,189;18,56
967,401;18,3
967,612;18,02
967,824;18,36
968,036;18,44
968,247;18,28
968,459;18,47
968,67;18,47
968,882;18,27
969,094;18,44
969,305;18,99
969,517;19,07
969,728;19,34
969,94;19,79
970,151;19,34
970,362;18,89
970,574;18,83
970,785;18,87
970,997;19,24
971,208;19,17
971,419;18,64
971,631;18,27
971,842;18,41
972,053;18,95
972,264;18,94
972,476;19,05
972,687;19,21
972,898;19,03
973,109;19,23
973,32;19,43
973,531;19,09
973,742;19,08
973,954;18,95
974,165;18,69
974,376;18,83
974,587;19,32
974,798;19,84
975,009;20,02
975,22;19,82
975,43;19,76
975,641;19,73
975,852;20,08
976,063;20,46
976,274;20,38
976,485;20,37
976,695;20,36
976,906;20,34
977,117;20,53
977,328;20,69
977,538;20,72
977,749;20,67
977,96;21,34
978,17;21,08
978,381;21,48
978,592;21,63
978,802;21,65
979,013;21,23
979,223;21,02
979,434;21,34
979,644;21,61
979,855;21,61
980,065;21,65
980,276;21,46
980,486;21,01
980,696;20,77
980,907;20,37
981,117;19,94
981,327;19,82
981,538;19,4
981,748;19,15
981,958;19,59
982,169;19,69
982,379;19,43
982,589;19,52
982,799;19,09
983,009;18,53
983,219;18,4
983,43;18,75
983,64;18,81
983,85;18,85
984,06;18,68
984,27;18,11
984,48;18,76
984,69;19,13
984,9;19,18
985,11;19,76
985,32;20,04
985,529;20,47
985,739;20,44
985,949;20,98
986,159;21,26
986,369;20,91
986,579;21,14
986,788;21,73
986,998;21,79
987,208;22,64
987,417;22,94
987,627;22,51
987,837;22,68
988,046;22,29
988,256;21,95
988,466;22,19
988,675;22,64
988,885;22,24
989,094;21,84
989,304;21,92
989,513;22,08
989,723;21,95
989,932;21,93
990,142;22,14
990,351;21,66
990,56;21,37
990,77;21,34
990,979;20,94
991,188;20,95
991,398;20,91
991,607;20,4
991,816;20,95
992,025;21,01
992,235;20,99
992,444;22,34
992,653;22,85
992,862;23,02
993,071;23,49
993,28;23,68
993,489;24,64
993,698;24,94
993,908;24,04
994,117;24,05
994,326;24,54
994,534;24,3
994,743;24,69
994,952;24,63
995,161;24,49
995,37;25,22
995,579;25,08
995,788;25,05
995,997;24,87
996,205;24,74
996,414;25,23
996,623;25,29
996,832;24,5
997,04;24,7
997,249;24,14
997,458;24,01
997,666;24,38
997,875;23,65
998,084;23,26
998,292;23,48
998,501;23,94
998,709;23,59
998,918;23,84
999,126;24,18
999,335;25,12
999,543;25,68
999,752;25
999,96;24,76
1000,169;24,35
1000,377;24,43
1000,585;24,09
1000,794;24,37
1001,002;24,12
1001,21;24,35
1001,418;24
1001,627;24,52
1001,835;24,41
1002,043;24,04
1002,251;24,18
1002,459;25,11
1002,668;25,44
1002,876;25,81
1003,084;26,01
1003,292;25,97
1003,5;25,42
1003,708;25,73
1003,916;24,65
1004,124;25,02
1004,332;24,84
1004,54;25,56
1004,748;25,57
1004,956;25,66
1005,163;24,93
1005,371;25,29
1005,579;25,17
1005,787;25,02
1005,995;24,89
1006,202;25,11
1006,41;25,26
1006,618;25,43
1006,826;25,28
1007,033;25,15
1007,241;24,51
1007,449;24,59
1007,656;24,5
1007,864;25,05
1008,071;24,33
1008,279;25,61
1008,486;26,07
1008,694;25,45
1008,901;25,5
1009,109;25,76
1009,316;26,25
1009,524;27,89
1009,731;27,48
1009,938;28,24
1010,146;27,76
1010,353;27,77
1010,56;27,55
1010,768;27,59
1010,975;28,12
1011,182;27,62
1011,389;27,27
1011,597;27,88
1011,804;27,89
1012,011;28,16
1012,218;27,53
1012,425;27,93
1012,632;28,01
1012,839;27,42
1013,046;27,71
1013,253;27,46
1013,46;27,65
1013,667;27,54
1013,874;26,4
1014,081;26,77
1014,288;26,53
1014,495;26,79
1014,702;26,12
1014,909;26,1
1015,116;25,06
1015,323;25,46
1015,529;26,8
1015,736;27,59
1015,943;26,87
1016,15;26,09
1016,356;26,33
1016,563;26,74
1016,77;26,68
1016,976;27,22
1017,183;27,13
1017,389;27,93
1017,596;28,49
1017,803;28
1018,009;28,22
1018,216;28,58
1018,422;27,76
1018,629;27,39
1018,835;28,5
1019,041;28,51
1019,248;29,65
1019,454;30,29
1019,661;30,01
1019,867;28,2
1020,073;28,7
1020,279;29,27
1020,486;29,72
1020,692;30,71
1020,898;29,05
1021,104;27,75
1021,311;26,03
1021,517;25,5
1021,723;24,51
1021,929;24,65
1022,135;25,95
1022,341;25,19
1022,547;24,7
1022,753;26,06
1022,959;26,07
1023,165;25,64
1023,371;27,52
1023,577;26,39
1023,783;26,63
1023,989;25,79
1024,195;27,62
1024,401;28,3
1024,607;28,23
1024,812;27,84
1025,018;28,22
1025,224;29,72
1025,43;30,35
1025,635;30,23
1025,841;31,92
1026,047;31,76
1026,252;31,1
1026,458;29,73
1026,664;30,34
1026,869;31,17
1027,075;32,23
1027,28;31,6
1027,486;31,7
1027,691;30,32
1027,897;32,21
1028,102;31,44
1028,308;30,49
1028,513;28,95
1028,719;27,48
1028,924;27,76
1029,129;27,14
1029,335;25,23
1029,54;25,26
1029,745;25,56
1029,95;26,39
1030,156;25,43
1030,361;25,85
1030,566;28,31
1030,771;28,3
1030,976;28,04
1031,182;28,7
1031,387;26,74
1031,592;26,16
1031,797;25,1
1032,002;24,77
1032,207;21,8
1032,412;21,84
1032,617;22,99
1032,822;23,56
1033,027;25,15
1033,232;24,33
1033,437;25,69
1033,642;26,63
1033,846;28,56
1034,051;27,43
1034,256;27,95
1034,461;29,8
1034,666;29,53
1034,87;27,28
1035,075;27,2
1035,28;28,24
1035,484;27,5
1035,689;27,51
1035,894;28,18
1036,098;27,38
1036,303;27,06
1036,507;27,06
1036,712;28,3
1036,917;30,01
1037,121;30,76
1037,325;28,69
1037,53;29,14
1037,734;29,73
1037,939;30,76
1038,143;30,52
1038,348;32,66
1038,552;32
1038,756;31,49
1038,961;32,39
1039,165;32,68
1039,369;34,54
1039,573;32,18
1039,778;29,1
1039,982;29,71
1040,186;30,18
1040,39;32,48
1040,594;35,79
1040,798;36,07
1041,002;36,86
1041,206;33,68
1041,41;34
1041,614;33,66
1041,818;34,28
1042,022;32,37
1042,226;32,3
1042,43;33,09
1042,634;32,55
1042,838;31,58
1043,042;31,29
1043,246;29,06
1043,45;27,77
1043,653;26,65
1043,857;28,67
1044,061;30,75
1044,265;29,18
1044,468;30,61
1044,672;29,27
1044,876;27,06
1045,079;26,14
1045,283;25,36
1045,487;27,34
1045,69;25,28
1045,894;26,25
1046,097;26,64
1046,301;27,39
1046,504;28,17
1046,708;25
1046,911;22,43
1047,115;23,34
1047,318;22,41
1047,522;29,1
1047,725;29,18
1047,928;30,68
1048,132;28,25
1048,335;29,27
1048,538;28,9
1048,741;26,75
1048,945;28,9
1049,148;29,96
1049,351;30,75
1049,554;32,05
1049,757;34,07
1049,96;34,52
1050,163;36,59
1050,367;37,17
1050,57;37,04
1050,773;35,29
1050,976;35,49
1051,179;35,73
1051,382;35,27
1051,585;36,18
1051,787;34,6
1051,99;36,28
1052,193;35,64
1052,396;36,86
1052,599;35,86
1052,802;38,69
1053,005;42,41
1053,207;40,67
1053,41;37,4
1053,613;37,03
1053,815;33,86
1054,018;29,44
1054,221;29,82
1054,423;28,23
1054,626;25,23
1054,829;26,68
1055,031;25,45
1055,234;26,62
1055,436;30,45
1055,639;31,74
1055,841;28,9
1056,044;26,51
1056,246;22,78
