Data from malachiteVSwhite_Reflection__1__49.txt Node;
"Date: Wed Sep 10 12:50:59 CEST 2025 User: sycur Spectrometer: SR400348 Trigger mode: 0 Integration Time (sec): 1,000000E-2 Scans to average: 10 Electric dark correction enabled: true Nonlinearity correction enabled: false Boxcar width: 10 XAxis mode: Wavelengths Number of Pixels in Spectrum: 3648 >>>>>Begin Spectral Data<<<<<";
186,01;-56,19
186,281;29,82
186,552;38,61
186,822;92,08
187,093;233,33
187,364;435,09
187,635;105,88
187,905;28,24
188,176;32,24
188,447;12,95
188,717;21,65
188,988;23,29
189,258;26,04
189,529;25,45
189,8;25,08
190,07;27,09
190,341;27,32
190,611;22,8
190,882;21,48
191,152;26,19
191,423;24,63
191,693;23,41
191,964;20,46
192,234;20,77
192,505;17,37
192,775;20,42
193,045;20,56
193,316;18,3
193,586;19,2
193,856;19,57
194,127;19,6
194,397;18,83
194,667;17,92
194,938;18,83
195,208;18,64
195,478;19,61
195,748;19,29
196,019;18,68
196,289;18,68
196,559;16,46
196,829;13,17
197,099;12,96
197,37;12,26
197,64;12,21
197,91;10,85
198,18;11,1
198,45;10,18
198,72;9,13
198,99;9,83
199,26;10
199,53;10,18
199,8;11,31
200,07;11,36
200,34;12,1
200,61;11,17
200,88;11,39
201,15;10,62
201,42;9,8
201,69;9,46
201,96;8,64
202,23;9,42
202,499;10,21
202,769;10,37
203,039;9,65
203,309;8,87
203,579;9,05
203,849;9,14
204,118;8,64
204,388;8,66
204,658;8,38
204,927;8,18
205,197;7,67
205,467;7,21
205,736;6,72
206,006;6,54
206,276;6,66
206,545;6,34
206,815;6,76
207,085;7,33
207,354;7,58
207,624;7,35
207,893;7,43
208,163;7,3
208,432;7,14
208,702;7,19
208,971;7,15
209,241;7,16
209,51;7,53
209,78;7,52
210,049;7,3
210,318;7,54
210,588;7,37
210,857;7,39
211,127;7,36
211,396;7,22
211,665;7,32
211,935;7,29
212,204;7,41
212,473;7,07
212,742;6,87
213,012;6,8
213,281;7,1
213,55;6,94
213,819;6,9
214,088;6,88
214,358;6,88
214,627;7
214,896;7,08
215,165;6,6
215,434;6,5
215,703;6,35
215,972;6,07
216,241;6,31
216,51;6,14
216,779;5,96
217,048;6,13
217,317;5,87
217,586;5,93
217,855;5,92
218,124;5,89
218,393;5,75
218,662;5,79
218,931;5,72
219,2;5,57
219,469;5,55
219,738;5,44
220,006;5,54
220,275;5,41
220,544;5,27
220,813;5,37
221,082;5,37
221,35;5,5
221,619;5,6
221,888;5,35
222,157;5,38
222,425;5,47
222,694;5,29
222,963;5,4
223,231;5,33
223,5;5,19
223,769;5,16
224,037;5,21
224,306;5,06
224,574;5,06
224,843;5,08
225,111;5
225,38;4,98
225,648;4,85
225,917;4,87
226,185;4,89
226,454;4,89
226,722;4,96
226,991;4,83
227,259;4,77
227,528;4,76
227,796;4,72
228,064;4,62
228,333;4,65
228,601;4,61
228,869;4,53
229,138;4,5
229,406;4,51
229,674;4,43
229,942;4,44
230,211;4,51
230,479;4,53
230,747;4,59
231,015;4,57
231,283;4,59
231,552;4,59
231,82;4,48
232,088;4,48
232,356;4,46
232,624;4,51
232,892;4,51
233,16;4,51
233,428;4,48
233,696;4,45
233,964;4,44
234,232;4,42
234,5;4,4
234,768;4,42
235,036;4,4
235,304;4,45
235,572;4,48
235,84;4,37
236,108;4,31
236,376;4,25
236,644;4,25
236,912;4,23
237,179;4,21
237,447;4,24
237,715;4,17
237,983;4,1
238,251;4,04
238,518;4
238,786;3,98
239,054;3,98
239,322;4,03
239,589;4,02
239,857;3,96
240,125;3,98
240,392;3,97
240,66;3,97
240,927;3,89
241,195;3,82
241,463;3,83
241,73;3,82
241,998;3,81
242,265;3,77
242,533;3,78
242,8;3,73
243,068;3,72
243,335;3,69
243,603;3,72
243,87;3,74
244,138;3,74
244,405;3,76
244,672;3,75
244,94;3,69
245,207;3,69
245,474;3,69
245,742;3,68
246,009;3,63
246,276;3,62
246,544;3,65
246,811;3,66
247,078;3,65
247,345;3,65
247,613;3,62
247,88;3,6
248,147;3,59
248,414;3,59
248,681;3,62
248,948;3,65
249,215;3,61
249,483;3,58
249,75;3,59
250,017;3,56
250,284;3,55
250,551;3,56
250,818;3,56
251,085;3,57
251,352;3,55
251,619;3,59
251,886;3,58
252,153;3,59
252,42;3,57
252,687;3,56
252,953;3,56
253,22;3,55
253,487;3,54
253,754;3,55
254,021;3,56
254,288;3,53
254,555;3,51
254,821;3,53
255,088;3,53
255,355;3,47
255,622;3,47
255,888;3,47
256,155;3,45
256,422;3,43
256,688;3,44
256,955;3,44
257,222;3,42
257,488;3,4
257,755;3,41
258,022;3,39
258,288;3,38
258,555;3,37
258,821;3,38
259,088;3,38
259,354;3,33
259,621;3,3
259,887;3,33
260,154;3,34
260,42;3,33
260,687;3,33
260,953;3,36
261,219;3,36
261,486;3,32
261,752;3,35
262,019;3,34
262,285;3,3
262,551;3,3
262,818;3,33
263,084;3,33
263,35;3,29
263,616;3,28
263,883;3,29
264,149;3,31
264,415;3,32
264,681;3,33
264,947;3,36
265,214;3,36
265,48;3,36
265,746;3,35
266,012;3,36
266,278;3,35
266,544;3,34
266,81;3,36
267,076;3,37
267,342;3,35
267,608;3,38
267,874;3,39
268,14;3,39
268,406;3,36
268,672;3,36
268,938;3,39
269,204;3,38
269,47;3,37
269,736;3,36
270,002;3,32
270,268;3,33
270,533;3,3
270,799;3,3
271,065;3,26
271,331;3,26
271,597;3,26
271,862;3,28
272,128;3,27
272,394;3,24
272,66;3,24
272,925;3,24
273,191;3,21
273,457;3,22
273,722;3,19
273,988;3,17
274,254;3,17
274,519;3,18
274,785;3,18
275,05;3,17
275,316;3,16
275,582;3,18
275,847;3,16
276,113;3,16
276,378;3,18
276,644;3,21
276,909;3,19
277,174;3,2
277,44;3,2
277,705;3,2
277,971;3,21
278,236;3,22
278,501;3,23
278,767;3,26
279,032;3,27
279,297;3,28
279,563;3,26
279,828;3,24
280,093;3,2
280,358;3,19
280,624;3,22
280,889;3,21
281,154;3,23
281,419;3,26
281,684;3,26
281,95;3,23
282,215;3,24
282,48;3,25
282,745;3,23
283,01;3,23
283,275;3,22
283,54;3,21
283,805;3,2
284,07;3,2
284,335;3,17
284,6;3,14
284,865;3,14
285,13;3,13
285,395;3,15
285,66;3,18
285,925;3,22
286,19;3,23
286,455;3,21
286,72;3,2
286,985;3,17
287,249;3,17
287,514;3,17
287,779;3,14
288,044;3,13
288,309;3,1
288,573;3,08
288,838;3,09
289,103;3,08
289,367;3,07
289,632;3,07
289,897;3,06
290,161;3,08
290,426;3,1
290,691;3,16
290,955;3,12
291,22;3,09
291,484;3,06
291,749;3,03
292,014;3,04
292,278;3,02
292,543;3,04
292,807;3,05
293,072;3,02
293,336;3,02
293,6;3,01
293,865;3,03
294,129;3,02
294,394;3,01
294,658;3,01
294,922;3
295,187;2,96
295,451;2,97
295,715;2,94
295,98;2,92
296,244;2,87
296,508;2,89
296,773;2,89
297,037;2,9
297,301;2,89
297,565;2,89
297,829;2,88
298,094;2,87
298,358;2,86
298,622;2,87
298,886;2,9
299,15;2,91
299,414;2,89
299,678;2,92
299,942;2,9
300,206;2,89
300,47;2,9
300,734;2,92
300,998;2,92
301,262;2,94
301,526;2,91
301,79;2,9
302,054;2,92
302,318;2,91
302,582;2,94
302,846;2,93
303,11;2,97
303,374;2,97
303,637;2,97
303,901;2,98
304,165;2,97
304,429;2,96
304,693;2,96
304,956;2,98
305,22;2,98
305,484;3
305,747;3,02
306,011;3,01
306,275;3
306,538;3,01
306,802;3,01
307,066;3,04
307,329;3,07
307,593;3,07
307,856;3,07
308,12;3,03
308,384;3,07
308,647;3,06
308,911;3,06
309,174;3,08
309,438;3,05
309,701;3,06
309,964;3,06
310,228;3,06
310,491;3,04
310,755;3,04
311,018;3,04
311,281;3,05
311,545;3,03
311,808;3,03
312,071;3,01
312,335;2,99
312,598;2,96
312,861;2,96
313,124;2,96
313,388;3,01
313,651;2,99
313,914;2,96
314,177;2,92
314,44;2,89
314,704;2,87
314,967;2,88
315,23;2,89
315,493;2,9
315,756;2,87
316,019;2,89
316,282;2,92
316,545;2,91
316,808;2,92
317,071;2,95
317,334;2,99
317,597;3,01
317,86;3,03
318,123;3,07
318,386;3,03
318,649;3,03
318,912;3,01
319,175;3,03
319,437;3,03
319,7;3,06
319,963;3,07
320,226;3,06
320,489;3,06
320,751;3,06
321,014;3,02
321,277;3,03
321,54;3,01
321,802;2,96
322,065;2,94
322,328;2,91
322,59;2,88
322,853;2,88
323,116;2,88
323,378;2,85
323,641;2,81
323,903;2,85
324,166;2,84
324,428;2,84
324,691;2,84
324,953;2,83
325,216;2,84
325,478;2,84
325,741;2,84
326,003;2,85
326,266;2,84
326,528;2,83
326,791;2,86
327,053;2,89
327,315;2,87
327,578;2,92
327,84;2,94
328,102;2,92
328,365;2,91
328,627;2,88
328,889;2,89
329,151;2,91
329,414;2,91
329,676;2,9
329,938;2,92
330,2;2,88
330,462;2,88
330,725;2,87
330,987;2,89
331,249;2,9
331,511;2,86
331,773;2,87
332,035;2,91
332,297;2,91
332,559;2,86
332,821;2,86
333,083;2,82
333,345;2,8
333,607;2,83
333,869;2,84
334,131;2,85
334,393;2,87
334,655;2,83
334,917;2,82
335,179;2,81
335,44;2,81
335,702;2,82
335,964;2,82
336,226;2,83
336,488;2,82
336,749;2,8
337,011;2,81
337,273;2,82
337,535;2,79
337,796;2,75
338,058;2,79
338,32;2,8
338,581;2,83
338,843;2,78
339,105;2,77
339,366;2,75
339,628;2,75
339,889;2,73
340,151;2,74
340,412;2,75
340,674;2,74
340,935;2,71
341,197;2,72
341,458;2,71
341,72;2,7
341,981;2,67
342,243;2,67
342,504;2,72
342,766;2,72
343,027;2,71
343,288;2,76
343,55;2,77
343,811;2,8
344,072;2,74
344,334;2,81
344,595;2,79
344,856;2,8
345,117;2,82
345,379;2,84
345,64;2,87
345,901;2,87
346,162;2,9
346,423;2,93
346,684;2,95
346,946;2,98
347,207;2,97
347,468;3,01
347,729;3
347,99;2,99
348,251;2,98
348,512;2,96
348,773;2,94
349,034;2,93
349,295;2,92
349,556;2,99
349,817;3,01
350,078;3,05
350,339;3,03
350,6;3,02
350,86;3,04
351,121;3,04
351,382;3,03
351,643;2,97
351,904;2,91
352,165;2,87
352,425;2,87
352,686;2,91
352,947;2,89
353,208;2,9
353,468;2,9
353,729;2,95
353,99;2,97
354,25;3,01
354,511;3,01
354,772;2,97
355,032;2,98
355,293;2,92
355,553;2,91
355,814;2,92
356,074;2,92
356,335;2,91
356,596;2,91
356,856;2,88
357,116;2,93
357,377;2,99
357,637;2,97
357,898;2,96
358,158;2,95
358,419;2,93
358,679;2,94
358,939;2,92
359,2;2,92
359,46;2,95
359,72;2,89
359,981;2,89
360,241;2,91
360,501;2,87
360,761;2,92
361,022;2,92
361,282;2,97
361,542;2,95
361,802;2,91
362,062;2,88
362,323;2,89
362,583;2,89
362,843;2,9
363,103;2,99
363,363;2,99
363,623;2,98
363,883;3,03
364,143;3,05
364,403;3,05
364,663;3,07
364,923;3,07
365,183;3,1
365,443;3,11
365,703;3,12
365,963;3,14
366,223;3,17
366,483;3,15
366,743;3,12
367,002;3,16
367,262;3,17
367,522;3,2
367,782;3,22
368,042;3,25
368,301;3,22
368,561;3,17
368,821;3,17
369,081;3,17
369,34;3,13
369,6;3,1
369,86;3,15
370,119;3,14
370,379;3,11
370,638;3,16
370,898;3,15
371,158;3,17
371,417;3,16
371,677;3,1
371,936;3,11
372,196;3,13
372,455;3,14
372,715;3,14
372,974;3,21
373,234;3,16
373,493;3,19
373,753;3,23
374,012;3,26
374,271;3,29
374,531;3,32
374,79;3,37
375,049;3,39
375,309;3,37
375,568;3,29
375,827;3,32
376,086;3,27
376,346;3,3
376,605;3,32
376,864;3,34
377,123;3,37
377,383;3,35
377,642;3,4
377,901;3,38
378,16;3,4
378,419;3,4
378,678;3,44
378,937;3,42
379,196;3,41
379,455;3,42
379,714;3,43
379,973;3,44
380,232;3,41
380,491;3,43
380,75;3,44
381,009;3,49
381,268;3,51
381,527;3,54
381,786;3,52
382,045;3,52
382,304;3,55
382,563;3,58
382,821;3,64
383,08;3,59
383,339;3,65
383,598;3,67
383,857;3,67
384,115;3,69
384,374;3,67
384,633;3,74
384,891;3,74
385,15;3,73
385,409;3,78
385,667;3,8
385,926;3,84
386,185;3,82
386,443;3,85
386,702;3,86
386,96;3,87
387,219;3,9
387,477;3,92
387,736;3,93
387,994;3,92
388,253;3,94
388,511;3,94
388,77;3,93
389,028;3,93
389,287;3,93
389,545;3,95
389,803;3,95
390,062;3,9
390,32;3,88
390,578;3,92
390,837;3,9
391,095;3,9
391,353;3,89
391,612;3,92
391,87;3,93
392,128;3,93
392,386;3,95
392,644;3,94
392,903;3,92
393,161;3,93
393,419;3,92
393,677;3,92
393,935;3,93
394,193;3,92
394,451;3,98
394,709;3,96
394,967;3,97
395,225;4,04
395,483;4,1
395,741;4,17
395,999;4,2
396,257;4,21
396,515;4,21
396,773;4,25
397,031;4,23
397,289;4,23
397,547;4,25
397,805;4,26
398,062;4,28
398,32;4,28
398,578;4,32
398,836;4,31
399,094;4,29
399,351;4,29
399,609;4,34
399,867;4,31
400,124;4,32
400,382;4,34
400,64;4,35
400,897;4,34
401,155;4,32
401,413;4,29
401,67;4,32
401,928;4,35
402,185;4,33
402,443;4,39
402,701;4,38
402,958;4,38
403,216;4,36
403,473;4,35
403,73;4,4
403,988;4,37
404,245;4,44
404,503;4,46
404,76;4,47
405,018;4,43
405,275;4,5
405,532;4,53
405,79;4,54
406,047;4,49
406,304;4,48
406,561;4,52
406,819;4,65
407,076;4,6
407,333;4,66
407,59;4,73
407,848;4,75
408,105;4,82
408,362;4,86
408,619;4,98
408,876;5,01
409,133;4,97
409,39;5,02
409,647;5,02
409,904;5
410,161;5,03
410,418;5,06
410,675;5,02
410,932;4,99
411,189;5,02
411,446;5,04
411,703;5,04
411,96;5,01
412,217;4,92
412,474;4,92
412,731;4,89
412,988;4,84
413,245;4,82
413,501;4,8
413,758;4,78
414,015;4,7
414,272;4,72
414,529;4,8
414,785;4,77
415,042;4,81
415,299;4,88
415,555;4,89
415,812;4,86
416,069;4,93
416,325;5
416,582;5,03
416,838;5,08
417,095;5,09
417,352;5,1
417,608;5,19
417,865;5,26
418,121;5,27
418,378;5,29
418,634;5,29
418,891;5,35
419,147;5,39
419,403;5,44
419,66;5,45
419,916;5,42
420,173;5,45
420,429;5,43
420,685;5,46
420,942;5,49
421,198;5,55
421,454;5,55
421,711;5,52
421,967;5,47
422,223;5,49
422,479;5,51
422,735;5,58
422,992;5,54
423,248;5,53
423,504;5,55
423,76;5,59
424,016;5,61
424,272;5,56
424,528;5,54
424,784;5,51
425,041;5,49
425,297;5,52
425,553;5,54
425,809;5,55
426,065;5,51
426,32;5,52
426,576;5,51
426,832;5,48
427,088;5,49
427,344;5,49
427,6;5,53
427,856;5,52
428,112;5,49
428,368;5,47
428,623;5,49
428,879;5,49
429,135;5,51
429,391;5,56
429,646;5,59
429,902;5,63
430,158;5,69
430,414;5,75
430,669;5,77
430,925;5,8
431,181;5,8
431,436;5,9
431,692;5,89
431,947;5,9
432,203;5,93
432,458;5,95
432,714;6,01
432,97;6,02
433,225;6,07
433,481;6,1
433,736;6,16
433,991;6,19
434,247;6,2
434,502;6,22
434,758;6,3
435,013;6,26
435,268;6,26
435,524;6,24
435,779;6,18
436,034;6,23
436,29;6,25
436,545;6,28
436,8;6,24
437,056;6,28
437,311;6,31
437,566;6,33
437,821;6,33
438,076;6,35
438,331;6,32
438,587;6,34
438,842;6,34
439,097;6,42
439,352;6,42
439,607;6,4
439,862;6,38
440,117;6,33
440,372;6,39
440,627;6,43
440,882;6,47
441,137;6,54
441,392;6,53
441,647;6,53
441,902;6,58
442,157;6,65
442,412;6,66
442,667;6,68
442,921;6,69
443,176;6,74
443,431;6,77
443,686;6,8
443,941;6,81
444,195;6,85
444,45;6,82
444,705;6,85
444,96;6,93
445,214;6,95
445,469;6,96
445,724;7
445,978;7,05
446,233;7,05
446,487;7,07
446,742;7,05
446,997;7,07
447,251;7,03
447,506;7,02
447,76;7,05
448,015;7,08
448,269;7,15
448,524;7,14
448,778;7,17
449,033;7,17
449,287;7,17
449,541;7,18
449,796;7,19
450,05;7,23
450,305;7,26
450,559;7,3
450,813;7,33
451,067;7,32
451,322;7,26
451,576;7,28
451,83;7,31
452,084;7,38
452,339;7,43
452,593;7,46
452,847;7,47
453,101;7,47
453,355;7,51
453,609;7,5
453,864;7,53
454,118;7,51
454,372;7,53
454,626;7,59
454,88;7,64
455,134;7,68
455,388;7,69
455,642;7,67
455,896;7,69
456,15;7,66
456,404;7,75
456,658;7,8
456,912;7,78
457,165;7,75
457,419;7,74
457,673;7,7
457,927;7,7
458,181;7,75
458,435;7,76
458,688;7,72
458,942;7,76
459,196;7,78
459,45;7,8
459,703;7,81
459,957;7,78
460,211;7,77
460,464;7,8
460,718;7,82
460,972;7,85
461,225;7,86
461,479;7,9
461,732;7,87
461,986;7,87
462,239;7,94
462,493;8,01
462,746;8,07
463;8,13
463,253;8,21
463,507;8,17
463,76;8,2
464,014;8,27
464,267;8,27
464,52;8,3
464,774;8,36
465,027;8,44
465,28;8,52
465,534;8,54
465,787;8,56
466,04;8,56
466,294;8,61
466,547;8,62
466,8;8,69
467,053;8,75
467,306;8,77
467,56;8,79
467,813;8,8
468,066;8,79
468,319;8,84
468,572;8,88
468,825;8,95
469,078;9,01
469,331;8,99
469,584;9,05
469,837;9,11
470,09;9,14
470,343;9,11
470,596;9,16
470,849;9,16
471,102;9,14
471,355;9,19
471,608;9,24
471,861;9,3
472,114;9,35
472,367;9,39
472,619;9,46
472,872;9,51
473,125;9,56
473,378;9,62
473,631;9,64
473,883;9,64
474,136;9,67
474,389;9,71
474,641;9,77
474,894;9,76
475,147;9,78
475,399;9,77
475,652;9,83
475,905;9,83
476,157;9,91
476,41;9,99
476,662;10
476,915;10,04
477,167;10,05
477,42;10,05
477,672;10,05
477,925;10,09
478,177;10,12
478,43;10,19
478,682;10,2
478,934;10,23
479,187;10,29
479,439;10,33
479,691;10,35
479,944;10,4
480,196;10,44
480,448;10,51
480,701;10,55
480,953;10,6
481,205;10,65
489,77;11,89
490,022;11,92
490,274;11,93
490,525;11,99
490,777;12,03
491,028;12,05
491,28;12,09
491,531;12,15
491,783;12,2
492,034;12,27
492,286;12,3
492,537;12,35
492,789;12,39
493,04;12,43
493,291;12,49
493,543;12,55
493,794;12,57
494,045;12,61
494,297;12,63
494,548;12,67
494,799;12,69
495,051;12,74
495,302;12,77
495,553;12,8
495,804;12,83
496,056;12,89
496,307;12,92
496,558;12,99
496,809;13,02
497,06;13,07
497,311;13,08
497,562;13,12
497,813;13,15
498,064;13,18
498,316;13,22
498,567;13,25
498,818;13,24
499,069;13,28
499,319;13,3
499,57;13,33
499,821;13,38
500,072;13,43
500,323;13,46
500,574;13,51
500,825;13,57
501,076;13,62
501,327;13,64
501,577;13,71
501,828;13,7
502,079;13,72
502,33;13,76
502,58;13,8
502,831;13,83
503,082;13,86
503,333;13,9
503,583;13,92
503,834;13,97
504,084;14,01
504,335;14,03
504,586;14,08
504,836;14,12
505,087;14,15
505,337;14,19
505,588;14,23
505,838;14,26
506,089;14,32
506,339;14,31
506,59;14,34
506,84;14,35
507,091;14,41
507,341;14,43
507,591;14,48
507,842;14,52
508,092;14,55
508,343;14,57
508,593;14,59
508,843;14,59
509,093;14,59
509,344;14,64
509,594;14,66
509,844;14,69
510,094;14,73
510,345;14,75
510,595;14,76
510,845;14,78
511,095;14,79
511,345;14,76
511,595;14,79
511,845;14,8
512,095;14,81
512,345;14,82
512,595;14,88
512,845;14,89
513,095;14,9
513,345;14,94
513,595;14,98
513,845;14,99
514,095;15,02
514,345;15,06
514,595;15,07
514,845;15,07
515,095;15,09
515,345;15,12
515,594;15,13
515,844;15,15
516,094;15,16
516,344;15,18
516,593;15,19
516,843;15,2
517,093;15,22
517,343;15,24
517,592;15,25
517,842;15,25
518,092;15,27
518,341;15,25
518,591;15,28
518,84;15,27
519,09;15,3
519,34;15,33
519,589;15,33
519,839;15,33
520,088;15,32
520,338;15,3
520,587;15,28
520,836;15,26
521,086;15,26
521,335;15,26
521,585;15,24
521,834;15,25
522,083;15,26
522,333;15,26
522,582;15,28
522,831;15,27
523,081;15,25
523,33;15,23
523,579;15,24
523,828;15,22
524,078;15,21
524,327;15,16
524,576;15,11
524,825;15,1
525,074;15,09
525,323;15,09
525,573;15,08
525,822;15,1
526,071;15,1
526,32;15,08
526,569;15,07
526,818;15,07
527,067;15,08
527,316;15,07
527,565;15,07
527,814;15,03
528,063;15,02
528,312;15,01
528,56;15
528,809;14,97
529,058;14,97
529,307;14,97
529,556;14,97
529,805;14,97
530,053;14,97
530,302;14,95
530,551;14,94
530,8;14,92
531,048;14,89
531,297;14,86
531,546;14,84
531,794;14,8
532,043;14,78
532,292;14,77
532,54;14,74
532,789;14,68
533,037;14,66
533,286;14,62
533,535;14,59
533,783;14,54
534,032;14,53
534,28;14,47
534,528;14,44
534,777;14,4
535,025;14,38
535,274;14,34
535,522;14,32
535,771;14,26
536,019;14,25
536,267;14,19
536,516;14,17
536,764;14,16
537,012;14,14
537,26;14,11
537,509;14,07
537,757;14,03
538,005;14,01
538,253;13,96
538,501;13,93
538,75;13,88
538,998;13,86
539,246;13,81
539,494;13,77
539,742;13,7
539,99;13,67
540,238;13,64
540,486;13,61
540,734;13,54
540,982;13,52
541,23;13,47
541,478;13,46
541,726;13,39
541,974;13,34
542,222;13,31
542,47;13,25
542,718;13,2
542,966;13,15
543,213;13,09
543,461;13,06
543,709;13,02
543,957;12,98
544,205;12,93
544,452;12,9
544,7;12,85
544,948;12,86
545,196;12,81
545,443;12,78
545,691;12,74
545,939;12,7
546,186;12,65
546,434;12,61
546,681;12,54
546,929;12,51
547,176;12,45
547,424;12,39
547,671;12,34
547,919;12,31
548,166;12,28
548,414;12,23
548,661;12,19
548,909;12,16
549,156;12,1
549,404;12,08
549,651;12,02
549,898;11,98
550,146;11,91
550,393;11,88
550,64;11,82
550,888;11,79
551,135;11,75
551,382;11,71
551,629;11,64
551,876;11,62
552,124;11,58
552,371;11,57
552,618;11,51
552,865;11,48
553,112;11,41
553,359;11,36
553,606;11,33
553,854;11,28
554,101;11,22
554,348;11,2
554,595;11,14
554,842;11,1
555,089;11,05
555,336;11,02
555,582;10,96
555,829;10,9
556,076;10,83
556,323;10,77
556,57;10,72
556,817;10,69
557,064;10,63
557,311;10,57
557,557;10,5
557,804;10,46
558,051;10,4
558,298;10,36
558,544;10,3
558,791;10,24
559,038;10,17
559,284;10,12
559,531;10,05
559,778;9,97
560,024;9,92
560,271;9,87
560,517;9,79
560,764;9,75
561,011;9,7
561,257;9,65
561,504;9,62
561,75;9,56
561,997;9,49
562,243;9,44
562,489;9,4
562,736;9,36
562,982;9,33
563,229;9,3
563,475;9,25
563,721;9,22
563,968;9,18
564,214;9,15
564,46;9,12
564,707;9,1
564,953;9,08
565,199;9,06
565,445;9,02
565,691;8,98
565,938;8,94
566,184;8,93
566,43;8,89
566,676;8,85
566,922;8,82
567,168;8,8
567,414;8,78
567,66;8,76
567,906;8,75
568,152;8,72
568,398;8,69
568,644;8,69
568,89;8,65
569,136;8,65
569,382;8,64
569,628;8,62
569,874;8,59
570,12;8,58
570,366;8,55
570,612;8,54
570,857;8,53
571,103;8,51
571,349;8,48
571,595;8,47
571,84;8,46
572,086;8,45
572,332;8,43
572,578;8,4
572,823;8,37
573,069;8,34
573,315;8,31
573,56;8,3
573,806;8,27
574,051;8,26
574,297;8,23
574,542;8,21
574,788;8,19
575,034;8,18
575,279;8,15
575,524;8,15
575,77;8,12
576,015;8,1
576,261;8,1
576,506;8,1
576,752;8,07
576,997;8,06
577,242;8,03
577,488;8,01
577,733;8
577,978;7,98
578,223;7,97
578,469;7,95
578,714;7,93
578,959;7,92
579,204;7,9
579,45;7,88
579,695;7,87
579,94;7,87
580,185;7,84
580,43;7,83
580,675;7,8
580,92;7,78
581,165;7,75
581,41;7,73
581,655;7,69
581,9;7,68
582,145;7,66
582,39;7,65
582,635;7,63
582,88;7,63
583,125;7,63
583,37;7,61
583,615;7,58
583,86;7,57
584,105;7,54
584,349;7,51
584,594;7,49
584,839;7,46
585,084;7,42
585,328;7,4
585,573;7,4
585,818;7,39
586,063;7,36
586,307;7,34
586,552;7,31
586,797;7,29
587,041;7,27
587,286;7,25
587,53;7,22
587,775;7,2
588,019;7,16
588,264;7,12
588,508;7,08
588,753;7,08
588,997;7,04
589,242;7,01
589,486;6,99
589,731;6,96
589,975;6,94
590,22;6,92
590,464;6,9
590,708;6,86
590,953;6,83
591,197;6,81
591,441;6,81
591,685;6,8
591,93;6,77
592,174;6,75
592,418;6,72
592,662;6,71
592,907;6,68
593,151;6,67
593,395;6,66
593,639;6,63
593,883;6,6
594,127;6,58
594,371;6,57
594,615;6,56
594,859;6,55
595,103;6,52
595,347;6,48
595,591;6,46
595,835;6,44
596,079;6,43
596,323;6,41
596,567;6,39
596,811;6,38
597,055;6,37
597,299;6,35
597,542;6,34
597,786;6,32
598,03;6,32
598,274;6,3
598,518;6,28
598,761;6,26
599,005;6,24
599,249;6,23
599,492;6,22
599,736;6,21
599,98;6,19
600,223;6,17
600,467;6,17
600,711;6,15
600,954;6,13
601,198;6,13
601,441;6,12
601,685;6,1
601,928;6,08
602,172;6,07
602,415;6,06
602,659;6,05
602,902;6,03
603,145;5,99
603,389;5,98
603,632;5,97
603,876;5,97
604,119;5,97
604,362;5,96
604,606;5,93
604,849;5,93
605,092;5,92
605,335;5,92
605,579;5,9
605,822;5,9
606,065;5,87
606,308;5,85
606,551;5,83
606,794;5,81
607,037;5,79
607,281;5,78
607,524;5,76
607,767;5,73
608,01;5,73
608,253;5,73
608,496;5,74
608,739;5,73
608,982;5,7
609,225;5,69
609,468;5,68
609,711;5,68
609,953;5,66
610,196;5,65
610,439;5,62
610,682;5,63
610,925;5,62
611,168;5,61
611,41;5,6
611,653;5,6
611,896;5,59
612,139;5,59
612,381;5,58
612,624;5,58
612,867;5,57
613,109;5,55
613,352;5,53
613,595;5,51
613,837;5,49
614,08;5,49
614,322;5,46
614,565;5,45
614,807;5,44
615,05;5,43
615,292;5,42
615,535;5,43
615,777;5,4
616,02;5,39
616,262;5,38
616,505;5,37
616,747;5,35
616,989;5,34
617,232;5,34
617,474;5,34
617,716;5,32
617,959;5,32
618,201;5,33
618,443;5,34
618,685;5,33
618,927;5,33
619,17;5,34
619,412;5,36
619,654;5,35
619,896;5,35
620,138;5,35
620,38;5,34
620,622;5,33
620,864;5,34
621,107;5,34
621,349;5,34
621,591;5,35
621,833;5,36
622,075;5,36
622,316;5,38
622,558;5,36
622,8;5,36
623,042;5,36
623,284;5,36
623,526;5,35
623,768;5,33
624,01;5,34
624,251;5,34
624,493;5,32
624,735;5,31
624,977;5,31
625,218;5,3
625,46;5,31
625,702;5,3
625,943;5,28
626,185;5,28
626,427;5,26
626,668;5,25
626,91;5,24
627,152;5,23
627,393;5,22
627,635;5,22
627,876;5,2
628,118;5,21
628,359;5,19
628,601;5,19
628,842;5,21
629,084;5,19
629,325;5,17
629,566;5,16
629,808;5,19
630,049;5,18
630,29;5,16
630,532;5,15
630,773;5,16
631,014;5,16
631,256;5,16
631,497;5,16
631,738;5,15
631,979;5,14
632,22;5,14
632,462;5,13
632,703;5,11
632,944;5,12
633,185;5,1
633,426;5,12
633,667;5,1
633,908;5,08
634,149;5,07
634,39;5,07
634,631;5,08
634,872;5,05
635,113;5,05
635,354;5,06
635,595;5,04
635,836;5,03
636,077;5,02
636,318;5
636,559;4,99
636,8;5
637,04;4,98
637,281;4,96
637,522;4,96
637,763;4,97
638,003;4,96
638,244;4,96
638,485;4,93
638,726;4,92
638,966;4,94
639,207;4,95
639,448;4,93
639,688;4,92
639,929;4,93
640,169;4,92
640,41;4,89
640,65;4,89
640,891;4,88
641,131;4,89
641,372;4,9
641,612;4,9
641,853;4,9
642,093;4,91
642,334;4,91
642,574;4,89
642,814;4,89
643,055;4,89
643,295;4,88
643,535;4,89
643,776;4,87
644,016;4,85
644,256;4,84
644,496;4,83
644,737;4,85
644,977;4,85
645,217;4,87
645,457;4,89
645,697;4,89
645,938;4,89
646,178;4,87
646,418;4,88
646,658;4,86
646,898;4,84
647,138;4,83
647,378;4,83
647,618;4,84
647,858;4,83
648,098;4,84
648,338;4,84
648,578;4,83
648,818;4,84
649,057;4,82
649,297;4,83
649,537;4,83
649,777;4,81
650,017;4,79
650,257;4,77
650,496;4,75
650,736;4,74
650,976;4,73
651,216;4,73
651,455;4,73
651,695;4,74
661,267;4,66
661,506;4,63
661,744;4,64
661,983;4,65
662,222;4,65
662,461;4,65
662,7;4,65
662,939;4,63
663,177;4,61
663,416;4,6
663,655;4,6
663,894;4,58
664,132;4,6
664,371;4,58
664,61;4,57
664,848;4,59
665,087;4,58
665,326;4,59
665,564;4,61
665,803;4,62
666,041;4,61
666,28;4,63
666,518;4,64
666,757;4,63
666,995;4,62
667,234;4,62
667,472;4,63
667,711;4,63
667,949;4,67
668,187;4,68
668,426;4,66
668,664;4,68
668,902;4,68
669,141;4,67
669,379;4,68
669,617;4,66
669,856;4,66
670,094;4,67
670,332;4,66
670,57;4,65
670,808;4,64
671,046;4,63
671,285;4,64
671,523;4,62
671,761;4,63
671,999;4,61
672,237;4,63
672,475;4,65
672,713;4,65
672,951;4,65
673,189;4,65
673,427;4,66
673,665;4,66
673,903;4,65
674,141;4,64
674,379;4,67
674,617;4,71
674,854;4,71
675,092;4,72
675,33;4,74
675,568;4,76
675,806;4,78
676,043;4,79
676,281;4,79
676,519;4,83
676,756;4,84
676,994;4,85
677,232;4,86
677,469;4,84
677,707;4,85
677,945;4,86
678,182;4,89
678,42;4,91
678,657;4,92
678,895;4,92
679,132;4,92
679,37;4,94
679,607;4,92
679,845;4,95
680,082;4,95
680,32;4,95
680,557;4,95
680,794;4,94
681,032;4,96
681,269;4,98
681,507;4,97
681,744;4,97
681,981;5,02
682,218;5
682,456;5,01
682,693;5,01
682,93;5,02
683,167;5,02
683,404;5,02
683,642;5,05
683,879;5,07
684,116;5,1
684,353;5,09
684,59;5,11
684,827;5,09
685,064;5,09
685,301;5,11
685,538;5,12
685,775;5,14
686,012;5,15
686,249;5,13
686,486;5,15
686,723;5,17
686,96;5,17
687,197;5,17
687,433;5,2
687,67;5,24
687,907;5,25
688,144;5,24
688,381;5,26
688,617;5,26
688,854;5,29
689,091;5,29
689,327;5,33
689,564;5,34
689,801;5,36
690,037;5,37
690,274;5,39
690,511;5,41
690,747;5,42
690,984;5,43
691,22;5,45
691,457;5,47
691,693;5,5
691,93;5,5
692,166;5,53
692,403;5,54
692,639;5,55
692,876;5,56
693,112;5,57
693,348;5,6
693,585;5,6
693,821;5,6
694,057;5,61
694,294;5,63
694,53;5,66
694,766;5,7
695,002;5,71
695,239;5,74
695,475;5,76
695,711;5,76
695,947;5,79
696,183;5,81
696,419;5,82
696,656;5,83
696,892;5,85
697,128;5,86
697,364;5,87
697,6;5,86
697,836;5,89
698,072;5,92
698,308;5,94
698,544;5,96
698,78;6
699,016;6,02
699,251;6,02
699,487;6,03
699,723;6,02
699,959;6,04
700,195;6,05
700,431;6,04
700,666;6,06
700,902;6,08
701,138;6,08
701,374;6,1
701,609;6,1
701,845;6,1
702,081;6,12
702,316;6,13
702,552;6,12
702,788;6,1
703,023;6,11
703,259;6,09
703,494;6,09
703,73;6,09
703,965;6,09
704,201;6,11
704,436;6,11
704,672;6,12
704,907;6,16
705,143;6,16
705,378;6,16
705,613;6,17
705,849;6,15
706,084;6,15
706,319;6,15
706,555;6,16
706,79;6,22
707,025;6,22
707,26;6,26
707,496;6,29
707,731;6,3
707,966;6,32
708,201;6,33
708,436;6,35
708,671;6,35
708,907;6,35
709,142;6,36
709,377;6,35
709,612;6,37
709,847;6,35
710,082;6,37
710,317;6,4
710,552;6,41
710,787;6,42
711,022;6,45
711,257;6,48
711,492;6,46
711,726;6,44
711,961;6,43
712,196;6,41
712,431;6,4
712,666;6,42
712,901;6,41
713,135;6,42
713,37;6,42
713,605;6,44
713,839;6,47
714,074;6,46
714,309;6,48
714,543;6,48
714,778;6,48
715,013;6,47
715,247;6,46
715,482;6,45
715,716;6,44
715,951;6,43
716,185;6,43
716,42;6,46
716,654;6,45
716,889;6,46
717,123;6,45
717,358;6,45
717,592;6,44
717,827;6,45
718,061;6,49
718,295;6,47
718,53;6,46
718,764;6,42
718,998;6,42
719,232;6,42
719,467;6,43
719,701;6,44
719,935;6,46
720,169;6,45
720,403;6,47
720,638;6,5
720,872;6,48
721,106;6,45
721,34;6,46
721,574;6,47
721,808;6,47
722,042;6,46
722,276;6,46
722,51;6,48
722,744;6,49
722,978;6,48
723,212;6,48
723,446;6,51
723,68;6,52
723,914;6,54
724,147;6,58
724,381;6,57
724,615;6,57
724,849;6,55
725,083;6,57
725,316;6,56
725,55;6,55
725,784;6,59
726,018;6,61
726,251;6,6
726,485;6,59
726,719;6,58
726,952;6,59
727,186;6,63
727,419;6,62
727,653;6,61
727,887;6,61
728,12;6,64
728,354;6,6
728,587;6,63
728,821;6,62
729,054;6,6
729,287;6,6
729,521;6,56
729,754;6,56
729,988;6,55
730,221;6,56
730,454;6,56
730,688;6,56
730,921;6,56
731,154;6,57
731,387;6,59
731,621;6,59
731,854;6,59
732,087;6,58
732,32;6,59
732,553;6,6
732,787;6,6
733,02;6,59
733,253;6,6
733,486;6,57
733,719;6,56
733,952;6,55
734,185;6,55
734,418;6,56
734,651;6,58
734,884;6,61
735,117;6,61
735,35;6,61
735,583;6,61
735,816;6,6
736,049;6,59
736,281;6,59
736,514;6,59
736,747;6,62
736,98;6,63
737,213;6,64
737,445;6,63
737,678;6,61
737,911;6,62
738,144;6,65
738,376;6,66
738,609;6,68
738,842;6,67
739,074;6,7
739,307;6,72
739,539;6,71
739,772;6,69
740,004;6,69
740,237;6,7
740,469;6,69
740,702;6,69
740,934;6,72
741,167;6,72
741,399;6,73
741,632;6,72
741,864;6,7
742,096;6,67
742,329;6,68
742,561;6,69
742,793;6,69
743,026;6,68
743,258;6,65
743,49;6,63
743,723;6,6
743,955;6,56
744,187;6,54
744,419;6,57
744,651;6,57
744,883;6,56
745,115;6,54
745,348;6,54
745,58;6,52
745,812;6,47
746,044;6,48
746,276;6,46
746,508;6,43
746,74;6,45
746,972;6,46
747,204;6,44
747,436;6,43
747,667;6,43
747,899;6,42
748,131;6,42
748,363;6,4
748,595;6,44
748,827;6,46
749,058;6,45
749,29;6,41
749,522;6,37
749,754;6,39
749,985;6,38
750,217;6,33
750,449;6,35
750,68;6,38
750,912;6,39
751,144;6,42
751,375;6,4
751,607;6,38
751,838;6,38
752,07;6,4
752,301;6,39
752,533;6,36
752,764;6,36
752,996;6,38
753,227;6,41
753,459;6,39
753,69;6,4
753,921;6,41
754,153;6,42
754,384;6,45
754,615;6,42
754,847;6,47
755,078;6,52
755,309;6,55
755,54;6,54
755,772;6,52
756,003;6,5
756,234;6,53
756,465;6,55
756,696;6,53
756,927;6,55
757,159;6,55
757,39;6,58
757,621;6,56
757,852;6,54
758,083;6,53
758,314;6,56
758,545;6,55
758,776;6,54
759,007;6,53
759,238;6,53
759,469;6,54
759,699;6,5
759,93;6,47
760,161;6,42
760,392;6,4
760,623;6,38
760,854;6,38
761,084;6,34
761,315;6,32
761,546;6,34
761,776;6,31
762,007;6,31
762,238;6,28
762,468;6,29
762,699;6,3
762,93;6,31
763,16;6,26
763,391;6,23
763,621;6,22
763,852;6,23
764,083;6,21
764,313;6,2
764,543;6,2
764,774;6,23
765,004;6,25
765,235;6,28
765,465;6,33
765,696;6,34
765,926;6,37
766,156;6,34
766,387;6,33
766,617;6,34
766,847;6,35
767,077;6,38
767,308;6,39
767,538;6,38
767,768;6,36
767,998;6,39
768,228;6,4
768,459;6,41
768,689;6,43
768,919;6,44
769,149;6,47
769,379;6,46
769,609;6,46
769,839;6,45
770,069;6,45
770,299;6,4
770,529;6,38
770,759;6,37
770,989;6,39
771,219;6,41
771,449;6,4
771,678;6,4
771,908;6,38
772,138;6,36
772,368;6,36
772,598;6,38
772,827;6,37
773,057;6,38
773,287;6,41
773,517;6,39
773,746;6,4
773,976;6,39
774,206;6,42
774,435;6,4
774,665;6,41
774,894;6,39
775,124;6,37
775,354;6,36
775,583;6,35
775,813;6,32
776,042;6,3
776,272;6,31
776,501;6,29
776,73;6,32
776,96;6,34
777,189;6,31
777,419;6,34
777,648;6,35
777,877;6,35
778,107;6,32
778,336;6,29
778,565;6,27
778,794;6,27
779,024;6,22
779,253;6,26
779,482;6,23
779,711;6,26
779,94;6,3
780,17;6,3
780,399;6,31
780,628;6,35
780,857;6,35
781,086;6,36
781,315;6,39
781,544;6,4
781,773;6,4
782,002;6,43
782,231;6,42
782,46;6,41
782,689;6,41
782,918;6,43
783,147;6,46
783,375;6,49
783,604;6,48
783,833;6,49
784,062;6,46
784,291;6,48
784,519;6,47
784,748;6,47
784,977;6,49
785,206;6,5
785,434;6,49
785,663;6,47
785,892;6,47
786,12;6,44
786,349;6,44
786,577;6,4
786,806;6,39
787,034;6,36
787,263;6,36
787,492;6,37
787,72;6,38
787,948;6,41
788,177;6,41
788,405;6,44
788,634;6,47
788,862;6,49
789,09;6,46
789,319;6,48
789,547;6,44
789,775;6,44
790,004;6,43
790,232;6,43
790,46;6,45
790,688;6,45
790,917;6,42
791,145;6,41
791,373;6,45
791,601;6,49
791,829;6,5
792,057;6,49
792,286;6,48
792,514;6,47
792,742;6,47
792,97;6,49
793,198;6,44
793,426;6,41
793,654;6,39
793,882;6,46
794,109;6,46
794,337;6,48
794,565;6,46
794,793;6,47
795,021;6,48
795,249;6,48
795,477;6,46
795,704;6,49
795,932;6,49
796,16;6,44
796,388;6,39
796,615;6,37
796,843;6,35
797,071;6,37
797,298;6,36
797,526;6,36
797,754;6,34
797,981;6,32
798,209;6,32
798,436;6,32
798,664;6,27
798,891;6,23
799,119;6,2
799,346;6,21
799,574;6,22
799,801;6,25
800,029;6,25
800,256;6,27
800,483;6,27
800,711;6,24
800,938;6,24
801,165;6,27
801,393;6,27
801,62;6,28
801,847;6,26
802,074;6,23
802,302;6,22
802,529;6,22
802,756;6,29
802,983;6,3
803,21;6,33
803,437;6,29
803,665;6,32
803,892;6,37
804,119;6,35
804,346;6,34
804,573;6,28
804,8;6,29
805,027;6,3
805,254;6,28
805,481;6,28
805,708;6,29
805,934;6,31
806,161;6,33
806,388;6,35
806,615;6,36
806,842;6,38
807,069;6,37
807,295;6,36
807,522;6,35
807,749;6,36
807,976;6,31
808,202;6,37
808,429;6,35
808,656;6,3
808,882;6,34
809,109;6,31
809,335;6,35
809,562;6,35
809,789;6,35
810,015;6,37
810,242;6,43
810,468;6,45
810,695;6,43
810,921;6,48
811,147;6,46
811,374;6,47
811,6;6,52
811,827;6,55
812,053;6,51
812,279;6,49
812,506;6,49
812,732;6,56
812,958;6,58
813,185;6,63
813,411;6,61
813,637;6,61
813,863;6,61
814,089;6,59
814,315;6,55
814,542;6,53
814,768;6,5
814,994;6,46
815,22;6,43
815,446;6,41
815,672;6,34
815,898;6,37
816,124;6,33
816,35;6,27
816,576;6,23
816,802;6,3
817,028;6,29
817,254;6,28
817,48;6,18
817,705;6,14
817,931;6,15
818,157;6,21
818,383;6,2
818,609;6,24
818,834;6,24
819,06;6,24
819,286;6,3
819,512;6,37
819,737;6,38
819,963;6,38
820,189;6,39
820,414;6,46
820,64;6,45
820,865;6,5
821,091;6,52
821,316;6,52
821,542;6,47
821,767;6,51
821,993;6,5
822,218;6,57
822,444;6,56
822,669;6,54
822,895;6,57
823,12;6,57
823,345;6,56
823,571;6,53
823,796;6,6
824,021;6,57
824,247;6,55
824,472;6,54
824,697;6,54
824,922;6,55
825,147;6,54
825,373;6,55
825,598;6,53
825,823;6,52
826,048;6,49
826,273;6,46
826,498;6,48
826,723;6,49
826,948;6,45
827,173;6,43
827,398;6,43
827,623;6,39
827,848;6,39
828,073;6,44
828,298;6,46
828,523;6,46
828,748;6,48
828,973;6,48
829,197;6,5
829,422;6,49
829,647;6,48
829,872;6,4
830,097;6,44
830,321;6,46
830,546;6,48
830,771;6,46
830,995;6,5
831,22;6,5
831,445;6,52
831,669;6,56
831,894;6,56
832,118;6,55
832,343;6,56
832,567;6,55
832,792;6,53
833,016;6,54
833,241;6,49
833,465;6,46
833,69;6,44
833,914;6,47
834,139;6,5
834,363;6,51
834,587;6,52
834,812;6,51
835,036;6,48
835,26;6,45
835,485;6,51
835,709;6,53
835,933;6,53
836,157;6,5
836,381;6,52
836,606;6,59
836,83;6,6
837,054;6,61
837,278;6,59
837,502;6,59
837,726;6,6
837,95;6,62
838,174;6,6
838,398;6,63
838,622;6,55
838,846;6,52
839,07;6,51
839,294;6,47
839,518;6,43
839,742;6,43
839,966;6,48
840,189;6,43
840,413;6,41
840,637;6,38
840,861;6,41
841,085;6,37
841,308;6,35
841,532;6,32
841,756;6,31
841,979;6,3
842,203;6,3
842,427;6,32
842,65;6,36
842,874;6,35
843,098;6,31
843,321;6,37
843,545;6,46
843,768;6,44
843,992;6,58
844,215;6,62
844,439;6,69
844,662;6,64
844,886;6,71
845,109;6,76
845,332;6,79
845,556;6,79
845,779;6,79
846,002;6,77
846,226;6,77
846,449;6,74
846,672;6,77
846,895;6,79
847,119;6,79
847,342;6,75
847,565;6,76
847,788;6,8
848,011;6,84
848,234;6,82
848,457;6,83
848,681;6,77
848,904;6,68
849,127;6,65
849,35;6,68
849,573;6,71
849,796;6,74
850,019;6,74
850,241;6,73
850,464;6,74
850,687;6,8
850,91;6,84
851,133;6,86
851,356;6,88
851,579;6,85
851,801;6,86
852,024;6,9
852,247;6,91
852,47;6,84
852,692;6,74
852,915;6,71
853,138;6,77
853,36;6,81
853,583;6,78
853,806;6,78
854,028;6,7
854,251;6,59
854,473;6,54
854,696;6,53
854,918;6,53
855,141;6,57
855,363;6,51
855,586;6,47
855,808;6,49
856,031;6,44
856,253;6,41
856,475;6,38
856,698;6,26
856,92;6,21
857,142;6,32
857,365;6,37
857,587;6,37
857,809;6,33
858,031;6,31
858,253;6,41
858,476;6,42
858,698;6,45
858,92;6,48
859,142;6,52
859,364;6,5
859,586;6,53
859,808;6,54
860,03;6,53
860,252;6,5
860,474;6,52
860,696;6,6
860,918;6,59
861,14;6,64
861,362;6,79
861,584;6,86
861,806;6,76
862,028;6,76
862,25;6,78
862,471;6,82
862,693;6,74
862,915;6,75
863,137;6,76
863,358;6,85
863,58;6,93
863,802;6,9
864,024;6,9
864,245;6,87
864,467;6,85
864,688;6,86
864,91;6,88
865,132;6,88
865,353;6,83
865,575;6,87
865,796;6,83
866,018;6,82
866,239;6,82
866,461;6,9
866,682;6,91
866,903;6,91
867,125;6,94
867,346;7,04
867,567;7,02
867,789;7,03
868,01;6,97
868,231;6,88
868,453;6,84
868,674;6,83
868,895;6,86
869,116;6,89
869,337;7,01
869,559;7,09
869,78;7,06
870,001;7,07
870,222;7,13
870,443;7,11
870,664;7,13
870,885;7,13
871,106;7,12
871,327;7,14
871,548;7,18
871,769;7,13
871,99;7,22
872,211;7,17
872,432;7,16
872,653;7,21
872,874;7,27
873,094;7,31
873,315;7,33
873,536;7,28
873,757;7,23
873,978;7,14
874,198;7,08
874,419;7,1
874,64;7,1
874,86;7,09
875,081;7,14
875,302;7,12
875,522;7,14
875,743;7,18
875,963;7,17
876,184;7,16
876,404;7,14
876,625;7
876,845;7,09
877,066;7,15
877,286;7,17
877,507;7,27
877,727;7,25
877,947;7,29
878,168;7,29
878,388;7,31
878,609;7,32
878,829;7,41
879,049;7,49
879,269;7,49
879,49;7,47
879,71;7,46
879,93;7,44
880,15;7,47
880,37;7,48
880,59;7,43
880,811;7,43
881,031;7,45
881,251;7,47
881,471;7,42
881,691;7,38
881,911;7,36
882,131;7,27
882,351;7,31
882,571;7,27
882,791;7,35
883,011;7,32
883,23;7,38
883,45;7,35
883,67;7,33
883,89;7,32
884,11;7,26
884,33;7,26
884,549;7,29
884,769;7,17
884,989;7,15
885,209;7,2
885,428;7,24
885,648;7,21
885,868;7,28
886,087;7,27
886,307;7,23
886,526;7,21
886,746;7,21
886,965;7,24
887,185;7,28
887,404;7,24
887,624;7,42
887,843;7,41
888,063;7,37
888,282;7,34
888,502;7,39
888,721;7,49
888,94;7,51
889,16;7,51
889,379;7,55
889,598;7,57
889,818;7,67
890,037;7,69
890,256;7,72
890,475;7,72
890,694;7,75
890,914;7,78
891,133;7,78
891,352;7,88
891,571;7,77
891,79;7,81
892,009;7,77
892,228;7,65
892,447;7,71
892,666;7,73
892,885;7,73
893,104;7,7
893,323;7,69
893,542;7,73
893,761;7,83
893,98;7,86
894,199;7,87
894,417;7,72
894,636;7,7
894,855;7,79
895,074;7,76
895,293;7,74
895,511;7,67
895,73;7,71
895,949;7,62
896,167;7,68
896,386;7,67
896,605;7,79
896,823;7,8
897,042;7,75
897,26;7,7
897,479;7,84
897,697;7,94
897,916;7,94
898,134;7,89
898,353;7,82
898,571;7,76
898,79;7,84
899,008;7,93
899,227;7,97
899,445;8
899,663;8,07
899,882;8,1
900,1;8,19
900,318;8,15
900,536;8,21
900,755;8,32
900,973;8,24
901,191;8,21
901,409;8,25
901,627;8,17
901,846;8,31
902,064;8,11
902,282;8,04
902,5;8,05
902,718;7,96
902,936;7,78
903,154;7,9
903,372;7,83
903,59;7,83
903,808;7,73
904,026;7,66
904,244;7,76
904,462;7,77
904,679;7,79
904,897;7,82
905,115;7,77
905,333;7,71
905,551;7,72
905,768;7,69
905,986;7,61
906,204;7,67
906,422;7,63
906,639;7,68
906,857;7,73
907,074;7,63
907,292;7,6
907,51;7,83
907,727;7,83
907,945;7,88
908,162;7,95
908,38;8,05
908,597;8,08
908,815;8
909,032;8,03
909,25;7,98
909,467;8,07
909,684;8,11
909,902;8,14
910,119;8,15
910,337;8,28
910,554;8,32
910,771;8,38
910,988;8,31
911,206;8,4
911,423;8,47
911,64;8,64
911,857;8,74
912,074;8,78
912,291;8,76
912,509;8,69
912,726;8,61
912,943;8,63
913,16;8,71
913,377;8,65
913,594;8,65
913,811;8,8
914,028;8,76
914,245;8,81
914,462;8,64
914,679;8,71
914,896;8,7
915,112;8,79
915,329;8,93
915,546;8,89
915,763;8,91
915,98;8,87
916,196;8,85
916,413;8,98
916,63;9,09
916,847;9,05
917,063;9,02
917,28;9,09
917,497;9,07
917,713;8,97
917,93;9,22
918,146;9,29
918,363;9,25
918,579;9,28
918,796;9,25
919,012;9,64
919,229;9,59
919,445;9,67
919,662;9,61
919,878;9,48
920,095;9,7
920,311;9,61
920,527;9,74
920,744;9,77
920,96;9,75
921,176;9,61
921,392;9,55
921,609;9,67
921,825;9,63
922,041;9,67
922,257;9,69
922,473;9,56
922,69;9,5
922,906;9,29
923,122;9,32
923,338;9,39
923,554;9,24
923,77;9,23
923,986;9,17
924,202;9,31
924,418;9,29
924,634;9,14
924,85;9,19
925,066;9,18
925,282;9,15
925,497;9,15
925,713;9,2
925,929;9,35
926,145;9,31
926,361;9,31
926,576;9,32
926,792;9,26
927,008;9,11
927,224;9,17
927,439;9,34
927,655;9,27
927,871;9,11
928,086;9,1
928,302;9,12
928,517;9,16
928,733;9,17
928,948;9,26
929,164;9,17
929,379;9,23
929,595;9,11
929,81;9,28
930,026;9,25
930,241;9,33
930,456;9,18
930,672;9,25
930,887;9,31
931,102;9,24
931,318;9,4
931,533;9,54
931,748;9,54
931,964;9,53
932,179;9,56
932,394;9,68
932,609;9,69
932,824;9,8
933,039;9,8
933,255;9,66
933,47;9,57
933,685;9,65
933,9;9,77
934,115;9,79
934,33;9,65
934,545;9,88
934,76;9,84
934,975;10,1
935,19;10,13
935,404;10,13
935,619;10,2
935,834;10,2
936,049;10,22
936,264;10,43
936,479;10,4
936,693;10,53
936,908;10,81
937,123;10,83
937,338;10,85
937,552;10,61
937,767;10,72
937,982;10,95
938,196;11,2
938,411;11,02
938,625;11,25
938,84;11,52
939,055;11,04
939,269;11
939,484;11,06
939,698;11,07
939,912;11,03
940,127;11,06
940,341;10,67
940,556;10,63
940,77;10,33
940,984;10,72
941,199;10,85
941,413;10,4
941,627;10,51
941,842;10,67
942,056;11,08
942,27;11,4
942,484;11,78
942,699;11,65
942,913;11,65
943,127;11,84
943,341;11,13
943,555;11,54
943,769;11,99
943,983;11,67
944,197;11,24
944,411;11,37
944,625;12,01
944,839;12,74
945,053;12,9
945,267;13,14
945,481;12,68
945,695;12,94
945,909;13,09
946,123;12,94
946,336;13,64
946,55;14,11
946,764;14,1
946,978;13,76
947,192;14,22
947,405;14,16
947,619;14,35
947,833;14,77
948,046;15,16
948,26;14,66
948,474;14,37
948,687;14,77
948,901;14,86
949,114;14,33
949,328;14,35
949,541;14,12
949,755;14,59
949,968;14,65
950,182;14,45
950,395;14,39
950,609;14,77
950,822;14,06
951,035;14,08
951,249;14,05
951,462;14,45
951,675;14,35
951,889;14,42
952,102;14,04
952,315;14,3
952,528;13,94
952,741;14,23
952,955;14,45
953,168;14,49
953,381;14,4
953,594;14,49
953,807;14,34
954,02;14,39
954,233;13,81
954,446;14,13
954,659;14,28
954,872;14,28
955,085;14,35
955,298;14,38
955,511;13,83
955,724;13,77
955,937;13,44
956,15;12,65
956,362;12,8
956,575;12,8
956,788;12,88
957,001;12,98
957,214;12,62
957,426;12,69
957,639;12,66
957,852;12,8
958,064;12,97
958,277;12,42
958,49;12,69
958,702;12,93
958,915;12,75
959,127;12,44
959,34;12,56
959,552;12,27
959,765;12,04
959,977;12,19
960,19;12,47
960,402;12,32
960,615;12,83
960,827;12,35
961,039;12,06
961,252;11,38
961,464;11,52
961,676;11,84
961,889;11,64
962,101;11,68
962,313;11,58
962,525;11,38
962,738;11,71
962,95;11,84
963,162;11,57
963,374;11,67
963,586;11,66
963,798;11,59
964,01;11,61
964,222;12,07
964,434;12,5
964,646;11,9
964,858;12,11
965,07;12,23
965,282;12,51
965,494;12,84
965,706;13,23
965,918;13,3
966,13;13,28
966,342;13,37
966,553;13,13
966,765;13,05
966,977;13,61
967,189;13,71
967,401;13,45
967,612;13,41
967,824;13,56
968,036;13,52
968,247;13,46
968,459;13,32
968,67;12,99
968,882;12,75
969,094;13,02
969,305;13,18
969,517;13,26
969,728;13,37
969,94;13,49
970,151;12,95
970,362;13,02
970,574;12,94
970,785;13,41
970,997;13,77
971,208;13,92
971,419;13,1
971,631;13,04
971,842;13,24
972,053;13,5
972,264;13,73
972,476;13,89
972,687;13,52
972,898;13,55
973,109;13,93
973,32;14,04
973,531;14,29
973,742;14,01
973,954;14,04
974,165;14,01
974,376;13,86
974,587;14,74
974,798;14,34
975,009;14,2
975,22;13,8
975,43;13,71
975,641;13,79
975,852;14,12
976,063;14,65
976,274;14,49
976,485;14,42
976,695;13,9
976,906;14,14
977,117;14,86
977,328;15,53
977,538;15,18
977,749;15,18
977,96;14,97
978,17;15,17
978,381;14,69
978,592;15,17
978,802;15,35
979,013;15,03
979,223;15,38
979,434;15,24
979,644;15,92
979,855;15,86
980,065;16,2
980,276;16,11
980,486;15,57
980,696;15,68
980,907;15,51
981,117;15,65
981,327;15,49
981,538;15,09
981,748;14,36
981,958;14,75
982,169;14,59
982,379;14,33
982,589;14,03
982,799;14,39
983,009;13,59
983,219;13,78
983,43;13,44
983,64;13,24
983,85;13,87
984,06;13,67
984,27;13,68
984,48;13,69
984,69;13,37
984,9;13,28
985,11;13,52
985,32;13,83
985,529;13,72
985,739;13,72
985,949;13,98
986,159;14,3
986,369;13,85
986,579;14,22
986,788;14,83
986,998;14,82
987,208;14,92
987,417;15,17
987,627;14,85
987,837;15,03
988,046;14,8
988,256;14,64
988,466;14,35
988,675;14,46
988,885;14,23
989,094;15,16
989,304;15,58
989,513;15,96
989,723;16,01
989,932;16,2
990,142;16,08
990,351;15,81
990,56;15,66
990,77;16,07
990,979;15,77
991,188;15,93
991,398;16,06
991,607;16,19
991,816;16,84
992,025;16,85
992,235;17,26
992,444;17,93
992,653;18,27
992,862;18,22
993,071;18,39
993,28;18,37
993,489;18,09
993,698;18,35
993,908;17,28
994,117;17,18
994,326;17,58
994,534;17,88
994,743;18,13
994,952;18,17
995,161;17,58
995,37;17,76
995,579;17,4
995,788;17,57
995,997;17,57
996,205;16,79
996,414;16,91
996,623;16,74
996,832;16,33
997,04;16,4
997,249;16,26
997,458;16,29
997,666;16,79
997,875;16,32
998,084;16,34
998,292;16,6
998,501;16,73
998,709;16,33
998,918;15,5
999,126;16
999,335;16,52
999,543;17,52
999,752;17,54
999,96;17,46
1000,169;17,57
1000,377;17,41
1000,585;17,68
1000,794;17,84
1001,002;17,92
1001,21;18,32
1001,418;17,98
1001,627;18,16
1001,835;18,21
1002,043;17,81
1002,251;18,46
1002,459;18,64
1002,668;18,4
1002,876;18,56
1003,084;18,25
1003,292;19
1003,5;18,6
1003,708;18,24
1003,916;17,3
1004,124;17,34
1004,332;17,55
1004,54;17,63
1004,748;17,75
1004,956;18,16
1005,163;17,6
1005,371;17,92
1005,579;17,72
1005,787;18,01
1005,995;18,61
1006,202;18,49
1006,41;18,8
1006,618;18,88
1006,826;18,88
1007,033;18,71
1007,241;18,32
1007,449;18,59
1007,656;18,79
1007,864;19,12
1008,071;19,31
1008,279;20,17
1008,486;20,12
1008,694;19,76
1008,901;20,19
1009,109;20,64
1009,316;20,77
1009,524;21,48
1009,731;21,87
1009,938;22,28
1010,146;22,08
1010,353;21,96
1010,56;22,14
1010,768;21,97
1010,975;22,57
1011,182;21,59
1011,389;21,16
1011,597;21,69
1011,804;21,55
1012,011;22,05
1012,218;22,03
1012,425;22,51
1012,632;23,19
1012,839;23,14
1013,046;23,47
1013,253;23,2
1013,46;22,92
1013,667;23,39
1013,874;23,17
1014,081;22,8
1014,288;22,33
1014,495;21,53
1014,702;20,94
1014,909;20,42
1015,116;20,72
1015,323;21,22
1015,529;22,22
1015,736;23,24
1015,943;22,35
1016,15;21,76
1016,356;20,76
1016,563;20,42
1016,77;20,09
1016,976;19,57
1017,183;19,1
1017,389;19,24
1017,596;19,79
1017,803;19,36
1018,009;19,16
1018,216;18,58
1018,422;17,56
1018,629;17,63
1018,835;19,13
1019,041;19,23
1019,248;19,74
1019,454;19,14
1019,661;17,48
1019,867;17,39
1020,073;17,48
1020,279;18,3
1020,486;18,64
1020,692;19,56
1020,898;18,77
1021,104;17,83
1021,311;17,27
1021,517;17,04
1021,723;17,42
1021,929;16,63
1022,135;17,25
1022,341;16,11
1022,547;17,1
1022,753;17,98
1022,959;17,78
1023,165;17,45
1023,371;17,56
1023,577;16,26
1023,783;15,59
1023,989;16,48
1024,195;17,64
1024,401;18,56
1024,607;19,38
1024,812;20,14
1025,018;19,92
1025,224;20,78
1025,43;22,54
1025,635;21,64
1025,841;21,85
1026,047;20,78
1026,252;20,15
1026,458;20,74
1026,664;20,94
1026,869;21,31
1027,075;22,56
1027,28;22,85
1027,486;21,82
1027,691;21,89
1027,897;24
1028,102;24,88
1028,308;24,49
1028,513;22,08
1028,719;20,97
1028,924;20,55
1029,129;20,91
1029,335;21,06
1029,54;20,89
1029,745;21,08
1029,95;21,81
1030,156;21,41
1030,361;22,64
1030,566;23,72
1030,771;22,17
1030,976;23,13
1031,182;21,43
1031,387;19,59
1031,592;18,82
1031,797;19,53
1032,002;17,44
1032,207;16,18
1032,412;14,74
1032,617;14,69
1032,822;15,34
1033,027;18,15
1033,232;18,04
1033,437;17,88
1033,642;16,68
1033,846;17,32
1034,051;14,33
1034,256;14,69
1034,461;15,59
1034,666;13,33
1034,87;12,08
1035,075;12,82
1035,28;10,45
1035,484;14,17
1035,689;14,24
1035,894;14,35
1036,098;13,59
1036,303;14,58
1036,507;15,73
1036,712;17,67
1036,917;17,5
1037,121;19,82
1037,325;16,67
1037,53;16,46
1037,734;16,38
1037,939;17,57
1038,143;17,16
1038,348;21,53
1038,552;22,13
1038,756;22,99
1038,961;23,39
1039,165;24,47
1039,369;24,94
1039,573;25,21
1039,778;22,03
1039,982;23,64
1040,186;24,43
1040,39;23,74
1040,594;26,6
1040,798;25,17
1041,002;24,31
1041,206;23,4
1041,41;21,58
1041,614;20,34
1041,818;20,91
1042,022;18,47
1042,226;17,44
1042,43;20,75
1042,634;17,88
1042,838;16,73
1043,042;15,17
1043,246;14,26
1043,45;13,76
1043,653;13,32
1043,857;15,52
1044,061;16,88
1044,265;13,94
1044,468;16,12
1044,672;18,98
1044,876;17,56
1045,079;17,55
1045,283;18,62
1045,487;18,52
1045,69;19,73
1045,894;21,92
1046,097;21,54
1046,301;25,62
1046,504;27,76
1046,708;23,96
1046,911;25,41
1047,115;24,82
1047,318;24,43
1047,522;28,53
1047,725;28,49
1047,928;30,92
1048,132;29,8
1048,335;26,94
1048,538;27,02
1048,741;25,46
1048,945;25,85
1049,148;25,29
1049,351;27,04
1049,554;27,05
1049,757;31,87
1049,96;30,28
1050,163;31,54
1050,367;31,34
1050,57;31,44
1050,773;27,22
1050,976;29,35
1051,179;28,78
1051,382;30,95
1051,585;31,89
1051,787;30,7
1051,99;34,9
1052,193;32,76
1052,396;32,29
1052,599;34,47
1052,802;39,74
1053,005;38,28
1053,207;36,98
1053,41;35,37
1053,613;32,9
1053,815;29,47
1054,018;24,68
1054,221;25,56
1054,423;25,36
1054,626;24,95
1054,829;23,73
1055,031;27,29
1055,234;25,61
1055,436;23,83
1055,639;21,51
1055,841;22,76
1056,044;22,99
1056,246;15,01
