Data from lapisWhite_Reflection__3__36.txt Node;
"Date: Fri Sep 12 11:17:10 CEST 2025 User: sycur Spectrometer: SR400348 Trigger mode: 0 Integration Time (sec): 2,000000E-2 Scans to average: 20 Electric dark correction enabled: true Nonlinearity correction enabled: false Boxcar width: 10 XAxis mode: Wavelengths Number of Pixels in Spectrum: 3648 >>>>>Begin Spectral Data<<<<<";
186,01;-1219,71
186,281;-4750
186,552;126,08
186,822;151,7
187,093;209,09
187,364;-19,5
187,635;2595,74
187,905;59,31
188,176;26,39
188,447;22,89
188,717;16,68
188,988;18,54
189,258;18,01
189,529;22,93
189,8;19,88
190,07;17,13
190,341;16,34
190,611;14,86
190,882;15,2
191,152;14,71
191,423;15,08
191,693;14,66
191,964;14,35
192,234;14,96
192,505;14,04
192,775;13,49
193,045;12,88
193,316;11,99
193,586;10,8
193,856;11,18
194,127;10,75
194,397;10,82
194,667;10,9
194,938;11,35
195,208;10,09
195,478;9,91
195,748;9,06
196,019;8,32
196,289;8,27
196,559;7,87
196,829;7,5
197,099;7,64
197,37;7,76
197,64;7,55
197,91;7,11
198,18;7,08
198,45;6,75
198,72;7,01
198,99;6,79
199,26;6,67
199,53;6,35
199,8;6,33
200,07;6,15
200,34;6,04
200,61;5,78
200,88;5,93
201,15;5,88
201,42;6,25
201,69;6,27
201,96;6,14
202,23;5,77
202,499;5,81
202,769;5,93
203,039;5,71
203,309;5,46
203,579;5,39
203,849;5,44
204,118;5,46
204,388;5,12
204,658;5,11
204,927;5,11
205,197;5,12
205,467;5,09
205,736;5,08
206,006;5,05
206,276;4,93
206,545;4,71
206,815;4,76
207,085;4,72
207,354;4,66
207,624;4,66
207,893;4,64
208,163;4,57
208,432;4,48
208,702;4,5
208,971;4,62
209,241;4,59
209,51;4,56
209,78;4,47
210,049;4,54
210,318;4,54
210,588;4,63
210,857;4,51
211,127;4,45
211,396;4,41
211,665;4,16
211,935;4,3
212,204;4,33
212,473;4,24
212,742;4,2
213,012;4,23
213,281;4,27
213,55;4,22
213,819;4,16
214,088;4,01
214,358;3,99
214,627;3,96
214,896;3,88
215,165;3,78
215,434;3,8
215,703;3,71
215,972;3,75
216,241;3,61
216,51;3,55
216,779;3,48
217,048;3,44
217,317;3,48
217,586;3,42
217,855;3,39
218,124;3,32
218,393;3,27
218,662;3,26
218,931;3,2
219,2;3,14
219,469;3,14
219,738;3,15
220,006;3,14
220,275;3,13
220,544;3,14
220,813;3,13
221,082;3,1
221,35;3,11
221,619;3,07
221,888;3,08
222,157;3,11
222,425;3,14
222,694;3,13
222,963;3,16
223,231;3,13
223,5;3,15
223,769;3,18
224,037;3,19
224,306;3,19
224,574;3,21
224,843;3,25
225,111;3,25
225,38;3,21
225,648;3,21
225,917;3,19
226,185;3,19
226,454;3,19
226,722;3,18
226,991;3,18
227,259;3,17
227,528;3,17
227,796;3,18
228,064;3,18
228,333;3,16
228,601;3,16
228,869;3,17
229,138;3,17
229,406;3,19
229,674;3,21
229,942;3,22
230,211;3,22
230,479;3,23
230,747;3,24
231,015;3,24
231,283;3,25
231,552;3,25
231,82;3,24
232,088;3,23
232,356;3,26
232,624;3,26
232,892;3,27
233,16;3,28
233,428;3,26
233,696;3,26
233,964;3,28
234,232;3,28
234,5;3,29
234,768;3,29
235,036;3,28
235,304;3,28
235,572;3,27
235,84;3,26
236,108;3,26
236,376;3,26
236,644;3,28
236,912;3,28
237,179;3,28
237,447;3,29
237,715;3,3
237,983;3,3
238,251;3,29
238,518;3,28
238,786;3,28
239,054;3,29
239,322;3,31
239,589;3,32
239,857;3,32
240,125;3,33
240,392;3,32
240,66;3,33
240,927;3,32
241,195;3,32
241,463;3,32
241,73;3,33
241,998;3,33
242,265;3,33
242,533;3,33
242,8;3,34
243,068;3,35
243,335;3,36
243,603;3,35
243,87;3,36
244,138;3,37
244,405;3,39
244,672;3,4
244,94;3,39
245,207;3,38
245,474;3,39
245,742;3,38
246,009;3,39
246,276;3,39
246,544;3,4
246,811;3,41
247,078;3,41
247,345;3,42
247,613;3,41
247,88;3,41
248,147;3,41
248,414;3,41
248,681;3,41
248,948;3,42
249,215;3,43
249,483;3,43
249,75;3,44
250,017;3,44
250,284;3,44
250,551;3,44
250,818;3,44
251,085;3,43
251,352;3,44
251,619;3,44
251,886;3,45
252,153;3,45
252,42;3,45
252,687;3,46
252,953;3,47
253,22;3,49
253,487;3,49
253,754;3,49
254,021;3,49
254,288;3,49
254,555;3,49
254,821;3,49
255,088;3,5
255,355;3,49
255,622;3,5
255,888;3,5
256,155;3,51
256,422;3,52
256,688;3,53
256,955;3,52
257,222;3,52
257,488;3,53
257,755;3,53
258,022;3,53
258,288;3,53
258,555;3,53
258,821;3,53
259,088;3,54
259,354;3,55
259,621;3,55
259,887;3,56
260,154;3,55
260,42;3,55
260,687;3,56
260,953;3,56
261,219;3,55
261,486;3,56
261,752;3,56
262,019;3,57
262,285;3,57
262,551;3,58
262,818;3,59
263,084;3,59
263,35;3,6
263,616;3,6
263,883;3,6
264,149;3,61
264,415;3,61
264,681;3,62
264,947;3,63
265,214;3,64
265,48;3,64
265,746;3,66
266,012;3,66
266,278;3,66
266,544;3,66
266,81;3,67
267,076;3,68
267,342;3,7
267,608;3,69
267,874;3,7
268,14;3,72
268,406;3,73
268,672;3,74
268,938;3,76
269,204;3,77
269,47;3,77
269,736;3,78
270,002;3,79
270,268;3,78
270,533;3,79
270,799;3,81
271,065;3,83
271,331;3,83
271,597;3,84
271,862;3,86
272,128;3,88
272,394;3,88
272,66;3,9
272,925;3,91
273,191;3,93
273,457;3,94
273,722;3,95
273,988;3,96
274,254;3,97
274,519;3,98
274,785;3,99
275,05;4,01
275,316;4,02
275,582;4,05
275,847;4,06
276,113;4,08
276,378;4,09
276,644;4,1
276,909;4,11
277,174;4,13
277,44;4,14
277,705;4,16
277,971;4,18
278,236;4,19
278,501;4,2
278,767;4,22
279,032;4,24
279,297;4,26
279,563;4,28
279,828;4,3
280,093;4,33
280,358;4,36
280,624;4,38
280,889;4,41
281,154;4,43
281,419;4,45
281,684;4,47
281,95;4,5
282,215;4,53
282,48;4,56
282,745;4,6
283,01;4,61
283,275;4,63
283,54;4,65
283,805;4,69
284,07;4,72
284,335;4,75
284,6;4,77
284,865;4,8
285,13;4,83
285,395;4,85
285,66;4,88
285,925;4,9
286,19;4,94
286,455;4,98
286,72;5,01
286,985;5,04
287,249;5,08
287,514;5,11
287,779;5,14
288,044;5,16
288,309;5,19
288,573;5,23
288,838;5,26
289,103;5,31
289,367;5,33
289,632;5,37
289,897;5,42
290,161;5,45
290,426;5,49
290,691;5,52
290,955;5,57
291,22;5,61
291,484;5,64
291,749;5,69
292,014;5,73
292,278;5,77
292,543;5,81
292,807;5,85
293,072;5,89
293,336;5,94
293,6;5,98
293,865;6,03
294,129;6,07
294,394;6,12
294,658;6,17
294,922;6,22
295,187;6,26
295,451;6,31
295,715;6,36
295,98;6,41
296,244;6,46
296,508;6,51
296,773;6,56
297,037;6,61
297,301;6,65
297,565;6,7
297,829;6,74
298,094;6,81
298,358;6,86
298,622;6,91
298,886;6,97
299,15;7,02
299,414;7,08
299,678;7,15
299,942;7,2
300,206;7,24
300,47;7,29
300,734;7,34
300,998;7,4
301,262;7,45
301,526;7,51
301,79;7,55
302,054;7,59
302,318;7,63
302,582;7,69
302,846;7,74
303,11;7,79
303,374;7,85
303,637;7,91
303,901;7,96
304,165;8
304,429;8,06
304,693;8,11
304,956;8,17
305,22;8,21
305,484;8,26
305,747;8,32
306,011;8,37
306,275;8,43
306,538;8,49
306,802;8,54
307,066;8,61
307,329;8,67
307,593;8,73
307,856;8,8
308,12;8,86
308,384;8,92
308,647;8,97
308,911;9,03
309,174;9,08
309,438;9,14
309,701;9,2
309,964;9,25
310,228;9,32
310,491;9,37
310,755;9,44
311,018;9,5
311,281;9,57
311,545;9,63
311,808;9,68
312,071;9,73
312,335;9,78
312,598;9,84
312,861;9,89
313,124;9,94
313,388;9,99
313,651;10,06
313,914;10,12
314,177;10,18
314,44;10,23
314,704;10,29
314,967;10,35
315,23;10,41
315,493;10,47
315,756;10,51
316,019;10,58
316,282;10,63
316,545;10,69
316,808;10,74
317,071;10,8
317,334;10,86
317,597;10,91
317,86;10,96
318,123;11,01
318,386;11,07
318,649;11,13
318,912;11,18
319,175;11,23
319,437;11,29
319,7;11,36
319,963;11,41
320,226;11,45
320,489;11,51
320,751;11,57
321,014;11,61
321,277;11,68
321,54;11,72
321,802;11,79
322,065;11,84
322,328;11,89
322,59;11,93
322,853;11,99
323,116;12,06
323,378;12,13
323,641;12,18
323,903;12,25
324,166;12,32
324,428;12,38
324,691;12,43
324,953;12,47
325,216;12,51
325,478;12,58
325,741;12,62
326,003;12,68
326,266;12,71
326,528;12,77
326,791;12,81
327,053;12,86
327,315;12,89
327,578;12,93
327,84;12,97
328,102;13,02
328,365;13,07
328,627;13,11
328,889;13,13
329,151;13,17
329,414;13,2
329,676;13,23
329,938;13,25
330,2;13,3
330,462;13,34
330,725;13,38
330,987;13,41
331,249;13,45
331,511;13,48
331,773;13,53
332,035;13,57
332,297;13,61
332,559;13,65
332,821;13,69
333,083;13,74
333,345;13,79
333,607;13,83
333,869;13,88
334,131;13,91
334,393;13,96
334,655;13,99
334,917;14,04
335,179;14,08
335,44;14,14
335,702;14,17
335,964;14,22
336,226;14,26
336,488;14,32
336,749;14,37
337,011;14,43
337,273;14,47
337,535;14,52
337,796;14,56
338,058;14,62
338,32;14,67
338,581;14,7
338,843;14,76
339,105;14,81
339,366;14,86
339,628;14,92
339,889;14,96
340,151;15,03
340,412;15,08
340,674;15,14
340,935;15,18
341,197;15,25
341,458;15,29
341,72;15,34
341,981;15,38
342,243;15,42
342,504;15,46
342,766;15,49
343,027;15,52
343,288;15,55
343,55;15,57
343,811;15,59
344,072;15,64
344,334;15,67
344,595;15,68
344,856;15,72
345,117;15,72
345,379;15,75
345,64;15,76
345,901;15,77
346,162;15,77
346,423;15,79
346,684;15,78
346,946;15,8
347,207;15,82
347,468;15,83
347,729;15,83
347,99;15,85
348,251;15,87
348,512;15,89
348,773;15,91
349,034;15,94
349,295;15,95
349,556;15,97
349,817;15,98
350,078;16,02
350,339;16,04
350,6;16,09
350,86;16,1
351,121;16,16
351,382;16,18
351,643;16,23
351,904;16,28
352,165;16,33
352,425;16,35
352,686;16,41
352,947;16,44
353,208;16,5
353,468;16,55
353,729;16,6
353,99;16,62
354,25;16,67
354,511;16,71
354,772;16,77
355,032;16,81
355,293;16,86
355,553;16,9
355,814;16,95
356,074;16,97
356,335;17,01
356,596;17,05
356,856;17,11
357,116;17,14
357,377;17,19
357,637;17,21
357,898;17,26
358,158;17,29
358,419;17,33
358,679;17,35
358,939;17,41
359,2;17,45
359,46;17,51
359,72;17,54
359,981;17,6
360,241;17,62
360,501;17,65
360,761;17,68
361,022;17,72
361,282;17,75
361,542;17,81
361,802;17,85
362,062;17,91
362,323;17,94
362,583;18
362,843;18,03
363,103;18,09
363,363;18,11
363,623;18,16
363,883;18,18
364,143;18,25
364,403;18,26
364,663;18,32
364,923;18,36
365,183;18,41
365,443;18,44
365,703;18,49
365,963;18,52
366,223;18,56
366,483;18,59
366,743;18,65
367,002;18,68
367,262;18,73
367,522;18,75
367,782;18,79
368,042;18,8
368,301;18,83
368,561;18,85
368,821;18,88
369,081;18,91
369,34;18,95
369,6;18,96
369,86;19,01
370,119;19,03
370,379;19,06
370,638;19,1
370,898;19,12
371,158;19,15
371,417;19,21
371,677;19,25
371,936;19,3
372,196;19,34
372,455;19,37
372,715;19,41
372,974;19,46
373,234;19,5
373,493;19,58
373,753;19,6
374,012;19,67
374,271;19,72
374,531;19,77
374,79;19,82
375,049;19,88
375,309;19,9
375,568;19,94
375,827;19,98
376,086;20,03
376,346;20,08
376,605;20,14
376,864;20,18
377,123;20,23
377,383;20,27
377,642;20,31
377,901;20,35
378,16;20,38
378,419;20,39
378,678;20,41
378,937;20,41
379,196;20,45
379,455;20,47
379,714;20,52
379,973;20,54
380,232;20,58
380,491;20,6
380,75;20,65
381,009;20,68
381,268;20,72
381,527;20,74
381,786;20,79
382,045;20,81
382,304;20,83
382,563;20,85
382,821;20,88
383,08;20,92
383,339;20,94
383,598;20,97
383,857;21,02
384,115;21,07
384,374;21,12
384,633;21,16
384,891;21,2
385,15;21,23
385,409;21,29
385,667;21,33
385,926;21,36
386,185;21,38
386,443;21,43
386,702;21,48
386,96;21,51
387,219;21,53
387,477;21,58
387,736;21,61
387,994;21,66
388,253;21,69
388,511;21,72
388,77;21,77
389,028;21,83
389,287;21,85
389,545;21,89
389,803;21,9
390,062;21,96
390,32;21,98
390,578;22,02
390,837;22,05
391,095;22,11
391,353;22,14
391,612;22,19
391,87;22,21
392,128;22,24
392,386;22,27
392,644;22,32
392,903;22,33
393,161;22,36
393,419;22,36
393,677;22,42
393,935;22,45
394,193;22,49
394,451;22,5
394,709;22,57
394,967;22,59
395,225;22,64
395,483;22,67
395,741;22,74
395,999;22,77
396,257;22,82
396,515;22,84
396,773;22,89
397,031;22,92
397,289;22,97
397,547;23
397,805;23,03
398,062;23,08
398,32;23,15
398,578;23,22
398,836;23,27
399,094;23,27
399,351;23,29
399,609;23,31
399,867;23,36
400,124;23,36
400,382;23,42
400,64;23,46
400,897;23,5
401,155;23,52
401,413;23,58
401,67;23,59
401,928;23,65
402,185;23,68
402,443;23,74
402,701;23,78
402,958;23,84
403,216;23,9
403,473;23,94
403,73;23,95
403,988;23,99
404,245;24,04
404,503;24,13
404,76;24,19
405,018;24,26
405,275;24,28
405,532;24,35
405,79;24,38
406,047;24,44
406,304;24,49
406,561;24,54
406,819;24,57
407,076;24,63
407,333;24,66
407,59;24,71
407,848;24,77
408,105;24,84
408,362;24,87
408,619;24,94
408,876;24,98
409,133;25,07
409,39;25,1
409,647;25,14
409,904;25,17
410,161;25,22
410,418;25,27
410,675;25,37
410,932;25,42
411,189;25,5
411,446;25,56
411,703;25,63
411,96;25,68
412,217;25,76
412,474;25,82
412,731;25,9
412,988;25,95
413,245;26,03
413,501;26,04
413,758;26,1
414,015;26,14
414,272;26,19
414,529;26,26
414,785;26,32
415,042;26,39
415,299;26,45
415,555;26,5
415,812;26,55
416,069;26,58
416,325;26,66
416,582;26,7
416,838;26,77
417,095;26,82
417,352;26,89
417,608;26,95
417,865;27,02
418,121;27,11
418,378;27,21
418,634;27,32
418,891;27,45
419,147;27,54
419,403;27,64
419,66;27,74
419,916;27,85
420,173;27,92
420,429;28,01
420,685;28,09
420,942;28,2
421,198;28,31
421,454;28,41
421,711;28,48
421,967;28,58
422,223;28,62
422,479;28,74
422,735;28,8
422,992;28,87
423,248;28,94
423,504;29
423,76;29,05
424,016;29,1
424,272;29,14
424,528;29,22
424,784;29,29
425,041;29,37
425,297;29,4
425,553;29,51
425,809;29,6
426,065;29,68
426,32;29,76
426,576;29,83
426,832;29,94
427,088;30,04
427,344;30,11
427,6;30,24
427,856;30,3
428,112;30,42
428,368;30,5
428,623;30,62
428,879;30,69
429,135;30,78
429,391;30,83
429,646;30,91
429,902;30,95
430,158;31,03
430,414;31,11
430,669;31,21
430,925;31,27
431,181;31,36
431,436;31,47
431,692;31,55
431,947;31,62
432,203;31,68
432,458;31,74
432,714;31,83
432,97;31,88
433,225;31,94
433,481;32,01
433,736;32,1
433,991;32,14
434,247;32,21
434,502;32,28
434,758;32,38
435,013;32,47
435,268;32,56
435,524;32,62
435,779;32,7
436,034;32,75
436,29;32,83
436,545;32,86
436,8;32,91
437,056;32,94
437,311;33,02
437,566;33,09
437,821;33,15
438,076;33,21
438,331;33,31
438,587;33,37
438,842;33,47
439,097;33,54
439,352;33,64
439,607;33,73
439,862;33,81
440,117;33,88
440,372;33,95
440,627;34,04
440,882;34,14
441,137;34,2
441,392;34,3
441,647;34,38
441,902;34,48
442,157;34,54
442,412;34,62
442,667;34,65
442,921;34,7
443,176;34,76
443,431;34,8
443,686;34,84
443,941;34,89
444,195;34,93
444,45;34,97
444,705;35,01
444,96;35,05
445,214;35,1
445,469;35,13
445,724;35,16
445,978;35,18
446,233;35,18
446,487;35,23
446,742;35,24
446,997;35,26
447,251;35,27
447,506;35,32
447,76;35,33
448,015;35,38
448,269;35,38
448,524;35,4
448,778;35,45
449,033;35,46
449,287;35,48
449,541;35,46
449,796;35,45
450,05;35,45
450,305;35,43
450,559;35,41
450,813;35,41
451,067;35,39
451,322;35,38
451,576;35,36
451,83;35,32
452,084;35,32
452,339;35,29
452,593;35,29
452,847;35,28
453,101;35,29
453,355;35,26
453,609;35,27
453,864;35,27
454,118;35,26
454,372;35,26
454,626;35,26
454,88;35,25
455,134;35,27
455,388;35,29
455,642;35,3
455,896;35,31
456,15;35,31
456,404;35,31
456,658;35,32
456,912;35,31
457,165;35,32
457,419;35,25
457,673;35,25
457,927;35,21
458,181;35,16
458,435;35,13
458,688;35,14
458,942;35,11
459,196;35,07
459,45;35,01
459,703;34,96
459,957;34,93
460,211;34,86
460,464;34,81
460,718;34,74
460,972;34,68
461,225;34,62
461,479;34,56
461,732;34,51
461,986;34,46
462,239;34,41
462,493;34,37
462,746;34,38
463;34,3
463,253;34,28
463,507;34,23
463,76;34,18
464,014;34,09
464,267;34,04
464,52;33,97
464,774;33,93
465,027;33,86
465,28;33,8
465,534;33,73
465,787;33,66
466,04;33,58
466,294;33,49
466,547;33,4
466,8;33,32
467,053;33,23
467,306;33,14
467,56;33,02
467,813;32,92
468,066;32,77
468,319;32,71
468,572;32,59
468,825;32,48
469,078;32,36
469,331;32,27
469,584;32,13
469,837;32,04
470,09;31,93
470,343;31,84
470,596;31,73
470,849;31,65
471,102;31,56
471,355;31,5
471,608;31,41
471,861;31,35
472,114;31,25
472,367;31,15
472,619;31,06
472,872;30,99
473,125;30,88
473,378;30,8
473,631;30,69
473,883;30,59
474,136;30,49
474,389;30,39
474,641;30,29
474,894;30,21
475,147;30,1
475,399;30
475,652;29,9
475,905;29,8
476,157;29,67
476,41;29,53
476,662;29,4
476,915;29,29
477,167;29,14
477,42;29,01
477,672;28,88
477,925;28,76
478,177;28,63
478,43;28,52
478,682;28,39
478,934;28,27
479,187;28,14
479,439;28,03
479,691;27,89
479,944;27,76
480,196;27,62
480,448;27,49
480,701;27,34
480,953;27,21
481,205;27,05
481,457;26,92
481,709;26,79
481,962;26,67
482,214;26,55
482,466;26,45
482,718;26,35
482,97;26,26
483,222;26,16
483,474;26,07
483,726;25,96
483,978;25,85
484,23;25,76
484,482;25,65
484,734;25,54
484,986;25,43
485,238;25,31
485,49;25,2
485,742;25,09
485,994;24,99
486,246;24,87
486,498;24,75
486,75;24,63
487,001;24,51
487,253;24,34
487,505;24,18
487,757;24,01
488,009;23,82
488,26;23,61
488,512;23,37
488,764;23,12
489,015;22,88
489,267;22,65
489,519;22,42
489,77;22,2
490,022;22
490,274;21,83
490,525;21,66
490,777;21,49
491,028;21,32
491,28;21,15
491,531;20,98
491,783;20,83
492,034;20,68
492,286;20,53
492,537;20,4
492,789;20,24
493,04;20,09
493,291;19,93
493,543;19,78
493,794;19,62
494,045;19,49
494,297;19,33
494,548;19,19
494,799;19,04
495,051;18,9
495,302;18,76
495,553;18,62
495,804;18,48
496,056;18,34
496,307;18,19
496,558;18,06
496,809;17,93
497,06;17,81
497,311;17,67
497,562;17,54
497,813;17,4
498,064;17,28
498,316;17,14
498,567;17
498,818;16,87
499,069;16,75
499,319;16,61
499,57;16,49
499,821;16,37
500,072;16,25
500,323;16,13
500,574;16,02
500,825;15,89
501,076;15,77
501,327;15,65
501,577;15,55
501,828;15,42
502,079;15,31
502,33;15,19
502,58;15,08
502,831;14,96
503,082;14,85
503,333;14,73
503,583;14,62
503,834;14,51
504,084;14,41
504,335;14,3
504,586;14,19
504,836;14,08
505,087;13,97
505,337;13,86
505,588;13,74
505,838;13,64
506,089;13,54
506,339;13,44
506,59;13,35
506,84;13,24
507,091;13,14
507,341;13,02
507,591;12,93
507,842;12,8
508,092;12,7
508,343;12,59
508,593;12,49
508,843;12,4
509,093;12,32
509,344;12,22
509,594;12,12
509,844;12,02
510,094;11,93
510,345;11,84
510,595;11,75
510,845;11,65
511,095;11,57
511,345;11,48
511,595;11,39
511,845;11,28
512,095;11,21
512,345;11,13
512,595;11,06
512,845;10,99
513,095;10,92
513,345;10,85
513,595;10,78
513,845;10,7
514,095;10,63
514,345;10,54
514,595;10,47
514,845;10,38
515,095;10,31
515,345;10,24
515,594;10,18
515,844;10,1
516,094;10,04
516,344;9,96
516,593;9,89
516,843;9,8
517,093;9,75
517,343;9,67
517,592;9,6
517,842;9,53
518,092;9,46
518,341;9,39
518,591;9,33
518,84;9,27
519,09;9,21
519,34;9,14
519,589;9,08
519,839;9,03
520,088;8,98
520,338;8,93
520,587;8,88
520,836;8,81
521,086;8,76
521,335;8,7
521,585;8,64
521,834;8,6
522,083;8,55
522,333;8,49
522,582;8,43
522,831;8,38
523,081;8,33
523,33;8,28
523,579;8,24
523,828;8,19
524,078;8,14
524,327;8,09
524,576;8,04
524,825;7,99
525,074;7,94
525,323;7,89
525,573;7,85
525,822;7,8
526,071;7,75
526,32;7,7
526,569;7,67
526,818;7,64
527,067;7,59
527,316;7,54
527,565;7,51
527,814;7,47
528,063;7,44
528,312;7,4
528,56;7,36
528,809;7,31
529,058;7,26
529,307;7,22
529,556;7,18
529,805;7,15
530,053;7,12
530,302;7,08
530,551;7,04
530,8;7
531,048;6,97
531,297;6,94
531,546;6,9
531,794;6,87
532,043;6,84
532,292;6,8
532,54;6,78
532,789;6,75
533,037;6,73
533,286;6,7
533,535;6,68
533,783;6,64
534,032;6,63
534,28;6,6
534,528;6,58
534,777;6,54
535,025;6,51
535,274;6,49
535,522;6,46
535,771;6,44
536,019;6,42
536,267;6,38
536,516;6,35
536,764;6,33
537,012;6,31
537,26;6,29
537,509;6,27
537,757;6,23
538,005;6,21
538,253;6,19
538,501;6,16
538,75;6,13
538,998;6,12
539,246;6,09
539,494;6,07
539,742;6,05
539,99;6,02
540,238;6
540,486;5,97
540,734;5,95
540,982;5,92
541,23;5,9
541,478;5,9
541,726;5,88
541,974;5,85
542,222;5,82
542,47;5,8
542,718;5,79
542,966;5,76
543,213;5,73
543,461;5,71
543,709;5,69
543,957;5,68
544,205;5,66
544,452;5,63
544,7;5,61
544,948;5,59
545,196;5,58
545,443;5,56
545,691;5,54
545,939;5,52
546,186;5,5
546,434;5,49
546,681;5,46
546,929;5,45
547,176;5,43
547,424;5,43
547,671;5,4
547,919;5,39
548,166;5,38
548,414;5,37
548,661;5,36
548,909;5,35
549,156;5,32
549,404;5,31
549,651;5,3
549,898;5,29
550,146;5,28
550,393;5,27
550,64;5,27
550,888;5,26
551,135;5,25
551,382;5,24
551,629;5,23
551,876;5,22
552,124;5,21
552,371;5,2
552,618;5,19
552,865;5,19
553,112;5,17
553,359;5,16
553,606;5,15
553,854;5,13
554,101;5,12
554,348;5,1
554,595;5,09
554,842;5,07
555,089;5,05
555,336;5,03
555,582;5,02
555,829;5,01
556,076;4,99
556,323;4,97
556,57;4,96
556,817;4,95
557,064;4,93
557,311;4,92
557,557;4,9
557,804;4,89
558,051;4,86
558,298;4,86
558,544;4,85
558,791;4,83
559,038;4,82
559,284;4,8
559,531;4,8
559,778;4,8
560,024;4,79
560,271;4,78
560,517;4,78
560,764;4,76
561,011;4,76
561,257;4,76
561,504;4,75
561,75;4,75
561,997;4,74
562,243;4,73
562,489;4,73
562,736;4,72
562,982;4,72
563,229;4,71
563,475;4,7
563,721;4,69
563,968;4,69
564,214;4,69
564,46;4,68
564,707;4,67
564,953;4,66
565,199;4,66
565,445;4,65
565,691;4,66
565,938;4,64
566,184;4,64
566,43;4,63
566,676;4,63
566,922;4,63
567,168;4,63
567,414;4,63
567,66;4,64
567,906;4,64
568,152;4,64
568,398;4,65
568,644;4,66
568,89;4,67
569,136;4,67
569,382;4,67
569,628;4,68
569,874;4,67
570,12;4,68
570,366;4,68
570,612;4,69
570,857;4,69
571,103;4,71
571,349;4,7
571,595;4,72
571,84;4,72
572,086;4,74
572,332;4,74
572,578;4,74
572,823;4,74
573,069;4,74
573,315;4,74
573,56;4,74
573,806;4,74
574,051;4,75
574,297;4,75
574,542;4,76
574,788;4,77
575,034;4,78
575,279;4,78
575,524;4,79
575,77;4,79
576,015;4,79
576,261;4,79
576,506;4,79
576,752;4,78
576,997;4,77
577,242;4,76
577,488;4,76
577,733;4,75
577,978;4,75
578,223;4,75
578,469;4,76
578,714;4,76
578,959;4,77
579,204;4,77
579,45;4,77
579,695;4,77
579,94;4,77
580,185;4,76
580,43;4,76
580,675;4,76
580,92;4,75
581,165;4,74
581,41;4,74
581,655;4,74
581,9;4,73
582,145;4,74
582,39;4,74
582,635;4,73
582,88;4,73
583,125;4,72
583,37;4,72
583,615;4,7
583,86;4,69
584,105;4,67
584,349;4,66
584,594;4,64
584,839;4,63
585,084;4,62
585,328;4,62
585,573;4,61
585,818;4,59
586,063;4,59
586,307;4,58
586,552;4,57
586,797;4,56
587,041;4,55
587,286;4,54
587,53;4,53
587,775;4,52
588,019;4,51
588,264;4,5
588,508;4,49
588,753;4,48
588,997;4,47
589,242;4,46
589,486;4,45
589,731;4,44
589,975;4,43
590,22;4,43
590,464;4,42
590,708;4,42
590,953;4,42
591,197;4,42
591,441;4,42
591,685;4,42
591,93;4,41
592,174;4,41
592,418;4,41
592,662;4,41
592,907;4,42
593,151;4,42
593,395;4,41
593,639;4,41
593,883;4,41
594,127;4,42
594,371;4,41
594,615;4,41
594,859;4,41
595,103;4,41
595,347;4,4
595,591;4,39
595,835;4,39
596,079;4,39
596,323;4,38
596,567;4,38
596,811;4,37
597,055;4,38
597,299;4,37
597,542;4,37
597,786;4,37
598,03;4,37
598,274;4,37
598,518;4,38
598,761;4,38
599,005;4,38
599,249;4,38
599,492;4,37
599,736;4,37
599,98;4,38
600,223;4,38
600,467;4,39
600,711;4,38
600,954;4,38
601,198;4,38
601,441;4,38
601,685;4,38
601,928;4,38
602,172;4,38
602,415;4,38
602,659;4,38
602,902;4,37
603,145;4,37
603,389;4,37
603,632;4,36
603,876;4,36
604,119;4,36
604,362;4,36
604,606;4,37
604,849;4,36
605,092;4,35
605,335;4,35
605,579;4,34
605,822;4,34
606,065;4,33
606,308;4,33
606,551;4,33
606,794;4,33
607,037;4,32
607,281;4,33
607,524;4,32
607,767;4,31
608,01;4,31
608,253;4,31
608,496;4,31
608,739;4,31
608,982;4,31
609,225;4,32
609,468;4,31
609,711;4,31
609,953;4,3
610,196;4,31
610,439;4,31
610,682;4,31
610,925;4,32
611,168;4,32
611,41;4,31
611,653;4,32
611,896;4,32
612,139;4,32
612,381;4,32
612,624;4,33
612,867;4,33
613,109;4,33
613,352;4,33
613,595;4,33
613,837;4,32
614,08;4,33
614,322;4,32
614,565;4,33
614,807;4,33
615,05;4,33
615,292;4,33
615,535;4,34
615,777;4,33
616,02;4,34
616,262;4,34
616,505;4,35
616,747;4,36
616,989;4,36
617,232;4,36
617,474;4,37
617,716;4,37
617,959;4,37
618,201;4,38
618,443;4,38
618,685;4,38
618,927;4,4
619,17;4,4
619,412;4,41
619,654;4,41
619,896;4,41
620,138;4,42
620,38;4,43
620,622;4,43
620,864;4,45
621,107;4,45
621,349;4,45
621,591;4,46
621,833;4,46
622,075;4,46
622,316;4,47
622,558;4,47
622,8;4,48
623,042;4,48
623,284;4,49
623,526;4,49
623,768;4,5
624,01;4,5
624,251;4,5
624,493;4,5
624,735;4,5
624,977;4,5
625,218;4,51
625,46;4,5
625,702;4,51
625,943;4,5
626,185;4,51
626,427;4,51
626,668;4,51
626,91;4,51
627,152;4,51
627,393;4,51
627,635;4,51
627,876;4,51
628,118;4,51
628,359;4,52
628,601;4,53
628,842;4,53
629,084;4,53
629,325;4,53
629,566;4,54
629,808;4,55
630,049;4,55
630,29;4,55
630,532;4,55
630,773;4,55
631,014;4,57
631,256;4,56
631,497;4,56
631,738;4,57
631,979;4,57
632,22;4,57
632,462;4,58
632,703;4,58
632,944;4,59
633,185;4,59
633,426;4,59
633,667;4,6
633,908;4,6
634,149;4,61
634,39;4,61
634,631;4,62
634,872;4,62
635,113;4,63
635,354;4,64
635,595;4,65
635,836;4,65
636,077;4,65
636,318;4,66
636,559;4,66
636,8;4,66
637,04;4,67
637,281;4,68
637,522;4,69
637,763;4,69
638,003;4,69
638,244;4,71
638,485;4,71
638,726;4,71
638,966;4,71
639,207;4,72
639,448;4,73
639,688;4,74
639,929;4,74
640,169;4,75
640,41;4,75
640,65;4,76
640,891;4,76
641,131;4,77
641,372;4,78
641,612;4,79
641,853;4,79
642,093;4,79
642,334;4,8
642,574;4,8
642,814;4,81
643,055;4,82
643,295;4,82
643,535;4,83
643,776;4,84
644,016;4,86
644,256;4,86
644,496;4,87
644,737;4,88
644,977;4,89
645,217;4,89
645,457;4,9
645,697;4,91
645,938;4,92
646,178;4,94
646,418;4,96
646,658;4,97
646,898;4,99
647,138;5
647,378;5,01
647,618;5,03
647,858;5,05
648,098;5,06
648,338;5,08
648,578;5,09
648,818;5,1
649,057;5,11
649,297;5,13
649,537;5,14
649,777;5,15
650,017;5,17
650,257;5,18
650,496;5,19
650,736;5,2
650,976;5,2
661,267;5,93
661,506;5,93
661,744;5,95
661,983;5,96
662,222;5,98
662,461;5,99
662,7;6
662,939;6,02
663,177;6,04
663,416;6,06
663,655;6,09
663,894;6,11
664,132;6,14
664,371;6,15
664,61;6,18
664,848;6,19
665,087;6,2
665,326;6,22
665,564;6,24
665,803;6,27
666,041;6,3
666,28;6,31
666,518;6,33
666,757;6,36
666,995;6,39
667,234;6,42
667,472;6,45
667,711;6,48
667,949;6,5
668,187;6,53
668,426;6,57
668,664;6,6
668,902;6,61
669,141;6,64
669,379;6,66
669,617;6,7
669,856;6,73
670,094;6,77
670,332;6,81
670,57;6,85
670,808;6,86
671,046;6,89
671,285;6,92
671,523;6,95
671,761;6,97
671,999;6,99
672,237;7,02
672,475;7,06
672,713;7,07
672,951;7,1
673,189;7,12
673,427;7,15
673,665;7,18
673,903;7,22
674,141;7,25
674,379;7,28
674,617;7,3
674,854;7,34
675,092;7,36
675,33;7,4
675,568;7,43
675,806;7,47
676,043;7,5
676,281;7,54
676,519;7,58
676,756;7,62
676,994;7,66
677,232;7,69
677,469;7,73
677,707;7,77
677,945;7,82
678,182;7,87
678,42;7,91
678,657;7,95
678,895;7,99
679,132;8,04
679,37;8,09
679,607;8,14
679,845;8,17
680,082;8,22
680,32;8,25
680,557;8,3
680,794;8,35
681,032;8,4
681,269;8,45
681,507;8,5
681,744;8,54
681,981;8,59
682,218;8,65
682,456;8,7
682,693;8,76
682,93;8,8
683,167;8,83
683,404;8,88
683,642;8,93
683,879;8,98
684,116;9,04
684,353;9,09
684,59;9,13
684,827;9,18
685,064;9,23
685,301;9,29
685,538;9,34
685,775;9,39
686,012;9,44
686,249;9,49
686,486;9,53
686,723;9,59
686,96;9,64
687,197;9,69
687,433;9,74
687,67;9,79
687,907;9,86
688,144;9,92
688,381;9,98
688,617;10,04
688,854;10,08
689,091;10,13
689,327;10,19
689,564;10,25
689,801;10,32
690,037;10,38
690,274;10,44
690,511;10,5
690,747;10,56
690,984;10,63
691,22;10,68
691,457;10,76
691,693;10,83
691,93;10,89
692,166;10,95
692,403;11,01
692,639;11,07
692,876;11,13
693,112;11,19
693,348;11,25
693,585;11,33
693,821;11,41
694,057;11,48
694,294;11,56
694,53;11,63
694,766;11,7
695,002;11,77
695,239;11,84
695,475;11,91
695,711;11,99
695,947;12,06
696,183;12,14
696,419;12,21
696,656;12,28
696,892;12,36
697,128;12,44
697,364;12,53
697,6;12,6
697,836;12,68
698,072;12,78
698,308;12,85
698,544;12,93
698,78;12,98
699,016;13,06
699,251;13,12
699,487;13,21
699,723;13,28
699,959;13,36
700,195;13,47
700,431;13,55
700,666;13,63
700,902;13,73
701,138;13,81
701,374;13,91
701,609;14
701,845;14,08
702,081;14,16
702,316;14,24
702,552;14,32
702,788;14,41
703,023;14,47
703,259;14,57
703,494;14,65
703,73;14,76
703,965;14,84
704,201;14,94
704,436;15,04
704,672;15,14
704,907;15,24
705,143;15,32
705,378;15,4
705,613;15,5
705,849;15,59
706,084;15,69
706,319;15,78
706,555;15,87
706,79;15,96
707,025;16,06
707,26;16,17
707,496;16,28
707,731;16,37
707,966;16,49
708,201;16,59
708,436;16,69
708,671;16,78
708,907;16,88
709,142;16,97
709,377;17,07
709,612;17,17
709,847;17,25
710,082;17,36
710,317;17,47
710,552;17,57
710,787;17,67
711,022;17,76
711,257;17,85
711,492;17,95
711,726;18,06
711,961;18,16
712,196;18,26
712,431;18,35
712,666;18,45
712,901;18,53
713,135;18,64
713,37;18,76
713,605;18,87
713,839;18,97
714,074;19,07
714,309;19,17
714,543;19,26
714,778;19,38
715,013;19,49
715,247;19,59
715,482;19,7
715,716;19,81
715,951;19,93
716,185;20,04
716,42;20,15
716,654;20,27
716,889;20,38
717,123;20,47
717,358;20,59
717,592;20,7
717,827;20,82
718,061;20,92
718,295;21,01
718,53;21,13
718,764;21,25
718,998;21,38
719,232;21,48
719,467;21,6
719,701;21,69
719,935;21,79
720,169;21,9
720,403;21,99
720,638;22,1
720,872;22,19
721,106;22,31
721,34;22,41
721,574;22,51
721,808;22,63
722,042;22,75
722,276;22,85
722,51;22,98
722,744;23,08
722,978;23,23
723,212;23,34
723,446;23,45
723,68;23,56
723,914;23,66
724,147;23,77
724,381;23,9
724,615;24,02
724,849;24,13
725,083;24,24
725,316;24,37
725,55;24,48
725,784;24,62
726,018;24,75
726,251;24,87
726,485;25,01
726,719;25,14
726,952;25,26
727,186;25,38
727,419;25,49
727,653;25,63
727,887;25,72
728,12;25,85
728,354;25,97
728,587;26,1
728,821;26,23
729,054;26,35
729,287;26,47
729,521;26,59
729,754;26,72
729,988;26,84
730,221;26,96
730,454;27,09
730,688;27,2
730,921;27,3
731,154;27,41
731,387;27,52
731,621;27,64
731,854;27,75
732,087;27,87
732,32;27,97
732,553;28,08
732,787;28,19
733,02;28,29
733,253;28,42
733,486;28,52
733,719;28,63
733,952;28,73
734,185;28,84
734,418;28,94
734,651;29,05
734,884;29,14
735,117;29,23
735,35;29,31
735,583;29,41
735,816;29,5
736,049;29,61
736,281;29,68
736,514;29,77
736,747;29,87
736,98;29,97
737,213;30,06
737,445;30,14
737,678;30,23
737,911;30,31
738,144;30,37
738,376;30,46
738,609;30,52
738,842;30,6
739,074;30,67
739,307;30,75
739,539;30,81
739,772;30,9
740,004;30,99
740,237;31,06
740,469;31,14
740,702;31,22
740,934;31,3
741,167;31,39
741,399;31,47
741,632;31,54
741,864;31,61
742,096;31,7
742,329;31,78
742,561;31,85
742,793;31,92
743,026;32,01
743,258;32,1
743,49;32,2
743,723;32,27
743,955;32,35
744,187;32,41
744,419;32,51
744,651;32,57
744,883;32,63
745,115;32,72
745,348;32,79
745,58;32,86
745,812;32,92
746,044;32,99
746,276;33,06
746,508;33,12
746,74;33,18
746,972;33,23
747,204;33,33
747,436;33,39
747,667;33,48
747,899;33,54
748,131;33,61
748,363;33,65
748,595;33,72
748,827;33,8
749,058;33,87
749,29;33,94
749,522;34,03
749,754;34,09
749,985;34,16
750,217;34,22
750,449;34,28
750,68;34,33
750,912;34,41
751,144;34,48
751,375;34,56
751,607;34,62
751,838;34,71
752,07;34,75
752,301;34,82
752,533;34,86
752,764;34,93
752,996;34,98
753,227;35,04
753,459;35,1
753,69;35,17
753,921;35,25
754,153;35,3
754,384;35,36
754,615;35,45
754,847;35,51
755,078;35,59
755,309;35,64
755,54;35,71
755,772;35,73
756,003;35,8
756,234;35,84
756,465;35,89
756,696;35,93
756,927;35,99
757,159;36,04
757,39;36,1
757,621;36,18
757,852;36,21
758,083;36,27
758,314;36,32
758,545;36,36
758,776;36,41
759,007;36,45
759,238;36,48
759,469;36,5
759,699;36,56
759,93;36,59
760,161;36,65
760,392;36,7
760,623;36,74
760,854;36,77
761,084;36,82
761,315;36,86
761,546;36,89
761,776;36,93
762,007;36,97
762,238;37,01
762,468;37,04
762,699;37,08
762,93;37,13
763,16;37,17
763,391;37,2
763,621;37,22
763,852;37,25
764,083;37,28
764,313;37,31
764,543;37,32
764,774;37,34
765,004;37,35
765,235;37,37
765,465;37,4
765,696;37,44
765,926;37,49
766,156;37,51
766,387;37,57
766,617;37,61
766,847;37,64
767,077;37,66
767,308;37,68
767,538;37,73
767,768;37,74
767,998;37,77
768,228;37,8
768,459;37,84
768,689;37,87
768,919;37,93
769,149;37,96
769,379;37,99
769,609;38,01
769,839;38,07
770,069;38,11
770,299;38,15
770,529;38,16
770,759;38,18
770,989;38,21
771,219;38,21
771,449;38,23
771,678;38,25
771,908;38,27
772,138;38,3
772,368;38,3
772,598;38,31
772,827;38,33
773,057;38,34
773,287;38,37
773,517;38,37
773,746;38,34
773,976;38,36
774,206;38,39
774,435;38,41
774,665;38,4
774,894;38,41
775,124;38,42
775,354;38,43
775,583;38,45
775,813;38,47
776,042;38,48
776,272;38,5
776,501;38,53
776,73;38,56
776,96;38,57
777,189;38,57
777,419;38,62
777,648;38,64
777,877;38,67
778,107;38,68
778,336;38,73
778,565;38,76
778,794;38,79
779,024;38,79
779,253;38,79
779,482;38,83
779,711;38,84
779,94;38,87
780,17;38,87
780,399;38,89
780,628;38,91
780,857;38,94
781,086;38,94
781,315;38,94
781,544;38,95
781,773;38,97
782,002;39
782,231;39,01
782,46;39,01
782,689;39,03
782,918;39,06
783,147;39,07
783,375;39,09
783,604;39,08
783,833;39,11
784,062;39,13
784,291;39,15
784,519;39,16
784,748;39,16
784,977;39,19
785,206;39,17
785,434;39,19
785,663;39,19
785,892;39,23
786,12;39,25
786,349;39,26
786,577;39,25
786,806;39,25
787,034;39,25
787,263;39,27
787,492;39,27
787,72;39,24
787,948;39,23
788,177;39,22
788,405;39,23
788,634;39,21
788,862;39,22
789,09;39,21
789,319;39,21
789,547;39,23
789,775;39,24
790,004;39,27
790,232;39,24
790,46;39,23
790,688;39,22
790,917;39,23
791,145;39,21
791,373;39,22
791,601;39,22
791,829;39,22
792,057;39,22
792,286;39,22
792,514;39,25
792,742;39,27
792,97;39,33
793,198;39,34
793,426;39,36
793,654;39,36
793,882;39,35
794,109;39,34
794,337;39,35
794,565;39,35
794,793;39,36
795,021;39,4
795,249;39,41
795,477;39,41
795,704;39,41
795,932;39,43
796,16;39,45
796,388;39,47
796,615;39,47
796,843;39,49
797,071;39,5
797,298;39,49
797,526;39,47
797,754;39,45
797,981;39,46
798,209;39,45
798,436;39,45
798,664;39,48
798,891;39,49
799,119;39,49
799,346;39,49
799,574;39,46
799,801;39,45
800,029;39,46
800,256;39,49
800,483;39,49
800,711;39,49
800,938;39,47
801,165;39,49
801,393;39,49
801,62;39,51
801,847;39,5
802,074;39,5
802,302;39,53
802,529;39,54
802,756;39,53
802,983;39,56
803,21;39,55
803,437;39,56
803,665;39,57
803,892;39,59
804,119;39,6
804,346;39,63
804,573;39,67
804,8;39,69
805,027;39,66
805,254;39,7
805,481;39,71
805,708;39,74
805,934;39,72
806,161;39,75
806,388;39,73
806,615;39,75
806,842;39,77
807,069;39,76
807,295;39,77
807,522;39,79
807,749;39,8
807,976;39,83
808,202;39,82
808,429;39,79
808,656;39,77
808,882;39,76
809,109;39,77
809,335;39,74
809,562;39,73
809,789;39,78
810,015;39,74
810,242;39,75
810,468;39,7
810,695;39,7
810,921;39,71
811,147;39,77
811,374;39,79
811,6;39,78
811,827;39,8
812,053;39,79
812,279;39,78
812,506;39,79
812,732;39,8
812,958;39,8
813,185;39,85
813,411;39,85
813,637;39,86
813,863;39,84
814,089;39,88
814,315;39,87
814,542;39,86
814,768;39,86
814,994;39,85
815,22;39,89
815,446;39,91
815,672;39,91
815,898;39,88
816,124;39,84
816,35;39,82
816,576;39,81
816,802;39,81
817,028;39,81
817,254;39,8
817,48;39,81
817,705;39,82
817,931;39,79
818,157;39,81
818,383;39,79
818,609;39,78
818,834;39,78
819,06;39,78
819,286;39,77
819,512;39,79
819,737;39,8
819,963;39,79
820,189;39,79
820,414;39,76
820,64;39,73
820,865;39,75
821,091;39,79
821,316;39,74
821,542;39,72
821,767;39,75
821,993;39,75
822,218;39,69
822,444;39,72
822,669;39,75
822,895;39,75
823,12;39,75
823,345;39,76
823,571;39,73
823,796;39,74
824,021;39,72
824,247;39,7
824,472;39,72
824,697;39,72
824,922;39,71
825,147;39,73
825,373;39,75
825,598;39,78
825,823;39,76
826,048;39,82
826,273;39,85
826,498;39,85
826,723;39,82
826,948;39,86
827,173;39,81
827,398;39,77
827,623;39,78
827,848;39,79
828,073;39,78
828,298;39,82
828,523;39,84
828,748;39,83
828,973;39,86
829,197;39,83
829,422;39,84
829,647;39,86
829,872;39,85
830,097;39,83
830,321;39,83
830,546;39,85
830,771;39,86
830,995;39,86
831,22;39,83
831,445;39,88
831,669;39,89
831,894;39,93
832,118;39,97
832,343;40,02
832,567;40,04
832,792;40,07
833,016;40,05
833,241;40,04
833,465;40,06
833,69;40,05
833,914;40,04
834,139;40,05
834,363;40,03
834,587;40,05
834,812;40,08
835,036;40,07
835,26;40,09
835,485;40,07
835,709;40,07
835,933;40,07
836,157;40,03
836,381;40,05
836,606;40,04
836,83;40
837,054;39,95
837,278;39,96
837,502;39,96
837,726;39,95
837,95;39,95
838,174;39,95
838,398;39,93
838,622;39,95
838,846;39,95
839,07;39,95
839,294;39,96
839,518;39,97
839,742;39,98
839,966;40
840,189;40
840,413;39,97
840,637;39,99
840,861;40,04
841,085;40,01
841,308;40,01
841,532;40,04
841,756;40,05
841,979;40,01
842,203;40,04
842,427;40,06
842,65;40,08
842,874;40,08
843,098;40,13
843,321;40,13
843,545;40,15
843,768;40,19
843,992;40,16
844,215;40,12
844,439;40,11
844,662;40,08
844,886;40,1
845,109;40,1
845,332;40,1
845,556;40,04
845,779;40,06
846,002;40,04
846,226;40,02
846,449;40,02
846,672;40,07
846,895;40,03
847,119;40
847,342;39,97
847,565;40,02
847,788;40,01
848,011;40,03
848,234;40,03
848,457;40,02
848,681;40,03
848,904;40,06
849,127;40,08
849,35;40,04
849,573;40,06
849,796;40,11
850,019;40,11
850,241;40,17
850,464;40,2
850,687;40,23
850,91;40,26
851,133;40,29
851,356;40,34
851,579;40,41
851,801;40,43
852,024;40,51
852,247;40,49
852,47;40,54
852,692;40,51
852,915;40,52
853,138;40,49
853,36;40,5
853,583;40,54
853,806;40,55
854,028;40,58
854,251;40,55
854,473;40,55
854,696;40,57
854,918;40,57
855,141;40,56
855,363;40,56
855,586;40,52
855,808;40,51
856,031;40,45
856,253;40,4
856,475;40,42
856,698;40,32
856,92;40,28
857,142;40,21
857,365;40,25
857,587;40,23
857,809;40,28
858,031;40,26
858,253;40,26
858,476;40,26
858,698;40,27
858,92;40,3
859,142;40,31
859,364;40,34
859,586;40,34
859,808;40,36
860,03;40,38
860,252;40,42
860,474;40,43
860,696;40,45
860,918;40,43
861,14;40,47
861,362;40,54
861,584;40,6
861,806;40,64
862,028;40,64
862,25;40,69
862,471;40,73
862,693;40,72
862,915;40,74
863,137;40,71
863,358;40,75
863,58;40,75
863,802;40,74
864,024;40,71
864,245;40,69
864,467;40,71
864,688;40,72
864,91;40,74
865,132;40,75
865,353;40,75
865,575;40,82
865,796;40,77
866,018;40,76
866,239;40,77
866,461;40,79
866,682;40,77
866,903;40,75
867,125;40,72
867,346;40,74
867,567;40,69
867,789;40,7
868,01;40,69
868,231;40,71
868,453;40,69
868,674;40,7
868,895;40,74
869,116;40,72
869,337;40,72
869,559;40,74
869,78;40,7
870,001;40,7
870,222;40,69
870,443;40,67
870,664;40,68
870,885;40,69
871,106;40,7
871,327;40,75
871,548;40,7
871,769;40,64
871,99;40,68
872,211;40,73
872,432;40,73
872,653;40,68
872,874;40,68
873,094;40,73
873,315;40,74
873,536;40,67
873,757;40,64
873,978;40,66
874,198;40,64
874,419;40,63
874,64;40,63
874,86;40,62
875,081;40,67
875,302;40,68
875,522;40,66
875,743;40,66
875,963;40,65
876,184;40,69
876,404;40,76
876,625;40,69
876,845;40,65
877,066;40,7
877,286;40,75
877,507;40,79
877,727;40,76
877,947;40,75
878,168;40,86
878,388;40,9
878,609;40,85
878,829;40,85
879,049;40,88
879,269;40,92
879,49;40,9
879,71;40,92
879,93;40,89
880,15;40,9
880,37;40,94
880,59;40,96
880,811;40,97
881,031;40,99
881,251;41,06
881,471;41,12
881,691;41,19
881,911;41,17
882,131;41,14
882,351;41,17
882,571;41,18
882,791;41,15
883,011;41,11
883,23;41,2
883,45;41,26
883,67;41,31
883,89;41,28
884,11;41,31
884,33;41,31
884,549;41,36
884,769;41,4
884,989;41,34
885,209;41,33
885,428;41,34
885,648;41,3
885,868;41,35
886,087;41,36
886,307;41,29
886,526;41,29
886,746;41,29
886,965;41,25
887,185;41,3
887,404;41,33
887,624;41,4
887,843;41,37
888,063;41,36
888,282;41,36
888,502;41,37
888,721;41,37
888,94;41,4
889,16;41,42
889,379;41,44
889,598;41,54
889,818;41,58
890,037;41,61
890,256;41,64
890,475;41,61
890,694;41,65
890,914;41,67
891,133;41,7
891,352;41,76
891,571;41,84
891,79;41,89
892,009;41,84
892,228;41,81
892,447;41,8
892,666;41,77
892,885;41,79
893,104;41,8
893,323;41,81
893,542;41,78
893,761;41,75
893,98;41,72
894,199;41,63
894,417;41,62
894,636;41,64
894,855;41,65
895,074;41,65
895,293;41,64
895,511;41,68
895,73;41,71
895,949;41,72
896,167;41,67
896,386;41,67
896,605;41,7
896,823;41,79
897,042;41,81
897,26;41,88
897,479;41,91
897,697;41,92
897,916;41,96
898,134;41,94
898,353;41,91
898,571;41,98
898,79;42,08
899,008;42,12
899,227;42,09
899,445;42,13
899,663;42,19
899,882;42,16
900,1;42,17
900,318;42,16
900,536;42,24
900,755;42,29
900,973;42,27
901,191;42,27
901,409;42,26
901,627;42,32
901,846;42,34
902,064;42,29
902,282;42,29
902,5;42,31
902,718;42,41
902,936;42,52
903,154;42,5
903,372;42,47
903,59;42,52
903,808;42,56
904,026;42,58
904,244;42,54
904,462;42,57
904,679;42,58
904,897;42,62
905,115;42,56
905,333;42,54
905,551;42,55
905,768;42,58
905,986;42,59
906,204;42,56
906,422;42,59
906,639;42,64
906,857;42,69
907,074;42,71
907,292;42,65
907,51;42,64
907,727;42,66
907,945;42,68
908,162;42,65
908,38;42,65
908,597;42,65
908,815;42,68
909,032;42,82
909,25;42,86
909,467;42,9
909,684;42,91
909,902;42,97
910,119;43,03
910,337;43,07
910,554;43,1
910,771;43,12
910,988;43,16
911,206;43,12
911,423;43,23
911,64;43,28
911,857;43,33
912,074;43,39
912,291;43,42
912,509;43,43
912,726;43,43
912,943;43,48
913,16;43,49
913,377;43,56
913,594;43,46
913,811;43,45
914,028;43,47
914,245;43,48
914,462;43,46
914,679;43,47
914,896;43,54
915,112;43,55
915,329;43,58
915,546;43,59
915,763;43,7
915,98;43,62
916,196;43,58
916,413;43,58
916,63;43,53
916,847;43,56
917,063;43,61
917,28;43,64
917,497;43,63
917,713;43,62
917,93;43,68
918,146;43,69
918,363;43,75
918,579;43,76
918,796;43,77
919,012;43,83
919,229;43,81
919,445;43,78
919,662;43,84
919,878;43,9
920,095;43,89
920,311;43,84
920,527;43,9
920,744;43,98
920,96;44,06
921,176;44,08
921,392;44,08
921,609;44,1
921,825;44,11
922,041;44,13
922,257;44,15
922,473;44,16
922,69;44,19
922,906;44,13
923,122;44,14
923,338;44,13
923,554;44,11
923,77;44,2
923,986;44,23
924,202;44,2
924,418;44,19
924,634;44,3
924,85;44,34
925,066;44,37
925,282;44,38
925,497;44,42
925,713;44,54
925,929;44,62
926,145;44,66
926,361;44,75
926,576;44,86
926,792;44,86
927,008;44,83
927,224;44,85
927,439;44,89
927,655;44,84
927,871;44,94
928,086;44,98
928,302;45,06
928,517;45,03
928,733;45,04
928,948;45,07
929,164;45,01
929,379;45,05
929,595;45,11
929,81;45,1
930,026;45,1
930,241;45,12
930,456;45,14
930,672;45,15
930,887;45,08
931,102;45,01
931,318;45,06
931,533;45,06
931,748;45,13
931,964;45,11
932,179;45,17
932,394;45,17
932,609;45,16
932,824;45,03
933,039;45,09
933,255;45,14
933,47;45,15
933,685;45,16
933,9;45,23
934,115;45,24
934,33;45,33
934,545;45,34
934,76;45,32
934,975;45,32
935,19;45,41
935,404;45,48
935,619;45,53
935,834;45,62
936,049;45,72
936,264;45,71
936,479;45,81
936,693;45,9
936,908;45,99
937,123;46,2
937,338;46,44
937,552;46,56
937,767;46,67
937,982;46,9
938,196;47,16
938,411;47,15
938,625;47,16
938,84;47,22
939,055;47,25
939,269;47,43
939,484;47,47
939,698;47,41
939,912;47,58
940,127;47,77
940,341;47,84
940,556;48,08
940,77;48,15
940,984;48,51
941,199;48,69
941,413;48,92
941,627;48,99
941,842;48,83
942,056;48,98
942,27;49
942,484;48,72
942,699;48,71
942,913;48,7
943,127;48,9
943,341;48,9
943,555;49,21
943,769;49,47
943,983;49,83
944,197;49,92
944,411;49,8
944,625;49,84
944,839;50,06
945,053;50,21
945,267;50,78
945,481;50,64
945,695;50,87
945,909;50,75
946,123;50,69
946,336;50,92
946,55;50,85
946,764;50,99
946,978;51,26
947,192;51,33
947,405;51,64
947,619;51,51
947,833;51,52
948,046;51,49
948,26;51,04
948,474;50,74
948,687;50,99
948,901;50,97
949,114;51,09
949,328;51,1
949,541;50,95
949,755;50,7
949,968;50,62
950,182;50,6
950,395;50,69
950,609;50,54
950,822;50,68
951,035;50,79
951,249;51,03
951,462;50,81
951,675;50,93
951,889;51,07
952,102;51,09
952,315;51,18
952,528;51,07
952,741;51,26
952,955;51,32
953,168;51,15
953,381;51,39
953,594;51,3
953,807;51,28
954,02;51,39
954,233;51,38
954,446;51,48
954,659;51,21
954,872;51,39
955,085;51,67
955,298;51,62
955,511;51,73
955,724;51,63
955,937;51,75
956,15;51,63
956,362;51,29
956,575;51,49
956,788;51,47
957,001;51,49
957,214;51,57
957,426;51,5
957,639;51,52
957,852;51,54
958,064;51,63
958,277;51,54
958,49;51,42
958,702;51,43
958,915;51,43
959,127;51,66
959,34;51,47
959,552;51,49
959,765;51,71
959,977;51,8
960,19;51,61
960,402;51,71
960,615;51,68
960,827;51,64
961,039;51,85
961,252;51,78
961,464;51,78
961,676;51,62
961,889;51,81
962,101;51,76
962,313;51,45
962,525;51,29
962,738;51,4
962,95;51,48
963,162;51,56
963,374;51,52
963,586;51,43
963,798;51,34
964,01;51,31
964,222;51,17
964,434;50,9
964,646;50,97
964,858;50,96
965,07;51,01
965,282;51,13
965,494;50,77
965,706;51,02
965,918;51,01
966,13;51,17
966,342;51,06
966,553;51,14
966,765;51,26
966,977;51,58
967,189;51,68
967,401;51,74
967,612;51,56
967,824;51,67
968,036;51,93
968,247;52,2
968,459;52,1
968,67;52,02
968,882;51,89
969,094;51,83
969,305;51,6
969,517;51,75
969,728;51,92
969,94;51,84
970,151;51,71
970,362;51,7
970,574;51,65
970,785;51,73
970,997;51,77
971,208;51,92
971,419;51,8
971,631;51,87
971,842;51,78
972,053;52,08
972,264;52,29
972,476;51,87
972,687;51,89
972,898;51,97
973,109;51,92
973,32;52,36
973,531;52,58
973,742;52,69
973,954;52,55
974,165;52,4
974,376;52,64
974,587;52,8
974,798;52,94
975,009;53,11
975,22;53,25
975,43;53,61
975,641;53,73
975,852;53,89
976,063;53,77
976,274;53,83
976,485;53,63
976,695;53,48
976,906;53,84
977,117;53,75
977,328;53,81
977,538;53,83
977,749;53,76
977,96;53,54
978,17;53,78
978,381;53,97
978,592;54,18
978,802;54,24
979,013;54,18
979,223;54,05
979,434;54,07
979,644;54,01
979,855;53,86
980,065;53,89
980,276;53,78
980,486;53,91
980,696;54,04
980,907;54,33
981,117;54,45
981,327;54,68
981,538;54,84
981,748;55,12
981,958;55,19
982,169;55,37
982,379;55,51
982,589;55,47
982,799;55,33
983,009;55,29
983,219;55,43
983,43;55,37
983,64;55,86
983,85;56,15
984,06;56,39
984,27;56,48
984,48;56,73
984,69;56,79
984,9;56,59
985,11;56,42
985,32;56,54
985,529;56,5
985,739;56,09
985,949;56,27
986,159;56,01
986,369;56,2
986,579;55,9
986,788;56,16
986,998;56,45
987,208;56,45
987,417;56,54
987,627;56,45
987,837;56,51
988,046;56,24
988,256;56,03
988,466;55,42
988,675;55,29
988,885;55,04
989,094;54,88
989,304;55,27
989,513;55,64
989,723;55,38
989,932;55,59
990,142;55,92
990,351;55,66
990,56;55,66
990,77;55,56
990,979;55,76
991,188;55,72
991,398;55,55
991,607;55,89
991,816;56,13
992,025;56,3
992,235;56,41
992,444;56,32
992,653;56,35
992,862;56,96
993,071;56,88
993,28;56,71
993,489;57,01
993,698;56,88
993,908;56,83
994,117;56,91
994,326;56,62
994,534;56,75
994,743;56,75
994,952;56,76
995,161;57,18
995,37;57,46
995,579;57,75
995,788;57,61
995,997;57,22
996,205;56,89
996,414;57,04
996,623;57,05
996,832;57,4
997,04;57,08
997,249;56,8
997,458;56,74
997,666;57,18
997,875;57,06
998,084;57,14
998,292;57,48
998,501;57,44
998,709;57,41
998,918;57,5
999,126;57,63
999,335;58,07
999,543;57,95
999,752;57,88
999,96;57,7
1000,169;58,37
1000,377;58,67
1000,585;59,33
1000,794;59,2
1001,002;59,56
1001,21;59,58
1001,418;60,02
1001,627;60,3
1001,835;60,62
1002,043;60,83
1002,251;61,28
1002,459;61,52
1002,668;61,28
1002,876;61,5
1003,084;61,38
1003,292;61,12
1003,5;61,25
1003,708;61,08
1003,916;61,2
1004,124;61,28
1004,332;61,6
1004,54;61,12
1004,748;60,84
1004,956;60,12
1005,163;59,86
1005,371;59,93
1005,579;59,78
1005,787;59,8
1005,995;59,72
1006,202;60,09
1006,41;59,9
1006,618;59,57
1006,826;59,39
1007,033;59,22
1007,241;59,59
1007,449;60,21
1007,656;60,49
1007,864;60,65
1008,071;60,58
1008,279;60,26
1008,486;60,32
1008,694;59,59
1008,901;59,58
1009,109;59,85
1009,316;60,58
1009,524;60,89
1009,731;60,45
1009,938;60,09
1010,146;60,31
1010,353;60,9
1010,56;60,44
1010,768;60,48
1010,975;61,37
1011,182;61,43
1011,389;61,28
1011,597;60,89
1011,804;61,1
1012,011;60,91
1012,218;61,1
1012,425;61,47
1012,632;61,84
1012,839;61,38
1013,046;61,73
1013,253;62,23
1013,46;62,07
1013,667;61,98
1013,874;61,81
1014,081;62,54
1014,288;62,62
1014,495;62,46
1014,702;61,77
1014,909;62,2
1015,116;62,13
1015,323;61,02
1015,529;61,24
1015,736;61,52
1015,943;61,66
1016,15;61,49
1016,356;61,19
1016,563;60,88
1016,77;60,65
1016,976;60,44
1017,183;61,1
1017,389;60,91
1017,596;60,33
1017,803;61,03
1018,009;60,69
1018,216;60,85
1018,422;60,54
1018,629;61,42
1018,835;60,94
1019,041;61,2
1019,248;61,49
1019,454;62,23
1019,661;63,6
1019,867;63,51
1020,073;63,54
1020,279;63,63
1020,486;63,41
1020,692;63,45
1020,898;62,61
1021,104;62,47
1021,311;63,02
1021,517;62,78
1021,723;63,37
1021,929;64
1022,135;63,41
1022,341;63,99
1022,547;64,82
1022,753;64,96
1022,959;65,28
1023,165;65,55
1023,371;65,46
1023,577;65,02
1023,783;63,64
1023,989;63,14
1024,195;62,8
1024,401;62,97
1024,607;63,28
1024,812;64,09
1025,018;64,56
1025,224;65,6
1025,43;66,81
1025,635;66,71
1025,841;67,4
1026,047;67,77
1026,252;67,14
1026,458;68,02
1026,664;67,71
1026,869;67,01
1027,075;67,09
1027,28;67,14
1027,486;67,37
1027,691;67,69
1027,897;68,33
1028,102;69,27
1028,308;68,78
1028,513;69,38
1028,719;69,65
1028,924;69,54
1029,129;68,3
1029,335;68,61
1029,54;68,78
1029,745;68,15
1029,95;68,88
1030,156;68,15
1030,361;67,89
1030,566;69,17
1030,771;68,64
1030,976;68,96
1031,182;69,26
1031,387;68,7
1031,592;68,69
1031,797;69,42
1032,002;69,47
1032,207;69,08
1032,412;68,74
1032,617;68,88
1032,822;69,38
1033,027;69,98
1033,232;69,1
1033,437;69,83
1033,642;70,56
1033,846;70,13
1034,051;69,41
1034,256;69,09
1034,461;68,91
1034,666;70,08
1034,87;70,02
1035,075;70,56
1035,28;68,84
1035,484;68,64
1035,689;68,75
1035,894;68,79
1036,098;67,85
1036,303;69,25
1036,507;69,37
1036,712;70,19
1036,917;71,14
1037,121;71,3
1037,325;69,91
1037,53;70,63
1037,734;70,47
1037,939;70,36
1038,143;71,64
1038,348;72,02
1038,552;72,09
1038,756;73,82
1038,961;71,47
1039,165;70,1
1039,369;68,92
1039,573;70,87
1039,778;71,51
1039,982;72,1
1040,186;72,39
1040,39;73,43
1040,594;72,34
1040,798;71,52
1041,002;69,93
1041,206;69,44
1041,41;68,59
1041,614;69,68
1041,818;71,05
1042,022;72,09
1042,226;71,07
1042,43;71,07
1042,634;72,22
1042,838;72,28
1043,042;71,23
1043,246;71
1043,45;72,24
1043,653;73,69
1043,857;73,65
1044,061;72,46
1044,265;72,14
1044,468;71,14
1044,672;71,47
1044,876;72,49
1045,079;73,08
1045,283;73,75
1045,487;72,73
1045,69;73,97
1045,894;72,82
1046,097;72,54
1046,301;71,67
1046,504;70,73
1046,708;70,49
1046,911;70,81
1047,115;68,77
1047,318;69,79
1047,522;72,35
1047,725;71,7
1047,928;71,03
1048,132;72,57
1048,335;73,92
1048,538;75,02
1048,741;75,65
1048,945;76,49
1049,148;76,21
1049,351;76,25
1049,554;76,87
1049,757;76,84
1049,96;76,09
1050,163;76,18
1050,367;75,46
1050,57;75,72
1050,773;76,81
1050,976;74,78
1051,179;74,34
1051,382;75,91
1051,585;76,04
1051,787;76,7
1051,99;76,4
1052,193;75,44
1052,396;75,42
1052,599;75,27
1052,802;74,06
1053,005;71,62
1053,207;71,78
1053,41;69,75
1053,613;70,36
1053,815;70,2
1054,018;71,39
1054,221;69,51
1054,423;70,78
1054,626;70,4
1054,829;70,68
1055,031;70,95
1055,234;73,08
1055,436;71,79
1055,639;71,94
1055,841;69,74
1056,044;67,85
1056,246;67,93
