Data from lapisWhite_Reflection__1__34.txt Node;
"Date: Fri Sep 12 11:15:51 CEST 2025 User: sycur Spectrometer: SR400348 Trigger mode: 0 Integration Time (sec): 2,000000E-2 Scans to average: 20 Electric dark correction enabled: true Nonlinearity correction enabled: false Boxcar width: 10 XAxis mode: Wavelengths Number of Pixels in Spectrum: 3648 >>>>>Begin Spectral Data<<<<<";
186,01;-755,81
186,281;-2007,35
186,552;109,72
186,822;36,74
187,093;45,45
187,364;-33,34
187,635;13281,91
187,905;108,31
188,176;44,46
188,447;40,37
188,717;33,64
188,988;33,62
189,258;35,01
189,529;35,61
189,8;35,31
190,07;30,12
190,341;30
190,611;26,77
190,882;25,48
191,152;25,8
191,423;26,11
191,693;25,59
191,964;24,16
192,234;24,57
192,505;23,14
192,775;23,08
193,045;22,28
193,316;21,08
193,586;20,22
193,856;20,18
194,127;19,17
194,397;18,66
194,667;18,8
194,938;18,34
195,208;17,61
195,478;17,65
195,748;17,18
196,019;16,6
196,289;16,5
196,559;16,1
196,829;15,49
197,099;15
197,37;14,57
197,64;14,72
197,91;14,43
198,18;14,32
198,45;13,77
198,72;13,58
198,99;13,13
199,26;12,89
199,53;12,8
199,8;13,1
200,07;12,8
200,34;12,1
200,61;12,04
200,88;12,05
201,15;11,48
201,42;11,67
201,69;11,63
201,96;11,54
202,23;11,54
202,499;11,25
202,769;11,14
203,039;11,12
203,309;10,75
203,579;10,41
203,849;10,34
204,118;10,22
204,388;9,93
204,658;10,01
204,927;9,79
205,197;9,55
205,467;9,14
205,736;9,15
206,006;9,16
206,276;8,97
206,545;8,73
206,815;8,73
207,085;8,7
207,354;8,52
207,624;8,52
207,893;8,21
208,163;8,21
208,432;8,07
208,702;7,89
208,971;7,94
209,241;8,02
209,51;8,03
209,78;7,98
210,049;8
210,318;7,82
210,588;7,87
210,857;7,8
211,127;7,7
211,396;7,71
211,665;7,6
211,935;7,63
212,204;7,54
212,473;7,48
212,742;7,38
213,012;7,31
213,281;7,22
213,55;7,19
213,819;7,15
214,088;7,14
214,358;7,09
214,627;6,96
214,896;6,86
215,165;6,64
215,434;6,61
215,703;6,51
215,972;6,47
216,241;6,39
216,51;6,34
216,779;6,29
217,048;6,23
217,317;6,19
217,586;6,13
217,855;6,12
218,124;6,04
218,393;5,99
218,662;5,98
218,931;5,9
219,2;5,85
219,469;5,79
219,738;5,73
220,006;5,7
220,275;5,7
220,544;5,67
220,813;5,65
221,082;5,63
221,35;5,62
221,619;5,62
221,888;5,59
222,157;5,56
222,425;5,56
222,694;5,52
222,963;5,51
223,231;5,47
223,5;5,48
223,769;5,46
224,037;5,44
224,306;5,43
224,574;5,42
224,843;5,43
225,111;5,43
225,38;5,41
225,648;5,4
225,917;5,33
226,185;5,32
226,454;5,32
226,722;5,3
226,991;5,31
227,259;5,29
227,528;5,27
227,796;5,29
228,064;5,26
228,333;5,24
228,601;5,25
228,869;5,22
229,138;5,21
229,406;5,22
229,674;5,21
229,942;5,22
230,211;5,24
230,479;5,23
230,747;5,2
231,015;5,2
231,283;5,19
231,552;5,2
231,82;5,16
232,088;5,17
232,356;5,18
232,624;5,16
232,892;5,16
233,16;5,15
233,428;5,12
233,696;5,12
233,964;5,1
234,232;5,09
234,5;5,09
234,768;5,07
235,036;5,07
235,304;5,06
235,572;5,04
235,84;5,03
236,108;5,01
236,376;5,03
236,644;5,02
236,912;5,02
237,179;5,02
237,447;5,04
237,715;5,03
237,983;5,01
238,251;4,99
238,518;4,98
238,786;4,99
239,054;4,99
239,322;5
239,589;5,02
239,857;5,03
240,125;5,05
240,392;5,06
240,66;5,05
240,927;5,06
241,195;5,05
241,463;5,04
241,73;5,06
241,998;5,05
242,265;5,05
242,533;5,05
242,8;5,05
243,068;5,05
243,335;5,05
243,603;5,06
243,87;5,08
244,138;5,08
244,405;5,08
244,672;5,09
244,94;5,07
245,207;5,06
245,474;5,06
245,742;5,05
246,009;5,04
246,276;5,03
246,544;5,02
246,811;5,02
247,078;5,02
247,345;5,01
247,613;5,01
247,88;5,01
248,147;5,01
248,414;5,01
248,681;5,01
248,948;5,02
249,215;5,02
249,483;5,01
249,75;5,01
250,017;5,02
250,284;5,01
250,551;5,02
250,818;5,02
251,085;5,01
251,352;5,01
251,619;5
251,886;5
252,153;5
252,42;5
252,687;5
252,953;5
253,22;5
253,487;4,99
253,754;4,99
254,021;4,99
254,288;4,98
254,555;4,97
254,821;4,96
255,088;4,96
255,355;4,96
255,622;4,96
255,888;4,94
256,155;4,93
256,422;4,93
256,688;4,93
256,955;4,92
257,222;4,92
257,488;4,92
257,755;4,91
258,022;4,92
258,288;4,91
258,555;4,89
258,821;4,88
259,088;4,88
259,354;4,87
259,621;4,86
259,887;4,86
260,154;4,85
260,42;4,84
260,687;4,83
260,953;4,82
261,219;4,8
261,486;4,79
261,752;4,78
262,019;4,78
262,285;4,77
262,551;4,76
262,818;4,75
263,084;4,74
263,35;4,73
263,616;4,71
263,883;4,71
264,149;4,71
264,415;4,7
264,681;4,71
264,947;4,7
265,214;4,7
265,48;4,7
265,746;4,7
266,012;4,69
266,278;4,68
266,544;4,68
266,81;4,68
267,076;4,68
267,342;4,68
267,608;4,67
267,874;4,68
268,14;4,68
268,406;4,68
268,672;4,69
268,938;4,69
269,204;4,68
269,47;4,67
269,736;4,65
270,002;4,65
270,268;4,63
270,533;4,63
270,799;4,62
271,065;4,62
271,331;4,61
271,597;4,61
271,862;4,61
272,128;4,6
272,394;4,59
272,66;4,59
272,925;4,6
273,191;4,6
273,457;4,59
273,722;4,59
273,988;4,58
274,254;4,56
274,519;4,56
274,785;4,56
275,05;4,57
275,316;4,58
275,582;4,58
275,847;4,57
276,113;4,57
276,378;4,57
276,644;4,56
276,909;4,56
277,174;4,56
277,44;4,56
277,705;4,57
277,971;4,59
278,236;4,58
278,501;4,56
278,767;4,56
279,032;4,55
279,297;4,54
279,563;4,56
279,828;4,56
280,093;4,56
280,358;4,56
280,624;4,55
280,889;4,55
281,154;4,55
281,419;4,56
281,684;4,56
281,95;4,57
282,215;4,57
282,48;4,58
282,745;4,58
283,01;4,57
283,275;4,57
283,54;4,55
283,805;4,56
284,07;4,57
284,335;4,57
284,6;4,57
284,865;4,58
285,13;4,57
285,395;4,58
285,66;4,59
285,925;4,59
286,19;4,6
286,455;4,62
286,72;4,63
286,985;4,64
287,249;4,65
287,514;4,65
287,779;4,67
288,044;4,66
288,309;4,67
288,573;4,68
288,838;4,69
289,103;4,71
289,367;4,73
289,632;4,73
289,897;4,74
290,161;4,76
290,426;4,77
290,691;4,79
290,955;4,8
291,22;4,81
291,484;4,82
291,749;4,85
292,014;4,86
292,278;4,88
292,543;4,89
292,807;4,9
293,072;4,93
293,336;4,94
293,6;4,96
293,865;4,98
294,129;5,01
294,394;5,03
294,658;5,06
294,922;5,08
295,187;5,1
295,451;5,13
295,715;5,15
295,98;5,18
296,244;5,2
296,508;5,22
296,773;5,25
297,037;5,27
297,301;5,28
297,565;5,32
297,829;5,33
298,094;5,35
298,358;5,38
298,622;5,4
298,886;5,42
299,15;5,46
299,414;5,48
299,678;5,5
299,942;5,52
300,206;5,53
300,47;5,56
300,734;5,59
300,998;5,61
301,262;5,64
301,526;5,66
301,79;5,68
302,054;5,7
302,318;5,72
302,582;5,75
302,846;5,77
303,11;5,79
303,374;5,82
303,637;5,84
303,901;5,87
304,165;5,88
304,429;5,92
304,693;5,94
304,956;5,97
305,22;5,99
305,484;6,01
305,747;6,05
306,011;6,07
306,275;6,09
306,538;6,13
306,802;6,15
307,066;6,18
307,329;6,21
307,593;6,25
307,856;6,28
308,12;6,33
308,384;6,37
308,647;6,39
308,911;6,41
309,174;6,44
309,438;6,46
309,701;6,49
309,964;6,51
310,228;6,54
310,491;6,56
310,755;6,59
311,018;6,63
311,281;6,65
311,545;6,69
311,808;6,71
312,071;6,71
312,335;6,73
312,598;6,76
312,861;6,79
313,124;6,81
313,388;6,83
313,651;6,86
313,914;6,88
314,177;6,91
314,44;6,94
314,704;6,96
314,967;7
315,23;7,03
315,493;7,08
315,756;7,09
316,019;7,13
316,282;7,18
316,545;7,21
316,808;7,25
317,071;7,28
317,334;7,32
317,597;7,35
317,86;7,38
318,123;7,41
318,386;7,44
318,649;7,47
318,912;7,5
319,175;7,52
319,437;7,55
319,7;7,59
319,963;7,61
320,226;7,64
320,489;7,68
320,751;7,7
321,014;7,72
321,277;7,76
321,54;7,79
321,802;7,82
322,065;7,85
322,328;7,87
322,59;7,9
322,853;7,94
323,116;7,99
323,378;8,04
323,641;8,09
323,903;8,13
324,166;8,17
324,428;8,21
324,691;8,23
324,953;8,26
325,216;8,28
325,478;8,33
325,741;8,37
326,003;8,4
326,266;8,44
326,528;8,47
326,791;8,5
327,053;8,53
327,315;8,54
327,578;8,57
327,84;8,61
328,102;8,65
328,365;8,68
328,627;8,72
328,889;8,73
329,151;8,74
329,414;8,75
329,676;8,77
329,938;8,8
330,2;8,85
330,462;8,88
330,725;8,91
330,987;8,93
331,249;8,96
331,511;9
331,773;9,03
332,035;9,05
332,297;9,08
332,559;9,11
332,821;9,15
333,083;9,18
333,345;9,21
333,607;9,24
333,869;9,26
334,131;9,27
334,393;9,32
334,655;9,35
334,917;9,4
335,179;9,44
335,44;9,47
335,702;9,5
335,964;9,54
336,226;9,58
336,488;9,63
336,749;9,67
337,011;9,71
337,273;9,75
337,535;9,82
337,796;9,85
338,058;9,91
338,32;9,95
338,581;10
338,843;10,05
339,105;10,1
339,366;10,14
339,628;10,19
339,889;10,24
340,151;10,29
340,412;10,33
340,674;10,37
340,935;10,41
341,197;10,47
341,458;10,51
341,72;10,54
341,981;10,58
342,243;10,62
342,504;10,66
342,766;10,69
343,027;10,71
343,288;10,75
343,55;10,77
343,811;10,8
344,072;10,83
344,334;10,84
344,595;10,86
344,856;10,91
345,117;10,93
345,379;10,96
345,64;10,98
345,901;11,02
346,162;11,04
346,423;11,07
346,684;11,08
346,946;11,11
347,207;11,14
347,468;11,16
347,729;11,19
347,99;11,22
348,251;11,24
348,512;11,28
348,773;11,3
349,034;11,35
349,295;11,36
349,556;11,39
349,817;11,44
350,078;11,47
350,339;11,49
350,6;11,52
350,86;11,54
351,121;11,59
351,382;11,61
351,643;11,66
351,904;11,69
352,165;11,74
352,425;11,78
352,686;11,82
352,947;11,85
353,208;11,9
353,468;11,94
353,729;11,98
353,99;12,01
354,25;12,06
354,511;12,1
354,772;12,15
355,032;12,19
355,293;12,23
355,553;12,28
355,814;12,33
356,074;12,38
356,335;12,43
356,596;12,47
356,856;12,53
357,116;12,56
357,377;12,63
357,637;12,66
357,898;12,7
358,158;12,75
358,419;12,8
358,679;12,83
358,939;12,91
359,2;12,97
359,46;13,03
359,72;13,07
359,981;13,13
360,241;13,18
360,501;13,23
360,761;13,28
361,022;13,32
361,282;13,37
361,542;13,42
361,802;13,48
362,062;13,53
362,323;13,58
362,583;13,64
362,843;13,69
363,103;13,75
363,363;13,82
363,623;13,87
363,883;13,92
364,143;13,98
364,403;14
364,663;14,06
364,923;14,11
365,183;14,18
365,443;14,22
365,703;14,3
365,963;14,35
366,223;14,41
366,483;14,45
366,743;14,51
367,002;14,57
367,262;14,62
367,522;14,68
367,782;14,75
368,042;14,8
368,301;14,84
368,561;14,89
368,821;14,94
369,081;14,99
369,34;15,05
369,6;15,1
369,86;15,16
370,119;15,21
370,379;15,28
370,638;15,34
370,898;15,39
371,158;15,42
371,417;15,48
371,677;15,55
371,936;15,63
372,196;15,69
372,455;15,74
372,715;15,81
372,974;15,86
373,234;15,91
373,493;15,99
373,753;16,04
374,012;16,13
374,271;16,17
374,531;16,24
374,79;16,3
375,049;16,38
375,309;16,43
375,568;16,51
375,827;16,55
376,086;16,6
376,346;16,67
376,605;16,77
376,864;16,84
377,123;16,88
377,383;16,95
377,642;17,01
377,901;17,07
378,16;17,13
378,419;17,18
378,678;17,22
378,937;17,27
379,196;17,34
379,455;17,38
379,714;17,46
379,973;17,5
380,232;17,59
380,491;17,64
380,75;17,7
381,009;17,75
381,268;17,83
381,527;17,89
381,786;17,95
382,045;18
382,304;18,07
382,563;18,13
382,821;18,19
383,08;18,25
383,339;18,33
383,598;18,39
383,857;18,48
384,115;18,55
384,374;18,64
384,633;18,7
384,891;18,78
385,15;18,85
385,409;18,96
385,667;19,02
385,926;19,08
386,185;19,15
386,443;19,22
386,702;19,27
386,96;19,34
387,219;19,4
387,477;19,46
387,736;19,51
387,994;19,6
388,253;19,68
388,511;19,75
388,77;19,8
389,028;19,88
389,287;19,94
389,545;20,03
389,803;20,06
390,062;20,15
390,32;20,21
390,578;20,26
390,837;20,31
391,095;20,36
391,353;20,45
391,612;20,5
391,87;20,56
392,128;20,65
392,386;20,7
392,644;20,76
392,903;20,83
393,161;20,89
393,419;20,92
393,677;20,98
393,935;21,02
394,193;21,1
394,451;21,14
394,709;21,19
394,967;21,24
395,225;21,3
395,483;21,36
395,741;21,43
395,999;21,5
396,257;21,55
396,515;21,62
396,773;21,68
397,031;21,73
397,289;21,82
397,547;21,84
397,805;21,89
398,062;21,95
398,32;22,04
398,578;22,08
398,836;22,15
399,094;22,19
399,351;22,23
399,609;22,26
399,867;22,32
400,124;22,37
400,382;22,44
400,64;22,51
400,897;22,56
401,155;22,59
401,413;22,67
401,67;22,73
401,928;22,81
402,185;22,86
402,443;22,96
402,701;23
402,958;23,09
403,216;23,18
403,473;23,24
403,73;23,28
403,988;23,4
404,245;23,48
404,503;23,56
404,76;23,65
405,018;23,75
405,275;23,82
405,532;23,9
405,79;23,96
406,047;24,02
406,304;24,12
406,561;24,2
406,819;24,25
407,076;24,35
407,333;24,39
407,59;24,46
407,848;24,51
408,105;24,58
408,362;24,64
408,619;24,72
408,876;24,79
409,133;24,86
409,39;24,91
409,647;24,97
409,904;25,05
410,161;25,13
410,418;25,2
410,675;25,29
410,932;25,38
411,189;25,45
411,446;25,56
411,703;25,63
411,96;25,71
412,217;25,79
412,474;25,87
412,731;25,96
412,988;26,04
413,245;26,16
413,501;26,24
413,758;26,35
414,015;26,41
414,272;26,49
414,529;26,57
414,785;26,66
415,042;26,76
415,299;26,82
415,555;26,89
415,812;26,98
416,069;27,05
416,325;27,15
416,582;27,24
416,838;27,33
417,095;27,4
417,352;27,48
417,608;27,57
417,865;27,66
418,121;27,76
418,378;27,87
418,634;27,95
418,891;28,1
419,147;28,18
419,403;28,32
419,66;28,42
419,916;28,53
420,173;28,62
420,429;28,71
420,685;28,83
420,942;28,94
421,198;29,05
421,454;29,17
421,711;29,23
421,967;29,34
422,223;29,43
422,479;29,54
422,735;29,63
422,992;29,73
423,248;29,79
423,504;29,88
423,76;29,96
424,016;30,05
424,272;30,1
424,528;30,19
424,784;30,28
425,041;30,38
425,297;30,47
425,553;30,54
425,809;30,62
426,065;30,71
426,32;30,8
426,576;30,9
426,832;30,98
427,088;31,11
427,344;31,2
427,6;31,31
427,856;31,42
428,112;31,56
428,368;31,65
428,623;31,75
428,879;31,85
429,135;31,96
429,391;32,03
429,646;32,13
429,902;32,21
430,158;32,3
430,414;32,39
430,669;32,49
430,925;32,63
431,181;32,77
431,436;32,89
431,692;32,98
431,947;33,09
432,203;33,21
432,458;33,28
432,714;33,39
432,97;33,46
433,225;33,53
433,481;33,6
433,736;33,71
433,991;33,81
434,247;33,9
434,502;33,98
434,758;34,11
435,013;34,23
435,268;34,38
435,524;34,48
435,779;34,61
436,034;34,7
436,29;34,8
436,545;34,88
436,8;34,97
437,056;35,06
437,311;35,16
437,566;35,25
437,821;35,38
438,076;35,46
438,331;35,61
438,587;35,75
438,842;35,89
439,097;35,99
439,352;36,12
439,607;36,25
439,862;36,39
440,117;36,48
440,372;36,59
440,627;36,67
440,882;36,78
441,137;36,87
441,392;36,99
441,647;37,08
441,902;37,21
442,157;37,31
442,412;37,41
442,667;37,48
442,921;37,58
443,176;37,67
443,431;37,77
443,686;37,84
443,941;37,93
444,195;38
444,45;38,12
444,705;38,22
444,96;38,29
445,214;38,35
445,469;38,45
445,724;38,5
445,978;38,57
446,233;38,63
446,487;38,71
446,742;38,78
446,997;38,86
447,251;38,89
447,506;38,98
447,76;39,03
448,015;39,14
448,269;39,2
448,524;39,28
448,778;39,35
449,033;39,42
449,287;39,45
449,541;39,52
449,796;39,55
450,05;39,6
450,305;39,66
450,559;39,75
450,813;39,8
451,067;39,86
451,322;39,91
451,576;40,01
451,83;40,04
452,084;40,09
452,339;40,15
452,593;40,23
452,847;40,28
453,101;40,35
453,355;40,39
453,609;40,44
453,864;40,49
454,118;40,55
454,372;40,61
454,626;40,69
454,88;40,73
455,134;40,8
455,388;40,88
455,642;40,95
455,896;40,99
456,15;41,02
456,404;41,08
456,658;41,14
456,912;41,15
457,165;41,21
457,419;41,22
457,673;41,28
457,927;41,34
458,181;41,37
458,435;41,4
458,688;41,44
458,942;41,46
459,196;41,48
459,45;41,5
459,703;41,53
459,957;41,54
460,211;41,59
460,464;41,62
460,718;41,6
460,972;41,6
461,225;41,61
461,479;41,63
461,732;41,65
461,986;41,64
462,239;41,66
462,493;41,69
462,746;41,72
463;41,69
463,253;41,7
463,507;41,7
463,76;41,7
464,014;41,68
464,267;41,7
464,52;41,7
464,774;41,69
465,027;41,66
465,28;41,63
465,534;41,59
465,787;41,56
466,04;41,53
466,294;41,51
466,547;41,48
466,8;41,46
467,053;41,4
467,306;41,39
467,56;41,34
467,813;41,29
468,066;41,22
468,319;41,2
468,572;41,1
468,825;41,05
469,078;41
469,331;40,96
469,584;40,9
469,837;40,8
470,09;40,75
470,343;40,7
470,596;40,67
470,849;40,62
471,102;40,55
471,355;40,49
471,608;40,42
471,861;40,37
472,114;40,29
472,367;40,22
472,619;40,14
472,872;40,08
473,125;39,98
473,378;39,95
473,631;39,85
473,883;39,78
474,136;39,69
474,389;39,6
474,641;39,49
474,894;39,4
475,147;39,31
475,399;39,21
475,652;39,12
475,905;39
476,157;38,88
476,41;38,77
476,662;38,65
476,915;38,53
477,167;38,42
477,42;38,3
477,672;38,18
477,925;38,09
478,177;37,95
478,43;37,83
478,682;37,66
478,934;37,52
479,187;37,4
479,439;37,29
479,691;37,15
479,944;37,02
480,196;36,88
480,448;36,75
480,701;36,58
480,953;36,44
481,205;36,29
481,457;36,15
481,709;36,02
481,962;35,88
482,214;35,73
482,466;35,58
482,718;35,41
482,97;35,24
483,222;35,05
483,474;34,89
483,726;34,75
483,978;34,63
484,23;34,49
484,482;34,37
484,734;34,25
484,986;34,12
485,238;33,99
485,49;33,87
485,742;33,76
485,994;33,65
486,246;33,53
486,498;33,4
486,75;33,26
487,001;33,13
487,253;32,97
487,505;32,82
487,757;32,64
488,009;32,47
488,26;32,29
488,512;32,09
488,764;31,88
489,015;31,67
489,267;31,45
489,519;31,24
489,77;31,03
490,022;30,82
490,274;30,62
490,525;30,44
490,777;30,25
491,028;30,06
491,28;29,88
491,531;29,69
491,783;29,5
492,034;29,34
492,286;29,15
492,537;28,98
492,789;28,79
493,04;28,62
493,291;28,43
493,543;28,25
493,794;28,05
494,045;27,87
494,297;27,7
494,548;27,53
494,799;27,36
495,051;27,19
495,302;27
495,553;26,83
495,804;26,65
496,056;26,48
496,307;26,3
496,558;26,13
496,809;25,97
497,06;25,79
497,311;25,62
497,562;25,46
497,813;25,28
498,064;25,13
498,316;24,94
498,567;24,76
498,818;24,59
499,069;24,43
499,319;24,26
499,57;24,08
499,821;23,9
500,072;23,74
500,323;23,57
500,574;23,42
500,825;23,25
501,076;23,08
501,327;22,92
501,577;22,76
501,828;22,58
502,079;22,41
502,33;22,25
502,58;22,09
502,831;21,92
503,082;21,78
503,333;21,62
503,583;21,46
503,834;21,3
504,084;21,15
504,335;20,99
504,586;20,83
504,836;20,67
505,087;20,52
505,337;20,35
505,588;20,19
505,838;20,03
506,089;19,89
506,339;19,73
506,59;19,6
506,84;19,44
507,091;19,3
507,341;19,15
507,591;19,02
507,842;18,87
508,092;18,73
508,343;18,56
508,593;18,42
508,843;18,28
509,093;18,15
509,344;18
509,594;17,88
509,844;17,74
510,094;17,61
510,345;17,47
510,595;17,36
510,845;17,22
511,095;17,09
511,345;16,96
511,595;16,84
511,845;16,68
512,095;16,57
512,345;16,45
512,595;16,33
512,845;16,18
513,095;16,08
513,345;15,95
513,595;15,84
513,845;15,72
514,095;15,61
514,345;15,48
514,595;15,38
514,845;15,25
515,095;15,15
515,345;15,04
515,594;14,95
515,844;14,83
516,094;14,72
516,344;14,61
516,593;14,52
516,843;14,4
517,093;14,3
517,343;14,19
517,592;14,09
517,842;14
518,092;13,92
518,341;13,8
518,591;13,71
518,84;13,62
519,09;13,52
519,34;13,42
519,589;13,34
519,839;13,24
520,088;13,15
520,338;13,06
520,587;12,97
520,836;12,87
521,086;12,8
521,335;12,7
521,585;12,62
521,834;12,53
522,083;12,47
522,333;12,39
522,582;12,32
522,831;12,23
523,081;12,15
523,33;12,07
523,579;12
523,828;11,93
524,078;11,86
524,327;11,78
524,576;11,72
524,825;11,64
525,074;11,57
525,323;11,49
525,573;11,43
525,822;11,37
526,071;11,3
526,32;11,24
526,569;11,18
526,818;11,12
527,067;11,06
527,316;10,99
527,565;10,93
527,814;10,85
528,063;10,8
528,312;10,74
528,56;10,68
528,809;10,61
529,058;10,55
529,307;10,48
529,556;10,44
529,805;10,37
530,053;10,32
530,302;10,26
530,551;10,24
530,8;10,17
531,048;10,12
531,297;10,06
531,546;10
531,794;9,95
532,043;9,89
532,292;9,83
532,54;9,79
532,789;9,74
533,037;9,7
533,286;9,66
533,535;9,61
533,783;9,56
534,032;9,52
534,28;9,46
534,528;9,42
534,777;9,36
535,025;9,33
535,274;9,27
535,522;9,23
535,771;9,18
536,019;9,14
536,267;9,09
536,516;9,05
536,764;9,01
537,012;8,96
537,26;8,92
537,509;8,89
537,757;8,84
538,005;8,8
538,253;8,76
538,501;8,73
538,75;8,69
538,998;8,66
539,246;8,64
539,494;8,61
539,742;8,58
539,99;8,55
540,238;8,51
540,486;8,49
540,734;8,46
540,982;8,42
541,23;8,38
541,478;8,35
541,726;8,32
541,974;8,3
542,222;8,27
542,47;8,24
542,718;8,21
542,966;8,19
543,213;8,15
543,461;8,12
543,709;8,08
543,957;8,05
544,205;8,02
544,452;7,98
544,7;7,96
544,948;7,93
545,196;7,89
545,443;7,87
545,691;7,84
545,939;7,82
546,186;7,8
546,434;7,78
546,681;7,76
546,929;7,73
547,176;7,7
547,424;7,68
547,671;7,66
547,919;7,64
548,166;7,61
548,414;7,6
548,661;7,59
548,909;7,56
549,156;7,54
549,404;7,52
549,651;7,5
549,898;7,48
550,146;7,47
550,393;7,46
550,64;7,42
550,888;7,42
551,135;7,4
551,382;7,39
551,629;7,37
551,876;7,35
552,124;7,34
552,371;7,32
552,618;7,3
552,865;7,3
553,112;7,28
553,359;7,26
553,606;7,24
553,854;7,22
554,101;7,21
554,348;7,19
554,595;7,17
554,842;7,16
555,089;7,14
555,336;7,13
555,582;7,11
555,829;7,1
556,076;7,07
556,323;7,05
556,57;7,03
556,817;7,01
557,064;6,99
557,311;6,97
557,557;6,96
557,804;6,94
558,051;6,91
558,298;6,9
558,544;6,88
558,791;6,87
559,038;6,85
559,284;6,83
559,531;6,82
559,778;6,81
560,024;6,79
560,271;6,77
560,517;6,76
560,764;6,75
561,011;6,73
561,257;6,73
561,504;6,71
561,75;6,7
561,997;6,7
562,243;6,69
562,489;6,67
562,736;6,66
562,982;6,65
563,229;6,64
563,475;6,62
563,721;6,62
563,968;6,6
564,214;6,58
564,46;6,58
564,707;6,57
564,953;6,56
565,199;6,56
565,445;6,55
565,691;6,55
565,938;6,53
566,184;6,54
566,43;6,54
566,676;6,53
566,922;6,53
567,168;6,53
567,414;6,52
567,66;6,54
567,906;6,54
568,152;6,55
568,398;6,56
568,644;6,57
568,89;6,57
569,136;6,59
569,382;6,6
569,628;6,61
569,874;6,61
570,12;6,62
570,366;6,63
570,612;6,64
570,857;6,64
571,103;6,66
571,349;6,66
571,595;6,67
571,84;6,68
572,086;6,69
572,332;6,69
572,578;6,69
572,823;6,68
573,069;6,68
573,315;6,68
573,56;6,68
573,806;6,67
574,051;6,68
574,297;6,68
574,542;6,68
574,788;6,69
575,034;6,69
575,279;6,69
575,524;6,7
575,77;6,69
576,015;6,69
576,261;6,69
576,506;6,69
576,752;6,68
576,997;6,67
577,242;6,66
577,488;6,67
577,733;6,66
577,978;6,66
578,223;6,66
578,469;6,67
578,714;6,68
578,959;6,68
579,204;6,68
579,45;6,7
579,695;6,69
579,94;6,69
580,185;6,67
580,43;6,68
580,675;6,66
580,92;6,66
581,165;6,65
581,41;6,65
581,655;6,64
581,9;6,64
582,145;6,64
582,39;6,63
582,635;6,62
582,88;6,63
583,125;6,61
583,37;6,61
583,615;6,59
583,86;6,57
584,105;6,55
584,349;6,54
584,594;6,52
584,839;6,52
585,084;6,5
585,328;6,49
585,573;6,48
585,818;6,47
586,063;6,45
586,307;6,45
586,552;6,44
586,797;6,43
587,041;6,42
587,286;6,41
587,53;6,39
587,775;6,38
588,019;6,36
588,264;6,36
588,508;6,34
588,753;6,32
588,997;6,31
589,242;6,3
589,486;6,29
589,731;6,28
589,975;6,26
590,22;6,26
590,464;6,26
590,708;6,26
590,953;6,25
591,197;6,25
591,441;6,25
591,685;6,25
591,93;6,24
592,174;6,25
592,418;6,24
592,662;6,24
592,907;6,25
593,151;6,25
593,395;6,24
593,639;6,25
593,883;6,25
594,127;6,26
594,371;6,25
594,615;6,24
594,859;6,23
595,103;6,23
595,347;6,22
595,591;6,21
595,835;6,2
596,079;6,2
596,323;6,18
596,567;6,18
596,811;6,17
597,055;6,16
597,299;6,16
597,542;6,16
597,786;6,15
598,03;6,16
598,274;6,14
598,518;6,16
598,761;6,15
599,005;6,16
599,249;6,14
599,492;6,15
599,736;6,14
599,98;6,16
600,223;6,16
600,467;6,16
600,711;6,16
600,954;6,17
601,198;6,17
601,441;6,18
601,685;6,18
601,928;6,18
602,172;6,18
602,415;6,18
602,659;6,17
602,902;6,18
603,145;6,17
603,389;6,17
603,632;6,16
603,876;6,17
604,119;6,17
604,362;6,18
604,606;6,18
604,849;6,18
605,092;6,17
605,335;6,17
605,579;6,17
605,822;6,16
606,065;6,15
606,308;6,16
606,551;6,14
606,794;6,14
607,037;6,13
607,281;6,13
607,524;6,13
607,767;6,13
608,01;6,12
608,253;6,12
608,496;6,12
608,739;6,12
608,982;6,11
609,225;6,11
609,468;6,1
609,711;6,1
609,953;6,09
610,196;6,1
610,439;6,09
610,682;6,1
610,925;6,1
611,168;6,1
611,41;6,1
611,653;6,11
611,896;6,11
612,139;6,12
612,381;6,12
612,624;6,12
612,867;6,12
613,109;6,13
613,352;6,13
613,595;6,13
613,837;6,13
614,08;6,14
614,322;6,14
614,565;6,14
614,807;6,14
615,05;6,14
615,292;6,13
615,535;6,14
615,777;6,13
616,02;6,14
616,262;6,14
616,505;6,15
616,747;6,15
616,989;6,15
617,232;6,14
617,474;6,15
617,716;6,15
617,959;6,16
618,201;6,16
618,443;6,17
618,685;6,17
618,927;6,18
619,17;6,19
619,412;6,2
619,654;6,21
619,896;6,22
620,138;6,23
620,38;6,24
620,622;6,24
620,864;6,26
621,107;6,26
621,349;6,28
621,591;6,28
621,833;6,3
622,075;6,31
622,316;6,33
622,558;6,33
622,8;6,34
623,042;6,34
623,284;6,36
623,526;6,35
623,768;6,37
624,01;6,36
624,251;6,37
624,493;6,37
624,735;6,37
624,977;6,36
625,218;6,37
625,46;6,38
625,702;6,39
625,943;6,38
626,185;6,39
626,427;6,39
626,668;6,4
626,91;6,39
627,152;6,4
627,393;6,39
627,635;6,4
627,876;6,4
628,118;6,42
628,359;6,42
628,601;6,42
628,842;6,42
629,084;6,42
629,325;6,42
629,566;6,42
629,808;6,43
630,049;6,45
630,29;6,44
630,532;6,45
630,773;6,44
631,014;6,45
631,256;6,44
631,497;6,45
631,738;6,45
631,979;6,45
632,22;6,44
632,462;6,45
632,703;6,45
632,944;6,45
633,185;6,44
633,426;6,45
633,667;6,46
633,908;6,47
634,149;6,47
634,39;6,48
634,631;6,48
634,872;6,5
635,113;6,5
635,354;6,51
635,595;6,5
635,836;6,53
636,077;6,53
636,318;6,54
636,559;6,55
636,8;6,56
637,04;6,57
637,281;6,59
637,522;6,6
637,763;6,61
638,003;6,63
638,244;6,65
638,485;6,65
638,726;6,66
638,966;6,66
639,207;6,68
639,448;6,68
639,688;6,71
639,929;6,7
640,169;6,72
640,41;6,72
640,65;6,74
640,891;6,75
641,131;6,76
641,372;6,77
641,612;6,79
641,853;6,79
642,093;6,81
642,334;6,82
642,574;6,83
642,814;6,84
643,055;6,85
643,295;6,85
643,535;6,86
643,776;6,87
644,016;6,89
644,256;6,89
644,496;6,9
644,737;6,91
644,977;6,93
645,217;6,93
645,457;6,95
645,697;6,97
645,938;6,98
646,178;6,99
646,418;7,01
646,658;7,02
646,898;7,04
647,138;7,05
647,378;7,08
647,618;7,09
647,858;7,11
648,098;7,11
648,338;7,14
648,578;7,15
648,818;7,16
649,057;7,18
649,297;7,21
649,537;7,23
649,777;7,25
650,017;7,26
650,257;7,29
650,496;7,3
650,736;7,32
650,976;7,33
661,267;8,38
661,506;8,41
661,744;8,43
661,983;8,46
662,222;8,5
662,461;8,53
662,7;8,57
662,939;8,59
663,177;8,62
663,416;8,64
663,655;8,67
663,894;8,7
664,132;8,73
664,371;8,77
664,61;8,79
664,848;8,84
665,087;8,86
665,326;8,9
665,564;8,93
665,803;8,98
666,041;9
666,28;9,03
666,518;9,07
666,757;9,11
666,995;9,15
667,234;9,19
667,472;9,23
667,711;9,28
667,949;9,31
668,187;9,35
668,426;9,4
668,664;9,43
668,902;9,46
669,141;9,51
669,379;9,54
669,617;9,6
669,856;9,65
670,094;9,69
670,332;9,74
670,57;9,8
670,808;9,84
671,046;9,9
671,285;9,95
671,523;10
671,761;10,04
671,999;10,09
672,237;10,13
672,475;10,17
672,713;10,21
672,951;10,26
673,189;10,3
673,427;10,35
673,665;10,4
673,903;10,46
674,141;10,51
674,379;10,57
674,617;10,61
674,854;10,66
675,092;10,72
675,33;10,79
675,568;10,82
675,806;10,88
676,043;10,95
676,281;11,01
676,519;11,06
676,756;11,11
676,994;11,17
677,232;11,23
677,469;11,29
677,707;11,36
677,945;11,44
678,182;11,52
678,42;11,58
678,657;11,65
678,895;11,71
679,132;11,78
679,37;11,85
679,607;11,92
679,845;11,99
680,082;12,06
680,32;12,13
680,557;12,22
680,794;12,28
681,032;12,35
681,269;12,42
681,507;12,51
681,744;12,59
681,981;12,67
682,218;12,75
682,456;12,83
682,693;12,91
682,93;12,98
683,167;13,06
683,404;13,16
683,642;13,24
683,879;13,33
684,116;13,41
684,353;13,51
684,59;13,59
684,827;13,68
685,064;13,76
685,301;13,85
685,538;13,92
685,775;14,01
686,012;14,09
686,249;14,18
686,486;14,26
686,723;14,35
686,96;14,44
687,197;14,54
687,433;14,63
687,67;14,72
687,907;14,82
688,144;14,91
688,381;15
688,617;15,09
688,854;15,17
689,091;15,26
689,327;15,37
689,564;15,46
689,801;15,56
690,037;15,66
690,274;15,76
690,511;15,87
690,747;15,97
690,984;16,08
691,22;16,17
691,457;16,29
691,693;16,39
691,93;16,49
692,166;16,59
692,403;16,69
692,639;16,79
692,876;16,9
693,112;17,01
693,348;17,12
693,585;17,23
693,821;17,35
694,057;17,46
694,294;17,56
694,53;17,68
694,766;17,79
695,002;17,9
695,239;18,01
695,475;18,12
695,711;18,24
695,947;18,35
696,183;18,48
696,419;18,59
696,656;18,72
696,892;18,84
697,128;18,97
697,364;19,1
697,6;19,23
697,836;19,35
698,072;19,48
698,308;19,61
698,544;19,73
698,78;19,85
699,016;19,98
699,251;20,11
699,487;20,25
699,723;20,36
699,959;20,51
700,195;20,63
700,431;20,76
700,666;20,89
700,902;21,05
701,138;21,18
701,374;21,32
701,609;21,46
701,845;21,59
702,081;21,71
702,316;21,85
702,552;21,99
702,788;22,13
703,023;22,25
703,259;22,39
703,494;22,54
703,73;22,69
703,965;22,84
704,201;22,99
704,436;23,14
704,672;23,31
704,907;23,45
705,143;23,62
705,378;23,77
705,613;23,94
705,849;24,08
706,084;24,24
706,319;24,37
706,555;24,51
706,79;24,64
707,025;24,82
707,26;24,96
707,496;25,12
707,731;25,27
707,966;25,44
708,201;25,6
708,436;25,74
708,671;25,89
708,907;26,03
709,142;26,18
709,377;26,34
709,612;26,48
709,847;26,62
710,082;26,76
710,317;26,91
710,552;27,07
710,787;27,23
711,022;27,37
711,257;27,55
711,492;27,7
711,726;27,88
711,961;28,02
712,196;28,18
712,431;28,34
712,666;28,49
712,901;28,64
713,135;28,79
713,37;28,96
713,605;29,12
713,839;29,29
714,074;29,46
714,309;29,62
714,543;29,8
714,778;29,98
715,013;30,15
715,247;30,31
715,482;30,47
715,716;30,64
715,951;30,8
716,185;30,97
716,42;31,14
716,654;31,31
716,889;31,47
717,123;31,64
717,358;31,81
717,592;31,97
717,827;32,13
718,061;32,3
718,295;32,45
718,53;32,62
718,764;32,78
718,998;32,94
719,232;33,1
719,467;33,25
719,701;33,41
719,935;33,56
720,169;33,71
720,403;33,86
720,638;34,04
720,872;34,2
721,106;34,35
721,34;34,5
721,574;34,66
721,808;34,82
722,042;34,98
722,276;35,14
722,51;35,3
722,744;35,46
722,978;35,63
723,212;35,81
723,446;35,98
723,68;36,16
723,914;36,33
724,147;36,47
724,381;36,64
724,615;36,81
724,849;36,98
725,083;37,17
725,316;37,32
725,55;37,48
725,784;37,67
726,018;37,86
726,251;38,04
726,485;38,21
726,719;38,37
726,952;38,54
727,186;38,7
727,419;38,86
727,653;39,05
727,887;39,2
728,12;39,37
728,354;39,53
728,587;39,7
728,821;39,85
729,054;40,02
729,287;40,19
729,521;40,34
729,754;40,49
729,988;40,65
730,221;40,8
730,454;40,96
730,688;41,1
730,921;41,22
731,154;41,37
731,387;41,52
731,621;41,68
731,854;41,81
732,087;41,97
732,32;42,12
732,553;42,26
732,787;42,43
733,02;42,55
733,253;42,7
733,486;42,82
733,719;42,97
733,952;43,1
734,185;43,25
734,418;43,4
734,651;43,55
734,884;43,67
735,117;43,83
735,35;43,97
735,583;44,11
735,816;44,24
736,049;44,38
736,281;44,51
736,514;44,67
736,747;44,79
736,98;44,91
737,213;45,04
737,445;45,15
737,678;45,25
737,911;45,37
738,144;45,48
738,376;45,61
738,609;45,72
738,842;45,85
739,074;45,96
739,307;46,06
739,539;46,16
739,772;46,29
740,004;46,4
740,237;46,49
740,469;46,61
740,702;46,74
740,934;46,85
741,167;46,96
741,399;47,04
741,632;47,19
741,864;47,3
742,096;47,41
742,329;47,53
742,561;47,66
742,793;47,78
743,026;47,91
743,258;48,02
743,49;48,16
743,723;48,26
743,955;48,37
744,187;48,47
744,419;48,6
744,651;48,69
744,883;48,78
745,115;48,92
745,348;49
745,58;49,09
745,812;49,19
746,044;49,31
746,276;49,44
746,508;49,52
746,74;49,63
746,972;49,73
747,204;49,84
747,436;49,91
747,667;50,01
747,899;50,09
748,131;50,19
748,363;50,27
748,595;50,36
748,827;50,44
749,058;50,53
749,29;50,6
749,522;50,68
749,754;50,77
749,985;50,83
750,217;50,91
750,449;51,01
750,68;51,09
750,912;51,14
751,144;51,2
751,375;51,29
751,607;51,35
751,838;51,43
752,07;51,49
752,301;51,56
752,533;51,63
752,764;51,71
752,996;51,79
753,227;51,84
753,459;51,89
753,69;51,98
753,921;52,05
754,153;52,13
754,384;52,22
754,615;52,28
754,847;52,36
755,078;52,45
755,309;52,5
755,54;52,53
755,772;52,58
756,003;52,66
756,234;52,72
756,465;52,78
756,696;52,82
756,927;52,92
757,159;52,98
757,39;53,05
757,621;53,12
757,852;53,15
758,083;53,22
758,314;53,29
758,545;53,33
758,776;53,41
759,007;53,46
759,238;53,48
759,469;53,51
759,699;53,58
759,93;53,63
760,161;53,7
760,392;53,78
760,623;53,85
760,854;53,9
761,084;53,96
761,315;54,03
761,546;54,09
761,776;54,12
762,007;54,18
762,238;54,21
762,468;54,22
762,699;54,3
762,93;54,38
763,16;54,44
763,391;54,48
763,621;54,52
763,852;54,56
764,083;54,62
764,313;54,68
764,543;54,7
764,774;54,75
765,004;54,78
765,235;54,83
765,465;54,87
765,696;54,92
765,926;54,94
766,156;54,97
766,387;55,04
766,617;55,09
766,847;55,13
767,077;55,18
767,308;55,26
767,538;55,3
767,768;55,32
767,998;55,39
768,228;55,45
768,459;55,52
768,689;55,58
768,919;55,65
769,149;55,7
769,379;55,75
769,609;55,77
769,839;55,83
770,069;55,89
770,299;55,92
770,529;55,94
770,759;56
770,989;56,04
771,219;56,05
771,449;56,11
771,678;56,14
771,908;56,18
772,138;56,2
772,368;56,23
772,598;56,26
772,827;56,26
773,057;56,28
773,287;56,32
773,517;56,34
773,746;56,37
773,976;56,41
774,206;56,46
774,435;56,48
774,665;56,49
774,894;56,51
775,124;56,55
775,354;56,57
775,583;56,59
775,813;56,62
776,042;56,65
776,272;56,67
776,501;56,71
776,73;56,74
776,96;56,76
777,189;56,79
777,419;56,81
777,648;56,82
777,877;56,85
778,107;56,86
778,336;56,91
778,565;56,91
778,794;56,91
779,024;56,96
779,253;56,97
779,482;57,01
779,711;57,04
779,94;57,07
780,17;57,09
780,399;57,1
780,628;57,14
780,857;57,17
781,086;57,17
781,315;57,19
781,544;57,21
781,773;57,24
782,002;57,26
782,231;57,31
782,46;57,35
782,689;57,38
782,918;57,4
783,147;57,4
783,375;57,43
783,604;57,44
783,833;57,41
784,062;57,46
784,291;57,46
784,519;57,46
784,748;57,49
784,977;57,52
785,206;57,54
785,434;57,53
785,663;57,55
785,892;57,59
786,12;57,61
786,349;57,64
786,577;57,68
786,806;57,7
787,034;57,7
787,263;57,7
787,492;57,74
787,72;57,76
787,948;57,77
788,177;57,79
788,405;57,8
788,634;57,84
788,862;57,87
789,09;57,9
789,319;57,91
789,547;57,91
789,775;57,91
790,004;57,9
790,232;57,93
790,46;57,92
790,688;57,94
790,917;57,95
791,145;57,97
791,373;57,97
791,601;57,99
791,829;57,98
792,057;57,98
792,286;57,97
792,514;57,96
792,742;57,97
792,97;57,98
793,198;58,01
793,426;58,01
793,654;57,99
793,882;58,01
794,109;58,04
794,337;58,06
794,565;58,09
794,793;58,11
795,021;58,1
795,249;58,11
795,477;58,11
795,704;58,14
795,932;58,13
796,16;58,14
796,388;58,14
796,615;58,18
796,843;58,19
797,071;58,19
797,298;58,23
797,526;58,23
797,754;58,23
797,981;58,25
798,209;58,25
798,436;58,24
798,664;58,26
798,891;58,28
799,119;58,3
799,346;58,31
799,574;58,33
799,801;58,36
800,029;58,4
800,256;58,4
800,483;58,4
800,711;58,41
800,938;58,42
801,165;58,44
801,393;58,44
801,62;58,45
801,847;58,46
802,074;58,43
802,302;58,44
802,529;58,47
802,756;58,46
802,983;58,5
803,21;58,53
803,437;58,54
803,665;58,53
803,892;58,53
804,119;58,56
804,346;58,58
804,573;58,58
804,8;58,57
805,027;58,57
805,254;58,57
805,481;58,56
805,708;58,56
805,934;58,55
806,161;58,57
806,388;58,57
806,615;58,59
806,842;58,61
807,069;58,65
807,295;58,66
807,522;58,67
807,749;58,67
807,976;58,68
808,202;58,66
808,429;58,63
808,656;58,61
808,882;58,62
809,109;58,65
809,335;58,67
809,562;58,66
809,789;58,67
810,015;58,67
810,242;58,68
810,468;58,69
810,695;58,7
810,921;58,7
811,147;58,73
811,374;58,77
811,6;58,8
811,827;58,79
812,053;58,78
812,279;58,78
812,506;58,76
812,732;58,77
812,958;58,8
813,185;58,84
813,411;58,82
813,637;58,8
813,863;58,79
814,089;58,78
814,315;58,82
814,542;58,83
814,768;58,84
814,994;58,87
815,22;58,87
815,446;58,91
815,672;58,9
815,898;58,92
816,124;58,89
816,35;58,86
816,576;58,89
816,802;58,91
817,028;58,93
817,254;58,97
817,48;58,99
817,705;59
817,931;59,01
818,157;59,08
818,383;59,07
818,609;59,05
818,834;59,06
819,06;59,06
819,286;59,08
819,512;59,1
819,737;59,1
819,963;59,1
820,189;59,11
820,414;59,12
820,64;59,1
820,865;59,07
821,091;59,09
821,316;59,08
821,542;59,08
821,767;59,07
821,993;59,11
822,218;59,09
822,444;59,08
822,669;59,09
822,895;59,11
823,12;59,13
823,345;59,16
823,571;59,14
823,796;59,17
824,021;59,19
824,247;59,2
824,472;59,22
824,697;59,23
824,922;59,21
825,147;59,24
825,373;59,26
825,598;59,3
825,823;59,29
826,048;59,29
826,273;59,29
826,498;59,29
826,723;59,27
826,948;59,26
827,173;59,24
827,398;59,24
827,623;59,22
827,848;59,22
828,073;59,22
828,298;59,26
828,523;59,26
828,748;59,23
828,973;59,21
829,197;59,21
829,422;59,18
829,647;59,2
829,872;59,19
830,097;59,2
830,321;59,24
830,546;59,28
830,771;59,29
830,995;59,34
831,22;59,36
831,445;59,38
831,669;59,42
831,894;59,44
832,118;59,49
832,343;59,49
832,567;59,51
832,792;59,5
833,016;59,5
833,241;59,51
833,465;59,49
833,69;59,53
833,914;59,52
834,139;59,58
834,363;59,58
834,587;59,59
834,812;59,64
835,036;59,62
835,26;59,62
835,485;59,6
835,709;59,56
835,933;59,55
836,157;59,56
836,381;59,57
836,606;59,59
836,83;59,56
837,054;59,55
837,278;59,55
837,502;59,52
837,726;59,51
837,95;59,5
838,174;59,52
838,398;59,52
838,622;59,53
838,846;59,52
839,07;59,52
839,294;59,52
839,518;59,48
839,742;59,46
839,966;59,45
840,189;59,51
840,413;59,52
840,637;59,57
840,861;59,56
841,085;59,56
841,308;59,57
841,532;59,58
841,756;59,59
841,979;59,58
842,203;59,67
842,427;59,69
842,65;59,72
842,874;59,74
843,098;59,73
843,321;59,77
843,545;59,81
843,768;59,81
843,992;59,81
844,215;59,81
844,439;59,84
844,662;59,92
844,886;59,91
845,109;59,92
845,332;59,92
845,556;59,92
845,779;59,91
846,002;59,85
846,226;59,83
846,449;59,85
846,672;59,86
846,895;59,85
847,119;59,87
847,342;59,88
847,565;59,92
847,788;59,94
848,011;59,92
848,234;59,92
848,457;59,95
848,681;59,97
848,904;59,97
849,127;59,98
849,35;59,96
849,573;59,98
849,796;60
850,019;60,01
850,241;60,04
850,464;60,07
850,687;60,15
850,91;60,21
851,133;60,26
851,356;60,32
851,579;60,34
851,801;60,3
852,024;60,28
852,247;60,25
852,47;60,27
852,692;60,24
852,915;60,24
853,138;60,23
853,36;60,29
853,583;60,27
853,806;60,29
854,028;60,27
854,251;60,24
854,473;60,23
854,696;60,24
854,918;60,27
855,141;60,26
855,363;60,25
855,586;60,24
855,808;60,22
856,031;60,19
856,253;60,18
856,475;60,27
856,698;60,26
856,92;60,26
857,142;60,22
857,365;60,28
857,587;60,24
857,809;60,28
858,031;60,21
858,253;60,26
858,476;60,26
858,698;60,31
858,92;60,35
859,142;60,41
859,364;60,41
859,586;60,43
859,808;60,44
860,03;60,46
860,252;60,48
860,474;60,49
860,696;60,52
860,918;60,5
861,14;60,5
861,362;60,52
861,584;60,54
861,806;60,56
862,028;60,58
862,25;60,64
862,471;60,66
862,693;60,71
862,915;60,69
863,137;60,72
863,358;60,7
863,58;60,68
863,802;60,64
864,024;60,62
864,245;60,58
864,467;60,64
864,688;60,64
864,91;60,64
865,132;60,64
865,353;60,63
865,575;60,68
865,796;60,65
866,018;60,66
866,239;60,67
866,461;60,67
866,682;60,66
866,903;60,64
867,125;60,64
867,346;60,65
867,567;60,67
867,789;60,65
868,01;60,61
868,231;60,61
868,453;60,61
868,674;60,62
868,895;60,64
869,116;60,61
869,337;60,57
869,559;60,54
869,78;60,54
870,001;60,55
870,222;60,52
870,443;60,54
870,664;60,55
870,885;60,58
871,106;60,61
871,327;60,57
871,548;60,57
871,769;60,59
871,99;60,57
872,211;60,57
872,432;60,57
872,653;60,58
872,874;60,62
873,094;60,7
873,315;60,67
873,536;60,67
873,757;60,64
873,978;60,64
874,198;60,64
874,419;60,65
874,64;60,65
874,86;60,7
875,081;60,73
875,302;60,73
875,522;60,75
875,743;60,78
875,963;60,84
876,184;60,81
876,404;60,77
876,625;60,77
876,845;60,8
877,066;60,77
877,286;60,81
877,507;60,85
877,727;60,8
877,947;60,81
878,168;60,87
878,388;60,92
878,609;60,92
878,829;60,93
879,049;60,9
879,269;60,89
879,49;60,84
879,71;60,83
879,93;60,83
880,15;60,78
880,37;60,77
880,59;60,81
880,811;60,88
881,031;60,91
881,251;60,92
881,471;60,92
881,691;60,95
881,911;60,95
882,131;60,93
882,351;60,93
882,571;60,97
882,791;60,87
883,011;60,83
883,23;60,9
883,45;60,89
883,67;60,93
883,89;60,92
884,11;61
884,33;61,03
884,549;61,07
884,769;61,19
884,989;61,17
885,209;61,12
885,428;61,13
885,648;61,11
885,868;61,12
886,087;61,14
886,307;61,15
886,526;61,19
886,746;61,2
886,965;61,17
887,185;61,17
887,404;61,23
887,624;61,35
887,843;61,3
888,063;61,41
888,282;61,42
888,502;61,43
888,721;61,36
888,94;61,38
889,16;61,37
889,379;61,29
889,598;61,34
889,818;61,36
890,037;61,34
890,256;61,38
890,475;61,37
890,694;61,42
890,914;61,42
891,133;61,47
891,352;61,46
891,571;61,59
891,79;61,63
892,009;61,63
892,228;61,54
892,447;61,64
892,666;61,62
892,885;61,62
893,104;61,68
893,323;61,77
893,542;61,77
893,761;61,74
893,98;61,73
894,199;61,74
894,417;61,74
894,636;61,8
894,855;61,81
895,074;61,87
895,293;61,86
895,511;61,88
895,73;61,85
895,949;61,89
896,167;61,87
896,386;61,87
896,605;61,91
896,823;61,98
897,042;61,94
897,26;61,92
897,479;61,96
897,697;61,88
897,916;61,9
898,134;61,88
898,353;61,95
898,571;62,01
898,79;61,96
899,008;62,04
899,227;62
899,445;62,02
899,663;62,02
899,882;62,02
900,1;62,01
900,318;62,1
900,536;62,16
900,755;62,14
900,973;62,14
901,191;62,13
901,409;62,16
901,627;62,16
901,846;62,21
902,064;62,2
902,282;62,25
902,5;62,27
902,718;62,29
902,936;62,31
903,154;62,32
903,372;62,46
903,59;62,44
903,808;62,5
904,026;62,54
904,244;62,57
904,462;62,56
904,679;62,62
904,897;62,56
905,115;62,56
905,333;62,6
905,551;62,62
905,768;62,65
905,986;62,66
906,204;62,75
906,422;62,81
906,639;62,85
906,857;62,89
907,074;62,87
907,292;62,81
907,51;62,8
907,727;62,83
907,945;62,73
908,162;62,76
908,38;62,73
908,597;62,75
908,815;62,79
909,032;62,9
909,25;62,82
909,467;62,91
909,684;62,93
909,902;62,95
910,119;63,03
910,337;63,06
910,554;63,12
910,771;63,01
910,988;63
911,206;63,07
911,423;63,12
911,64;63,13
911,857;63,27
912,074;63,29
912,291;63,35
912,509;63,4
912,726;63,4
912,943;63,41
913,16;63,35
913,377;63,41
913,594;63,26
913,811;63,31
914,028;63,29
914,245;63,3
914,462;63,29
914,679;63,31
914,896;63,34
915,112;63,35
915,329;63,44
915,546;63,43
915,763;63,42
915,98;63,36
916,196;63,38
916,413;63,41
916,63;63,49
916,847;63,43
917,063;63,47
917,28;63,48
917,497;63,58
917,713;63,63
917,93;63,54
918,146;63,59
918,363;63,69
918,579;63,68
918,796;63,68
919,012;63,66
919,229;63,64
919,445;63,65
919,662;63,68
919,878;63,72
920,095;63,78
920,311;63,68
920,527;63,77
920,744;63,8
920,96;63,83
921,176;63,87
921,392;63,85
921,609;63,92
921,825;63,91
922,041;63,92
922,257;63,98
922,473;64,16
922,69;64,26
922,906;64,25
923,122;64,31
923,338;64,27
923,554;64,35
923,77;64,37
923,986;64,38
924,202;64,36
924,418;64,38
924,634;64,46
924,85;64,62
925,066;64,71
925,282;64,7
925,497;64,83
925,713;64,82
925,929;64,96
926,145;65
926,361;65,05
926,576;65,1
926,792;65,12
927,008;65,01
927,224;65,02
927,439;65,04
927,655;65,05
927,871;65,08
928,086;65,06
928,302;65,12
928,517;65,18
928,733;65,24
928,948;65,24
929,164;65,16
929,379;65,11
929,595;65,13
929,81;65,14
930,026;65,05
930,241;65,12
930,456;65,07
930,672;65,03
930,887;65,05
931,102;65,06
931,318;65,07
931,533;65,2
931,748;65,26
931,964;65,28
932,179;65,33
932,394;65,4
932,609;65,43
932,824;65,36
933,039;65,37
933,255;65,36
933,47;65,44
933,685;65,45
933,9;65,51
934,115;65,49
934,33;65,53
934,545;65,5
934,76;65,43
934,975;65,46
935,19;65,49
935,404;65,56
935,619;65,59
935,834;65,67
936,049;65,61
936,264;65,65
936,479;65,72
936,693;65,69
936,908;65,79
937,123;65,95
937,338;66,07
937,552;66,08
937,767;66,13
937,982;66,29
938,196;66,42
938,411;66,67
938,625;66,76
938,84;66,74
939,055;66,85
939,269;67,11
939,484;67,31
939,698;67,39
939,912;67,41
940,127;67,58
940,341;67,56
940,556;67,84
940,77;67,92
940,984;68,05
941,199;68,27
941,413;68,46
941,627;68,49
941,842;68,51
942,056;68,93
942,27;68,73
942,484;68,6
942,699;68,88
942,913;68,59
943,127;68,63
943,341;69,16
943,555;69,36
943,769;69,3
943,983;69,32
944,197;69,52
944,411;69,63
944,625;69,7
944,839;69,96
945,053;69,89
945,267;70,03
945,481;70,07
945,695;70,24
945,909;69,8
946,123;70,09
946,336;70,33
946,55;69,94
946,764;70,65
946,978;70,59
947,192;70,47
947,405;70,78
947,619;70,91
947,833;70,84
948,046;70,88
948,26;70,71
948,474;70,46
948,687;70,49
948,901;70,49
949,114;70,47
949,328;70,31
949,541;70,51
949,755;70,38
949,968;70,47
950,182;70,38
950,395;70,44
950,609;70,21
950,822;70,54
951,035;70,63
951,249;70,25
951,462;70,38
951,675;70,31
951,889;70,3
952,102;70,25
952,315;70,29
952,528;70,31
952,741;70,38
952,955;70,72
953,168;70,61
953,381;70,86
953,594;70,92
953,807;70,99
954,02;70,97
954,233;71,09
954,446;71,1
954,659;71,12
954,872;71,37
955,085;71,31
955,298;70,87
955,511;70,94
955,724;70,85
955,937;70,94
956,15;70,99
956,362;70,85
956,575;70,9
956,788;70,77
957,001;70,63
957,214;70,94
957,426;70,78
957,639;70,98
957,852;70,84
958,064;70,82
958,277;70,8
958,49;70,66
958,702;70,49
958,915;70,48
959,127;70,56
959,34;70,33
959,552;70,26
959,765;70,47
959,977;70,74
960,19;70,84
960,402;70,6
960,615;70,78
960,827;70,82
961,039;70,9
961,252;70,91
961,464;71,04
961,676;70,7
961,889;71,07
962,101;70,83
962,313;70,84
962,525;70,68
962,738;70,53
962,95;70,56
963,162;70,98
963,374;70,73
963,586;70,68
963,798;70,6
964,01;70,61
964,222;70,69
964,434;70,35
964,646;70,43
964,858;70,51
965,07;70,46
965,282;70,36
965,494;70,2
965,706;70,47
965,918;70,4
966,13;70,5
966,342;70,3
966,553;70,48
966,765;70,52
966,977;70,58
967,189;70,73
967,401;70,75
967,612;70,36
967,824;70,44
968,036;70,72
968,247;71,05
968,459;71,18
968,67;70,93
968,882;70,83
969,094;70,82
969,305;70,7
969,517;70,56
969,728;70,77
969,94;70,75
970,151;70,55
970,362;70,73
970,574;70,93
970,785;70,78
970,997;70,71
971,208;70,94
971,419;70,88
971,631;71,07
971,842;71,04
972,053;71,21
972,264;71,52
972,476;71,18
972,687;71,04
972,898;71,03
973,109;71,46
973,32;71,73
973,531;71,99
973,742;72,25
973,954;72,34
974,165;72,37
974,376;72,62
974,587;72,86
974,798;72,8
975,009;72,99
975,22;73,02
975,43;73,31
975,641;73,25
975,852;73,61
976,063;73,54
976,274;73,69
976,485;73,63
976,695;73,58
976,906;73,91
977,117;73,78
977,328;74,05
977,538;73,85
977,749;73,89
977,96;73,98
978,17;74,12
978,381;74,19
978,592;74,07
978,802;73,94
979,013;73,83
979,223;74
979,434;73,87
979,644;74,13
979,855;74,01
980,065;73,92
980,276;73,8
980,486;73,77
980,696;73,76
980,907;74,06
981,117;74,21
981,327;74,21
981,538;74,51
981,748;74,39
981,958;74,29
982,169;74,19
982,379;73,91
982,589;73,92
982,799;74,11
983,009;74,25
983,219;74,48
983,43;74,62
983,64;74,57
983,85;74,53
984,06;74,72
984,27;74,85
984,48;75,04
984,69;75,11
984,9;75,35
985,11;75,43
985,32;75,23
985,529;75,05
985,739;74,88
985,949;74,91
986,159;74,8
986,369;74,98
986,579;75,3
986,788;75,29
986,998;75,19
987,208;75,21
987,417;75,59
987,627;75,47
987,837;75,6
988,046;75,69
988,256;75,89
988,466;75,45
988,675;75,44
988,885;75,45
989,094;75,45
989,304;75,5
989,513;75,56
989,723;75,61
989,932;75,92
990,142;76,06
990,351;75,92
990,56;76,35
990,77;76,08
990,979;75,98
991,188;75,62
991,398;75,75
991,607;75,77
991,816;75,5
992,025;75,53
992,235;75,34
992,444;75,38
992,653;75,28
992,862;75,59
993,071;75,58
993,28;75,37
993,489;75,71
993,698;75,6
993,908;75,83
994,117;75,95
994,326;75,86
994,534;75,95
994,743;76,42
994,952;76,35
995,161;76,91
995,37;77,03
995,579;77,61
995,788;77,49
995,997;77,1
996,205;76,8
996,414;76,55
996,623;76,67
996,832;76,97
997,04;77,08
997,249;76,92
997,458;76,82
997,666;76,93
997,875;76,32
998,084;76,33
998,292;76,34
998,501;76,46
998,709;76,22
998,918;76,02
999,126;76,02
999,335;76,22
999,543;75,8
999,752;75,78
999,96;76,02
1000,169;76,65
1000,377;77,15
1000,585;77,86
1000,794;78,43
1001,002;78,64
1001,21;78,79
1001,418;78,89
1001,627;78,75
1001,835;79,11
1002,043;79,12
1002,251;79,75
1002,459;80,41
1002,668;79,96
1002,876;80,24
1003,084;80,47
1003,292;80,58
1003,5;80,73
1003,708;80,57
1003,916;81,12
1004,124;81,48
1004,332;81,79
1004,54;81,66
1004,748;81,55
1004,956;80,87
1005,163;81,09
1005,371;81,06
1005,579;80,77
1005,787;80,5
1005,995;80,64
1006,202;80,42
1006,41;80,12
1006,618;79,79
1006,826;79,17
1007,033;79,48
1007,241;79,11
1007,449;79,18
1007,656;79,09
1007,864;78,78
1008,071;78,62
1008,279;78,44
1008,486;78,34
1008,694;77,37
1008,901;77,04
1009,109;77,2
1009,316;77,73
1009,524;77,4
1009,731;77,46
1009,938;76,99
1010,146;77,25
1010,353;77,69
1010,56;77,86
1010,768;78,37
1010,975;79,05
1011,182;79,16
1011,389;79,24
1011,597;78,91
1011,804;79,29
1012,011;79,63
1012,218;79,88
1012,425;80,24
1012,632;80,46
1012,839;80,5
1013,046;80,76
1013,253;81,15
1013,46;81,12
1013,667;81,08
1013,874;80,93
1014,081;81,25
1014,288;81,43
1014,495;81,75
1014,702;81,58
1014,909;81,74
1015,116;81,37
1015,323;81,21
1015,529;80,98
1015,736;80,76
1015,943;81,59
1016,15;81,52
1016,356;81,84
1016,563;81,77
1016,77;81,56
1016,976;81,43
1017,183;82,02
1017,389;81,95
1017,596;81,32
1017,803;81,23
1018,009;81,66
1018,216;81,88
1018,422;82,06
1018,629;82,18
1018,835;81,48
1019,041;81,67
1019,248;81,98
1019,454;82,41
1019,661;82,99
1019,867;83,08
1020,073;83,91
1020,279;83,29
1020,486;83,53
1020,692;83,36
1020,898;83,34
1021,104;83,76
1021,311;83,62
1021,517;82,33
1021,723;83,31
1021,929;83,78
1022,135;83,9
1022,341;83,34
1022,547;83,44
1022,753;82,88
1022,959;83,77
1023,165;84,19
1023,371;83,32
1023,577;82,74
1023,783;83,22
1023,989;82,89
1024,195;83,42
1024,401;83,13
1024,607;84,67
1024,812;85,03
1025,018;84,33
1025,224;84,26
1025,43;83,89
1025,635;84,68
1025,841;86,09
1026,047;86,12
1026,252;86,39
1026,458;86,52
1026,664;87,2
1026,869;86,94
1027,075;87,06
1027,28;86,93
1027,486;86,95
1027,691;88,68
1027,897;88,26
1028,102;88,41
1028,308;87,48
1028,513;87,85
1028,719;88,16
1028,924;86,88
1029,129;85,52
1029,335;86,38
1029,54;86,11
1029,745;86
1029,95;85,96
1030,156;85,24
1030,361;85,35
1030,566;86,11
1030,771;85,59
1030,976;85,16
1031,182;85,63
1031,387;85,15
1031,592;85,42
1031,797;85,7
1032,002;84,76
1032,207;85,72
1032,412;84,97
1032,617;84,95
1032,822;83,68
1033,027;83,84
1033,232;83,9
1033,437;85,16
1033,642;86,01
1033,846;87,36
1034,051;87,11
1034,256;87,06
1034,461;87,34
1034,666;87,21
1034,87;87,99
1035,075;88,62
1035,28;89,01
1035,484;88,66
1035,689;89,18
1035,894;88,31
1036,098;87,95
1036,303;88,81
1036,507;88,86
1036,712;89,56
1036,917;91,34
1037,121;92,58
1037,325;91,37
1037,53;91,02
1037,734;91,94
1037,939;92,37
1038,143;91,28
1038,348;92,03
1038,552;91,64
1038,756;91,39
1038,961;92,11
1039,165;89,96
1039,369;89,71
1039,573;90,05
1039,778;91,14
1039,982;91,94
1040,186;93,04
1040,39;94,06
1040,594;92,95
1040,798;92,53
1041,002;92,46
1041,206;91,45
1041,41;92
1041,614;94,3
1041,818;95,92
1042,022;93,67
1042,226;92,98
1042,43;93,11
1042,634;93,61
1042,838;94,26
1043,042;94,02
1043,246;93,32
1043,45;92,32
1043,653;93,15
1043,857;93,4
1044,061;92,23
1044,265;91,64
1044,468;90,92
1044,672;91,48
1044,876;92,6
1045,079;94,43
1045,283;95,84
1045,487;95,42
1045,69;94,99
1045,894;93,34
1046,097;93,48
1046,301;93,69
1046,504;92,82
1046,708;93,03
1046,911;92,79
1047,115;92,72
1047,318;93,57
1047,522;95,04
1047,725;96,85
1047,928;96,26
1048,132;95,69
1048,335;96,25
1048,538;97,65
1048,741;97,5
1048,945;96,91
1049,148;96,55
1049,351;97,09
1049,554;95,53
1049,757;96,32
1049,96;96,2
1050,163;97,83
1050,367;96,43
1050,57;96,96
1050,773;96,14
1050,976;95,68
1051,179;98,21
1051,382;99,58
1051,585;99,71
1051,787;99,64
1051,99;98,45
1052,193;99,53
1052,396;101,58
1052,599;101,85
1052,802;98,18
1053,005;94,46
1053,207;96,24
1053,41;96,35
1053,613;96,06
1053,815;94,65
1054,018;92,32
1054,221;93,02
1054,423;91,93
1054,626;92,1
1054,829;92,55
1055,031;93,68
1055,234;94,98
1055,436;91,23
1055,639;88,28
1055,841;88,08
1056,044;85,66
1056,246;87,2
