Data from lapisWhite_Reflection__0__33.txt Node;
"Date: Fri Sep 12 11:15:02 CEST 2025 User: sycur Spectrometer: SR400348 Trigger mode: 0 Integration Time (sec): 2,000000E-2 Scans to average: 20 Electric dark correction enabled: true Nonlinearity correction enabled: false Boxcar width: 10 XAxis mode: Wavelengths Number of Pixels in Spectrum: 3648 >>>>>Begin Spectral Data<<<<<";
186,01;-68,3
186,281;-2657,35
186,552;87,26
186,822;37,69
187,093;-200
187,364;-2,65
187,635;4062,77
187,905;66,65
188,176;61,56
188,447;50,66
188,717;42,65
188,988;45,3
189,258;46,99
189,529;50,54
189,8;50,9
190,07;49,01
190,341;49,93
190,611;46,1
190,882;45,69
191,152;45,62
191,423;45,59
191,693;44,92
191,964;45,7
192,234;44,97
192,505;44,18
192,775;44,73
193,045;43,96
193,316;44,05
193,586;43,97
193,856;43,04
194,127;43,29
194,397;43,87
194,667;44,32
194,938;44,17
195,208;43,61
195,478;43,79
195,748;43,22
196,019;42,42
196,289;42,67
196,559;42,65
196,829;42,5
197,099;42,78
197,37;42,9
197,64;42,89
197,91;43,19
198,18;43,23
198,45;42,57
198,72;43,05
198,99;42,8
199,26;42,83
199,53;43,08
199,8;43,11
200,07;43,14
200,34;42,66
200,61;42,64
200,88;43,03
201,15;42,57
201,42;42,98
201,69;43,29
201,96;43,34
202,23;43,06
202,499;43,09
202,769;43,02
203,039;42,96
203,309;42,64
203,579;42,38
203,849;42,34
204,118;42,44
204,388;42,19
204,658;42,13
204,927;41,84
205,197;41,76
205,467;41,52
205,736;41,29
206,006;41,18
206,276;41,03
206,545;40,6
206,815;40,73
207,085;40,46
207,354;40,23
207,624;40,02
207,893;39,9
208,163;39,7
208,432;39,58
208,702;39,29
208,971;39,38
209,241;39,31
209,51;39,1
209,78;38,96
210,049;38,86
210,318;38,73
210,588;38,66
210,857;38,52
211,127;38,42
211,396;38,38
211,665;38,28
211,935;38,26
212,204;38,27
212,473;38,12
212,742;38,12
213,012;38
213,281;37,97
213,55;37,88
213,819;37,93
214,088;37,81
214,358;37,89
214,627;37,83
214,896;37,79
215,165;37,76
215,434;37,74
215,703;37,63
215,972;37,59
216,241;37,59
216,51;37,6
216,779;37,62
217,048;37,71
217,317;37,77
217,586;37,81
217,855;37,86
218,124;37,92
218,393;37,95
218,662;38,05
218,931;38,16
219,2;38,26
219,469;38,26
219,738;38,39
220,006;38,46
220,275;38,55
220,544;38,65
220,813;38,78
221,082;38,9
221,35;39,08
221,619;39,21
221,888;39,35
222,157;39,45
222,425;39,59
222,694;39,66
222,963;39,79
223,231;39,94
223,5;40,13
223,769;40,25
224,037;40,39
224,306;40,58
224,574;40,75
224,843;40,91
225,111;41,1
225,38;41,21
225,648;41,37
225,917;41,48
226,185;41,63
226,454;41,75
226,722;41,88
226,991;42,01
227,259;42,15
227,528;42,25
227,796;42,43
228,064;42,53
228,333;42,66
228,601;42,8
228,869;42,89
229,138;42,95
229,406;43,08
229,674;43,17
229,942;43,26
230,211;43,3
230,479;43,38
230,747;43,42
231,015;43,5
231,283;43,59
231,552;43,65
231,82;43,71
232,088;43,78
232,356;43,84
232,624;43,87
232,892;43,91
233,16;43,97
233,428;43,98
233,696;44,06
233,964;44,08
234,232;44,07
234,5;44,11
234,768;44,14
235,036;44,14
235,304;44,16
235,572;44,15
235,84;44,18
236,108;44,17
236,376;44,18
236,644;44,2
236,912;44,19
237,179;44,21
237,447;44,23
237,715;44,24
237,983;44,25
238,251;44,26
238,518;44,26
238,786;44,27
239,054;44,26
239,322;44,24
239,589;44,26
239,857;44,26
240,125;44,31
240,392;44,33
240,66;44,34
240,927;44,33
241,195;44,33
241,463;44,33
241,73;44,33
241,998;44,34
242,265;44,34
242,533;44,32
242,8;44,3
243,068;44,29
243,335;44,27
243,603;44,25
243,87;44,22
244,138;44,2
244,405;44,19
244,672;44,19
244,94;44,17
245,207;44,14
245,474;44,15
245,742;44,1
246,009;44,08
246,276;44,05
246,544;44,04
246,811;44,01
247,078;43,98
247,345;43,97
247,613;43,92
247,88;43,88
248,147;43,87
248,414;43,83
248,681;43,81
248,948;43,78
249,215;43,76
249,483;43,75
249,75;43,73
250,017;43,69
250,284;43,65
250,551;43,61
250,818;43,59
251,085;43,54
251,352;43,51
251,619;43,47
251,886;43,45
252,153;43,4
252,42;43,38
252,687;43,35
252,953;43,31
253,22;43,31
253,487;43,28
253,754;43,25
254,021;43,23
254,288;43,18
254,555;43,15
254,821;43,12
255,088;43,07
255,355;43,06
255,622;43,03
255,888;42,99
256,155;42,98
256,422;42,95
256,688;42,93
256,955;42,89
257,222;42,85
257,488;42,83
257,755;42,82
258,022;42,79
258,288;42,77
258,555;42,73
258,821;42,69
259,088;42,68
259,354;42,66
259,621;42,64
259,887;42,65
260,154;42,63
260,42;42,62
260,687;42,62
260,953;42,6
261,219;42,58
261,486;42,58
261,752;42,57
262,019;42,57
262,285;42,56
262,551;42,54
262,818;42,54
263,084;42,52
263,35;42,51
263,616;42,51
263,883;42,5
264,149;42,52
264,415;42,53
264,681;42,52
264,947;42,53
265,214;42,54
265,48;42,53
265,746;42,54
266,012;42,54
266,278;42,55
266,544;42,56
266,81;42,6
267,076;42,62
267,342;42,63
267,608;42,64
267,874;42,66
268,14;42,71
268,406;42,75
268,672;42,78
268,938;42,81
269,204;42,82
269,47;42,84
269,736;42,87
270,002;42,89
270,268;42,93
270,533;42,95
270,799;42,99
271,065;43,02
271,331;43,07
271,597;43,09
271,862;43,15
272,128;43,18
272,394;43,21
272,66;43,23
272,925;43,28
273,191;43,3
273,457;43,33
273,722;43,38
273,988;43,41
274,254;43,46
274,519;43,49
274,785;43,57
275,05;43,62
275,316;43,66
275,582;43,71
275,847;43,75
276,113;43,81
276,378;43,86
276,644;43,92
276,909;43,96
277,174;44,01
277,44;44,08
277,705;44,14
277,971;44,2
278,236;44,28
278,501;44,33
278,767;44,42
279,032;44,49
279,297;44,54
279,563;44,62
279,828;44,69
280,093;44,78
280,358;44,85
280,624;44,93
280,889;44,99
281,154;45,08
281,419;45,15
281,684;45,23
281,95;45,32
282,215;45,41
282,48;45,5
282,745;45,59
283,01;45,64
283,275;45,72
283,54;45,78
283,805;45,88
284,07;45,97
284,335;46,06
284,6;46,14
284,865;46,24
285,13;46,32
285,395;46,4
285,66;46,47
285,925;46,56
286,19;46,66
286,455;46,76
286,72;46,85
286,985;46,97
287,249;47,07
287,514;47,14
287,779;47,26
288,044;47,36
288,309;47,47
288,573;47,59
288,838;47,7
289,103;47,82
289,367;47,9
289,632;48,02
289,897;48,15
290,161;48,25
290,426;48,36
290,691;48,46
290,955;48,56
291,22;48,69
291,484;48,81
291,749;48,92
292,014;49,05
292,278;49,16
292,543;49,27
292,807;49,38
293,072;49,5
293,336;49,61
293,6;49,73
293,865;49,83
294,129;49,94
294,394;50,07
294,658;50,19
294,922;50,32
295,187;50,43
295,451;50,54
295,715;50,67
295,98;50,81
296,244;50,94
296,508;51,07
296,773;51,19
297,037;51,32
297,301;51,44
297,565;51,55
297,829;51,67
298,094;51,8
298,358;51,94
298,622;52,04
298,886;52,17
299,15;52,28
299,414;52,42
299,678;52,57
299,942;52,69
300,206;52,81
300,47;52,94
300,734;53,07
300,998;53,2
301,262;53,32
301,526;53,43
301,79;53,56
302,054;53,67
302,318;53,78
302,582;53,9
302,846;54,04
303,11;54,18
303,374;54,33
303,637;54,46
303,901;54,58
304,165;54,74
304,429;54,87
304,693;54,99
304,956;55,11
305,22;55,23
305,484;55,36
305,747;55,47
306,011;55,6
306,275;55,7
306,538;55,82
306,802;55,94
307,066;56,07
307,329;56,2
307,593;56,32
307,856;56,47
308,12;56,6
308,384;56,71
308,647;56,82
308,911;56,93
309,174;57,04
309,438;57,16
309,701;57,27
309,964;57,38
310,228;57,52
310,491;57,63
310,755;57,75
311,018;57,87
311,281;57,99
311,545;58,11
311,808;58,23
312,071;58,33
312,335;58,45
312,598;58,56
312,861;58,67
313,124;58,78
313,388;58,89
313,651;59
313,914;59,1
314,177;59,21
314,44;59,33
314,704;59,45
314,967;59,55
315,23;59,64
315,493;59,74
315,756;59,84
316,019;59,93
316,282;60,05
316,545;60,13
316,808;60,24
317,071;60,34
317,334;60,44
317,597;60,54
317,86;60,66
318,123;60,76
318,386;60,85
318,649;60,94
318,912;61,02
319,175;61,08
319,437;61,16
319,7;61,26
319,963;61,33
320,226;61,4
320,489;61,48
320,751;61,55
321,014;61,63
321,277;61,72
321,54;61,81
321,802;61,9
322,065;61,99
322,328;62,07
322,59;62,15
322,853;62,24
323,116;62,31
323,378;62,38
323,641;62,46
323,903;62,55
324,166;62,63
324,428;62,7
324,691;62,82
324,953;62,9
325,216;62,98
325,478;63,06
325,741;63,14
326,003;63,23
326,266;63,3
326,528;63,37
326,791;63,44
327,053;63,52
327,315;63,58
327,578;63,63
327,84;63,69
328,102;63,76
328,365;63,83
328,627;63,93
328,889;63,98
329,151;64,04
329,414;64,11
329,676;64,19
329,938;64,25
330,2;64,31
330,462;64,37
330,725;64,45
330,987;64,49
331,249;64,54
331,511;64,6
331,773;64,68
332,035;64,74
332,297;64,81
332,559;64,85
332,821;64,9
333,083;64,97
333,345;65,01
333,607;65,05
333,869;65,08
334,131;65,13
334,393;65,17
334,655;65,25
334,917;65,3
335,179;65,33
335,44;65,4
335,702;65,44
335,964;65,5
336,226;65,55
336,488;65,65
336,749;65,73
337,011;65,78
337,273;65,87
337,535;65,93
337,796;65,98
338,058;66,08
338,32;66,13
338,581;66,18
338,843;66,28
339,105;66,36
339,366;66,42
339,628;66,48
339,889;66,55
340,151;66,59
340,412;66,64
340,674;66,71
340,935;66,76
341,197;66,83
341,458;66,88
341,72;66,94
341,981;66,98
342,243;67,02
342,504;67,09
342,766;67,09
343,027;67,13
343,288;67,16
343,55;67,17
343,811;67,21
344,072;67,25
344,334;67,28
344,595;67,32
344,856;67,38
345,117;67,43
345,379;67,48
345,64;67,52
345,901;67,58
346,162;67,63
346,423;67,66
346,684;67,67
346,946;67,72
347,207;67,74
347,468;67,76
347,729;67,8
347,99;67,81
348,251;67,87
348,512;67,93
348,773;67,96
349,034;67,99
349,295;68,02
349,556;68,06
349,817;68,1
350,078;68,13
350,339;68,17
350,6;68,21
350,86;68,24
351,121;68,28
351,382;68,33
351,643;68,35
351,904;68,38
352,165;68,44
352,425;68,48
352,686;68,56
352,947;68,64
353,208;68,71
353,468;68,79
353,729;68,82
353,99;68,84
354,25;68,89
354,511;68,96
354,772;69,04
355,032;69,07
355,293;69,12
355,553;69,17
355,814;69,21
356,074;69,24
356,335;69,27
356,596;69,3
356,856;69,34
357,116;69,38
357,377;69,44
357,637;69,49
357,898;69,54
358,158;69,56
358,419;69,59
358,679;69,6
358,939;69,63
359,2;69,66
359,46;69,69
359,72;69,75
359,981;69,79
360,241;69,8
360,501;69,88
360,761;69,91
361,022;69,94
361,282;69,99
361,542;70,06
361,802;70,12
362,062;70,2
362,323;70,2
362,583;70,24
362,843;70,27
363,103;70,3
363,363;70,33
363,623;70,38
363,883;70,39
364,143;70,45
364,403;70,49
364,663;70,54
364,923;70,6
365,183;70,64
365,443;70,69
365,703;70,73
365,963;70,75
366,223;70,78
366,483;70,81
366,743;70,87
367,002;70,9
367,262;70,93
367,522;70,96
367,782;71,03
368,042;71,09
368,301;71,14
368,561;71,18
368,821;71,23
369,081;71,25
369,34;71,3
369,6;71,35
369,86;71,39
370,119;71,44
370,379;71,48
370,638;71,52
370,898;71,55
371,158;71,6
371,417;71,64
371,677;71,69
371,936;71,74
372,196;71,77
372,455;71,8
372,715;71,85
372,974;71,88
373,234;71,9
373,493;71,97
373,753;71,99
374,012;72,05
374,271;72,06
374,531;72,11
374,79;72,13
375,049;72,19
375,309;72,22
375,568;72,27
375,827;72,31
376,086;72,36
376,346;72,41
376,605;72,45
376,864;72,51
377,123;72,55
377,383;72,6
377,642;72,63
377,901;72,67
378,16;72,69
378,419;72,74
378,678;72,78
378,937;72,79
379,196;72,83
379,455;72,83
379,714;72,88
379,973;72,91
380,232;73
380,491;73
380,75;73,01
381,009;73,05
381,268;73,09
381,527;73,13
381,786;73,14
382,045;73,21
382,304;73,26
382,563;73,27
382,821;73,31
383,08;73,38
383,339;73,43
383,598;73,48
383,857;73,53
384,115;73,61
384,374;73,66
384,633;73,71
384,891;73,76
385,15;73,79
385,409;73,85
385,667;73,88
385,926;73,9
386,185;73,96
386,443;73,99
386,702;74,05
386,96;74,1
387,219;74,15
387,477;74,17
387,736;74,19
387,994;74,27
388,253;74,29
388,511;74,28
388,77;74,29
389,028;74,32
389,287;74,36
389,545;74,4
389,803;74,43
390,062;74,5
390,32;74,54
390,578;74,58
390,837;74,6
391,095;74,65
391,353;74,73
391,612;74,76
391,87;74,81
392,128;74,83
392,386;74,86
392,644;74,91
392,903;74,93
393,161;74,93
393,419;74,97
393,677;75,04
393,935;75,12
394,193;75,17
394,451;75,26
394,709;75,31
394,967;75,31
395,225;75,33
395,483;75,36
395,741;75,41
395,999;75,49
396,257;75,56
396,515;75,61
396,773;75,65
397,031;75,7
397,289;75,77
397,547;75,8
397,805;75,85
398,062;75,89
398,32;75,97
398,578;76,05
398,836;76,09
399,094;76,12
399,351;76,14
399,609;76,19
399,867;76,21
400,124;76,24
400,382;76,34
400,64;76,41
400,897;76,48
401,155;76,53
401,413;76,63
401,67;76,68
401,928;76,73
402,185;76,8
402,443;76,88
402,701;76,91
402,958;76,97
403,216;76,99
403,473;77,04
403,73;77,07
403,988;77,13
404,245;77,19
404,503;77,26
404,76;77,33
405,018;77,4
405,275;77,46
405,532;77,52
405,79;77,56
406,047;77,63
406,304;77,69
406,561;77,75
406,819;77,77
407,076;77,83
407,333;77,86
407,59;77,92
407,848;77,98
408,105;78,07
408,362;78,15
408,619;78,25
408,876;78,35
409,133;78,45
409,39;78,52
409,647;78,58
409,904;78,66
410,161;78,72
410,418;78,78
410,675;78,87
410,932;78,94
411,189;79,02
411,446;79,1
411,703;79,16
411,96;79,26
412,217;79,34
412,474;79,43
412,731;79,54
412,988;79,62
413,245;79,71
413,501;79,76
413,758;79,85
414,015;79,93
414,272;80,01
414,529;80,08
414,785;80,18
415,042;80,27
415,299;80,36
415,555;80,44
415,812;80,51
416,069;80,57
416,325;80,66
416,582;80,74
416,838;80,81
417,095;80,89
417,352;80,96
417,608;81,04
417,865;81,12
418,121;81,17
418,378;81,26
418,634;81,33
418,891;81,44
419,147;81,52
419,403;81,6
419,66;81,64
419,916;81,71
420,173;81,77
420,429;81,81
420,685;81,87
420,942;81,93
421,198;82,03
421,454;82,14
421,711;82,19
421,967;82,26
422,223;82,31
422,479;82,42
422,735;82,49
422,992;82,54
423,248;82,62
423,504;82,72
423,76;82,76
424,016;82,84
424,272;82,89
424,528;82,95
424,784;83,05
425,041;83,19
425,297;83,29
425,553;83,35
425,809;83,48
426,065;83,54
426,32;83,7
426,576;83,77
426,832;83,82
427,088;83,93
427,344;84
427,6;84,08
427,856;84,11
428,112;84,2
428,368;84,28
428,623;84,36
428,879;84,43
429,135;84,48
429,391;84,56
429,646;84,63
429,902;84,69
430,158;84,72
430,414;84,77
430,669;84,82
430,925;84,91
431,181;84,99
431,436;85,1
431,692;85,12
431,947;85,19
432,203;85,28
432,458;85,36
432,714;85,47
432,97;85,53
433,225;85,63
433,481;85,67
433,736;85,75
433,991;85,82
434,247;85,88
434,502;85,97
434,758;86,05
435,013;86,13
435,268;86,22
435,524;86,28
435,779;86,35
436,034;86,43
436,29;86,5
436,545;86,53
436,8;86,57
437,056;86,65
437,311;86,7
437,566;86,74
437,821;86,79
438,076;86,85
438,331;86,97
438,587;87,02
438,842;87,15
439,097;87,17
439,352;87,21
439,607;87,28
439,862;87,32
440,117;87,37
440,372;87,42
440,627;87,47
440,882;87,52
441,137;87,54
441,392;87,62
441,647;87,71
441,902;87,78
442,157;87,83
442,412;87,87
442,667;87,9
442,921;87,95
443,176;87,99
443,431;88,02
443,686;88,04
443,941;88,1
444,195;88,1
444,45;88,15
444,705;88,22
444,96;88,24
445,214;88,31
445,469;88,35
445,724;88,38
445,978;88,39
446,233;88,45
446,487;88,51
446,742;88,5
446,997;88,52
447,251;88,52
447,506;88,55
447,76;88,57
448,015;88,6
448,269;88,66
448,524;88,7
448,778;88,72
449,033;88,73
449,287;88,75
449,541;88,78
449,796;88,81
450,05;88,83
450,305;88,86
450,559;88,85
450,813;88,86
451,067;88,88
451,322;88,92
451,576;88,95
451,83;88,94
452,084;88,98
452,339;88,98
452,593;88,98
452,847;89,02
453,101;89,03
453,355;89,07
453,609;89,05
453,864;89,05
454,118;89,04
454,372;89,04
454,626;89,03
454,88;89,04
455,134;89,02
455,388;89,02
455,642;89,01
455,896;89,03
456,15;88,99
456,404;88,99
456,658;88,93
456,912;88,88
457,165;88,85
457,419;88,81
457,673;88,76
457,927;88,74
458,181;88,67
458,435;88,63
458,688;88,6
458,942;88,57
459,196;88,51
459,45;88,48
459,703;88,43
459,957;88,41
460,211;88,33
460,464;88,28
460,718;88,22
460,972;88,18
461,225;88,11
461,479;88,07
461,732;87,98
461,986;87,92
462,239;87,82
462,493;87,76
462,746;87,72
463;87,63
463,253;87,51
463,507;87,43
463,76;87,39
464,014;87,25
464,267;87,15
464,52;87,04
464,774;86,97
465,027;86,89
465,28;86,79
465,534;86,7
465,787;86,62
466,04;86,5
466,294;86,39
466,547;86,28
466,8;86,14
467,053;86,07
467,306;86,01
467,56;85,94
467,813;85,84
468,066;85,71
468,319;85,6
468,572;85,51
468,825;85,39
469,078;85,27
469,331;85,19
469,584;85,05
469,837;84,96
470,09;84,84
470,343;84,66
470,596;84,53
470,849;84,43
471,102;84,29
471,355;84,17
471,608;84,02
471,861;83,88
472,114;83,75
472,367;83,6
472,619;83,39
472,872;83,26
473,125;83,06
473,378;82,91
473,631;82,77
473,883;82,63
474,136;82,47
474,389;82,28
474,641;82,11
474,894;81,97
475,147;81,78
475,399;81,62
475,652;81,49
475,905;81,29
476,157;81,11
476,41;80,92
476,662;80,77
476,915;80,6
477,167;80,44
477,42;80,27
477,672;80,08
477,925;79,93
478,177;79,71
478,43;79,55
478,682;79,35
478,934;79,15
479,187;78,95
479,439;78,75
479,691;78,55
479,944;78,35
480,196;78,16
480,448;77,97
480,701;77,75
480,953;77,56
481,205;77,37
481,457;77,15
481,709;76,94
481,962;76,72
482,214;76,47
482,466;76,21
482,718;75,95
482,97;75,65
483,222;75,35
483,474;75,08
483,726;74,83
483,978;74,58
484,23;74,36
484,482;74,15
484,734;73,97
484,986;73,79
485,238;73,61
485,49;73,42
485,742;73,25
485,994;73,08
486,246;72,9
486,498;72,73
486,75;72,54
487,001;72,38
487,253;72,18
487,505;72
487,757;71,79
488,009;71,58
488,26;71,36
488,512;71,15
488,764;70,93
489,015;70,71
489,267;70,48
489,519;70,28
489,77;70,05
490,022;69,84
490,274;69,61
490,525;69,41
490,777;69,19
491,028;68,98
491,28;68,75
491,531;68,53
491,783;68,3
492,034;68,12
492,286;67,86
492,537;67,64
492,789;67,4
493,04;67,17
493,291;66,92
493,543;66,71
493,794;66,46
494,045;66,22
494,297;66
494,548;65,8
494,799;65,56
495,051;65,34
495,302;65,12
495,553;64,91
495,804;64,69
496,056;64,47
496,307;64,22
496,558;64
496,809;63,77
497,06;63,55
497,311;63,32
497,562;63,11
497,813;62,9
498,064;62,68
498,316;62,49
498,567;62,27
498,818;62,05
499,069;61,86
499,319;61,63
499,57;61,43
499,821;61,21
500,072;61,01
500,323;60,82
500,574;60,59
500,825;60,38
501,076;60,15
501,327;59,94
501,577;59,77
501,828;59,56
502,079;59,36
502,33;59,17
502,58;58,96
502,831;58,73
503,082;58,53
503,333;58,34
503,583;58,1
503,834;57,92
504,084;57,73
504,335;57,51
504,586;57,33
504,836;57,12
505,087;56,93
505,337;56,7
505,588;56,49
505,838;56,3
506,089;56,1
506,339;55,92
506,59;55,74
506,84;55,52
507,091;55,34
507,341;55,13
507,591;54,94
507,842;54,74
508,092;54,56
508,343;54,37
508,593;54,17
508,843;53,98
509,093;53,79
509,344;53,6
509,594;53,42
509,844;53,23
510,094;53,06
510,345;52,87
510,595;52,71
510,845;52,52
511,095;52,33
511,345;52,16
511,595;51,98
511,845;51,8
512,095;51,65
512,345;51,47
512,595;51,32
512,845;51,14
513,095;50,99
513,345;50,84
513,595;50,68
513,845;50,52
514,095;50,36
514,345;50,22
514,595;50,08
514,845;49,93
515,095;49,78
515,345;49,62
515,594;49,47
515,844;49,3
516,094;49,15
516,344;49
516,593;48,84
516,843;48,69
517,093;48,56
517,343;48,39
517,592;48,24
517,842;48,07
518,092;47,94
518,341;47,78
518,591;47,63
518,84;47,5
519,09;47,37
519,34;47,24
519,589;47,1
519,839;46,94
520,088;46,79
520,338;46,64
520,587;46,5
520,836;46,37
521,086;46,25
521,335;46,13
521,585;45,99
521,834;45,86
522,083;45,73
522,333;45,59
522,582;45,49
522,831;45,37
523,081;45,25
523,33;45,12
523,579;45,01
523,828;44,9
524,078;44,78
524,327;44,65
524,576;44,53
524,825;44,41
525,074;44,29
525,323;44,18
525,573;44,09
525,822;43,98
526,071;43,86
526,32;43,76
526,569;43,64
526,818;43,54
527,067;43,43
527,316;43,31
527,565;43,18
527,814;43,06
528,063;42,96
528,312;42,85
528,56;42,74
528,809;42,61
529,058;42,49
529,307;42,38
529,556;42,27
529,805;42,17
530,053;42,07
530,302;41,95
530,551;41,86
530,8;41,74
531,048;41,65
531,297;41,53
531,546;41,41
531,794;41,32
532,043;41,21
532,292;41,12
532,54;41,03
532,789;40,95
533,037;40,85
533,286;40,76
533,535;40,67
533,783;40,58
534,032;40,52
534,28;40,43
534,528;40,33
534,777;40,26
535,025;40,16
535,274;40,07
535,522;39,99
535,771;39,89
536,019;39,81
536,267;39,71
536,516;39,64
536,764;39,57
537,012;39,47
537,26;39,4
537,509;39,33
537,757;39,23
538,005;39,14
538,253;39,06
538,501;38,98
538,75;38,89
538,998;38,84
539,246;38,75
539,494;38,66
539,742;38,59
539,99;38,5
540,238;38,43
540,486;38,37
540,734;38,29
540,982;38,21
541,23;38,12
541,478;38,06
541,726;37,98
541,974;37,91
542,222;37,84
542,47;37,77
542,718;37,69
542,966;37,62
543,213;37,56
543,461;37,5
543,709;37,43
543,957;37,37
544,205;37,3
544,452;37,24
544,7;37,17
544,948;37,1
545,196;37,03
545,443;36,97
545,691;36,89
545,939;36,83
546,186;36,77
546,434;36,72
546,681;36,65
546,929;36,6
547,176;36,54
547,424;36,49
547,671;36,43
547,919;36,39
548,166;36,35
548,414;36,31
548,661;36,26
548,909;36,2
549,156;36,15
549,404;36,1
549,651;36,03
549,898;35,99
550,146;35,95
550,393;35,92
550,64;35,87
550,888;35,83
551,135;35,79
551,382;35,75
551,629;35,71
551,876;35,67
552,124;35,61
552,371;35,57
552,618;35,51
552,865;35,46
553,112;35,39
553,359;35,33
553,606;35,26
553,854;35,2
554,101;35,16
554,348;35,11
554,595;35,05
554,842;35,01
555,089;34,96
555,336;34,9
555,582;34,84
555,829;34,8
556,076;34,76
556,323;34,7
556,57;34,65
556,817;34,6
557,064;34,55
557,311;34,51
557,557;34,46
557,804;34,43
558,051;34,38
558,298;34,34
558,544;34,31
558,791;34,26
559,038;34,21
559,284;34,18
559,531;34,12
559,778;34,08
560,024;34,05
560,271;34,02
560,517;33,98
560,764;33,95
561,011;33,91
561,257;33,87
561,504;33,85
561,75;33,82
561,997;33,78
562,243;33,73
562,489;33,69
562,736;33,66
562,982;33,62
563,229;33,58
563,475;33,54
563,721;33,5
563,968;33,48
564,214;33,45
564,46;33,42
564,707;33,4
564,953;33,38
565,199;33,33
565,445;33,3
565,691;33,27
565,938;33,24
566,184;33,21
566,43;33,17
566,676;33,13
566,922;33,1
567,168;33,07
567,414;33,05
567,66;33,03
567,906;33,01
568,152;32,98
568,398;32,95
568,644;32,92
568,89;32,88
569,136;32,84
569,382;32,79
569,628;32,76
569,874;32,71
570,12;32,68
570,366;32,66
570,612;32,62
570,857;32,58
571,103;32,55
571,349;32,51
571,595;32,48
571,84;32,45
572,086;32,42
572,332;32,38
572,578;32,35
572,823;32,32
573,069;32,28
573,315;32,25
573,56;32,23
573,806;32,21
574,051;32,19
574,297;32,17
574,542;32,17
574,788;32,15
575,034;32,13
575,279;32,11
575,524;32,09
575,77;32,07
576,015;32,05
576,261;32,02
576,506;32
576,752;31,98
576,997;31,94
577,242;31,92
577,488;31,9
577,733;31,88
577,978;31,86
578,223;31,84
578,469;31,82
578,714;31,79
578,959;31,77
579,204;31,75
579,45;31,72
579,695;31,69
579,94;31,66
580,185;31,63
580,43;31,61
580,675;31,58
580,92;31,57
581,165;31,56
581,41;31,54
581,655;31,53
581,9;31,51
582,145;31,5
582,39;31,48
582,635;31,46
582,88;31,45
583,125;31,43
583,37;31,42
583,615;31,4
583,86;31,38
584,105;31,37
584,349;31,35
584,594;31,34
584,839;31,33
585,084;31,32
585,328;31,31
585,573;31,31
585,818;31,3
586,063;31,28
586,307;31,27
586,552;31,25
586,797;31,23
587,041;31,22
587,286;31,22
587,53;31,21
587,775;31,19
588,019;31,18
588,264;31,16
588,508;31,14
588,753;31,14
588,997;31,14
589,242;31,13
589,486;31,12
589,731;31,11
589,975;31,1
590,22;31,08
590,464;31,08
590,708;31,06
590,953;31,04
591,197;31,02
591,441;31,01
591,685;31
591,93;30,99
592,174;30,99
592,418;30,96
592,662;30,94
592,907;30,94
593,151;30,93
593,395;30,92
593,639;30,9
593,883;30,89
594,127;30,87
594,371;30,84
594,615;30,83
594,859;30,81
595,103;30,79
595,347;30,78
595,591;30,77
595,835;30,74
596,079;30,73
596,323;30,72
596,567;30,71
596,811;30,68
597,055;30,66
597,299;30,64
597,542;30,64
597,786;30,63
598,03;30,63
598,274;30,61
598,518;30,6
598,761;30,59
599,005;30,57
599,249;30,55
599,492;30,56
599,736;30,55
599,98;30,55
600,223;30,54
600,467;30,53
600,711;30,52
600,954;30,52
601,198;30,52
601,441;30,51
601,685;30,5
601,928;30,51
602,172;30,51
602,415;30,5
602,659;30,49
602,902;30,48
603,145;30,47
603,389;30,48
603,632;30,46
603,876;30,46
604,119;30,46
604,362;30,46
604,606;30,45
604,849;30,44
605,092;30,43
605,335;30,42
605,579;30,42
605,822;30,41
606,065;30,4
606,308;30,4
606,551;30,4
606,794;30,41
607,037;30,4
607,281;30,4
607,524;30,4
607,767;30,41
608,01;30,41
608,253;30,41
608,496;30,41
608,739;30,42
608,982;30,41
609,225;30,42
609,468;30,42
609,711;30,43
609,953;30,44
610,196;30,45
610,439;30,45
610,682;30,45
610,925;30,45
611,168;30,47
611,41;30,48
611,653;30,5
611,896;30,48
612,139;30,49
612,381;30,47
612,624;30,47
612,867;30,47
613,109;30,47
613,352;30,46
613,595;30,46
613,837;30,45
614,08;30,45
614,322;30,46
614,565;30,46
614,807;30,46
615,05;30,46
615,292;30,46
615,535;30,47
615,777;30,47
616,02;30,48
616,262;30,48
616,505;30,49
616,747;30,47
616,989;30,49
617,232;30,49
617,474;30,51
617,716;30,51
617,959;30,53
618,201;30,54
618,443;30,55
618,685;30,56
618,927;30,58
619,17;30,59
619,412;30,59
619,654;30,6
619,896;30,62
620,138;30,62
620,38;30,63
620,622;30,63
620,864;30,66
621,107;30,67
621,349;30,67
621,591;30,69
621,833;30,7
622,075;30,71
622,316;30,72
622,558;30,74
622,8;30,75
623,042;30,76
623,284;30,78
623,526;30,8
623,768;30,82
624,01;30,83
624,251;30,85
624,493;30,86
624,735;30,86
624,977;30,87
625,218;30,88
625,46;30,9
625,702;30,91
625,943;30,91
626,185;30,93
626,427;30,95
626,668;30,96
626,91;30,97
627,152;30,98
627,393;30,99
627,635;31
627,876;31,02
628,118;31,04
628,359;31,05
628,601;31,06
628,842;31,07
629,084;31,08
629,325;31,08
629,566;31,09
629,808;31,12
630,049;31,13
630,29;31,14
630,532;31,15
630,773;31,15
631,014;31,18
631,256;31,17
631,497;31,19
631,738;31,18
631,979;31,19
632,22;31,2
632,462;31,23
632,703;31,22
632,944;31,23
633,185;31,23
633,426;31,24
633,667;31,25
633,908;31,25
634,149;31,27
634,39;31,29
634,631;31,29
634,872;31,31
635,113;31,31
635,354;31,34
635,595;31,33
635,836;31,36
636,077;31,37
636,318;31,39
636,559;31,39
636,8;31,41
637,04;31,42
637,281;31,45
637,522;31,46
637,763;31,49
638,003;31,5
638,244;31,53
638,485;31,55
638,726;31,57
638,966;31,59
639,207;31,61
639,448;31,63
639,688;31,67
639,929;31,68
640,169;31,71
640,41;31,72
640,65;31,75
640,891;31,77
641,131;31,8
641,372;31,82
641,612;31,85
641,853;31,87
642,093;31,9
642,334;31,92
642,574;31,94
642,814;31,96
643,055;31,98
643,295;31,99
643,535;32,03
643,776;32,05
644,016;32,08
644,256;32,09
644,496;32,13
644,737;32,14
644,977;32,18
645,217;32,21
645,457;32,23
645,697;32,26
645,938;32,3
646,178;32,31
646,418;32,34
646,658;32,37
646,898;32,41
647,138;32,43
647,378;32,47
647,618;32,5
647,858;32,54
648,098;32,58
648,338;32,62
648,578;32,64
648,818;32,68
649,057;32,71
649,297;32,75
649,537;32,78
649,777;32,8
650,017;32,83
650,257;32,87
650,496;32,91
650,736;32,94
650,976;32,97
651,216;33,02
661,506;34,57
661,744;34,68
661,983;34,73
662,222;34,82
662,461;34,88
662,7;34,95
662,939;34,99
663,177;35,05
663,416;35,1
663,655;35,17
663,894;35,25
664,132;35,31
664,371;35,37
664,61;35,43
664,848;35,5
665,087;35,57
665,326;35,65
665,564;35,7
665,803;35,75
666,041;35,8
666,28;35,85
666,518;35,93
666,757;35,98
666,995;36,07
667,234;36,12
667,472;36,19
667,711;36,26
667,949;36,33
668,187;36,41
668,426;36,48
668,664;36,54
668,902;36,6
669,141;36,66
669,379;36,72
669,617;36,8
669,856;36,87
670,094;36,93
670,332;36,99
670,57;37,1
670,808;37,18
671,046;37,27
671,285;37,36
671,523;37,41
671,761;37,51
671,999;37,57
672,237;37,65
672,475;37,73
672,713;37,79
672,951;37,87
673,189;37,93
673,427;38,01
673,665;38,08
673,903;38,19
674,141;38,28
674,379;38,37
674,617;38,44
674,854;38,52
675,092;38,61
675,33;38,7
675,568;38,77
675,806;38,87
676,043;38,95
676,281;39,04
676,519;39,14
676,756;39,21
676,994;39,31
677,232;39,41
677,469;39,49
677,707;39,59
677,945;39,68
678,182;39,77
678,42;39,86
678,657;39,97
678,895;40,04
679,132;40,13
679,37;40,22
679,607;40,31
679,845;40,42
680,082;40,54
680,32;40,65
680,557;40,74
680,794;40,84
681,032;40,96
681,269;41,06
681,507;41,18
681,744;41,29
681,981;41,39
682,218;41,49
682,456;41,61
682,693;41,72
682,93;41,82
683,167;41,94
683,404;42,05
683,642;42,16
683,879;42,28
684,116;42,4
684,353;42,52
684,59;42,62
684,827;42,71
685,064;42,81
685,301;42,9
685,538;43,01
685,775;43,12
686,012;43,22
686,249;43,32
686,486;43,41
686,723;43,51
686,96;43,65
687,197;43,77
687,433;43,87
687,67;43,97
687,907;44,09
688,144;44,2
688,381;44,33
688,617;44,44
688,854;44,55
689,091;44,67
689,327;44,8
689,564;44,93
689,801;45,07
690,037;45,2
690,274;45,34
690,511;45,48
690,747;45,61
690,984;45,74
691,22;45,86
691,457;46
691,693;46,14
691,93;46,26
692,166;46,39
692,403;46,54
692,639;46,68
692,876;46,82
693,112;46,95
693,348;47,07
693,585;47,23
693,821;47,38
694,057;47,51
694,294;47,66
694,53;47,8
694,766;47,94
695,002;48,09
695,239;48,21
695,475;48,35
695,711;48,47
695,947;48,59
696,183;48,76
696,419;48,89
696,656;49,04
696,892;49,17
697,128;49,32
697,364;49,46
697,6;49,6
697,836;49,74
698,072;49,89
698,308;50,07
698,544;50,21
698,78;50,35
699,016;50,49
699,251;50,64
699,487;50,8
699,723;50,96
699,959;51,11
700,195;51,28
700,431;51,45
700,666;51,62
700,902;51,8
701,138;51,96
701,374;52,15
701,609;52,31
701,845;52,49
702,081;52,64
702,316;52,82
702,552;52,99
702,788;53,18
703,023;53,34
703,259;53,49
703,494;53,66
703,73;53,81
703,965;53,99
704,201;54,15
704,436;54,3
704,672;54,46
704,907;54,64
705,143;54,82
705,378;54,99
705,613;55,15
705,849;55,31
706,084;55,47
706,319;55,61
706,555;55,76
706,79;55,89
707,025;56,05
707,26;56,21
707,496;56,35
707,731;56,52
707,966;56,69
708,201;56,85
708,436;57,03
708,671;57,2
708,907;57,35
709,142;57,51
709,377;57,68
709,612;57,85
709,847;58
710,082;58,15
710,317;58,3
710,552;58,48
710,787;58,65
711,022;58,81
711,257;58,98
711,492;59,17
711,726;59,36
711,961;59,54
712,196;59,69
712,431;59,88
712,666;60,04
712,901;60,19
713,135;60,34
713,37;60,48
713,605;60,64
713,839;60,81
714,074;60,97
714,309;61,16
714,543;61,32
714,778;61,5
715,013;61,67
715,247;61,85
715,482;62,02
715,716;62,19
715,951;62,37
716,185;62,55
716,42;62,73
716,654;62,9
716,889;63,07
717,123;63,26
717,358;63,43
717,592;63,6
717,827;63,76
718,061;63,92
718,295;64,12
718,53;64,3
718,764;64,49
718,998;64,68
719,232;64,84
719,467;65,01
719,701;65,17
719,935;65,35
720,169;65,49
720,403;65,66
720,638;65,85
720,872;66
721,106;66,17
721,34;66,34
721,574;66,5
721,808;66,67
722,042;66,8
722,276;66,97
722,51;67,14
722,744;67,33
722,978;67,53
723,212;67,69
723,446;67,88
723,68;68,04
723,914;68,19
724,147;68,33
724,381;68,5
724,615;68,64
724,849;68,79
725,083;68,97
725,316;69,12
725,55;69,27
725,784;69,44
726,018;69,6
726,251;69,75
726,485;69,9
726,719;70,04
726,952;70,24
727,186;70,38
727,419;70,54
727,653;70,7
727,887;70,82
728,12;70,96
728,354;71,11
728,587;71,26
728,821;71,4
729,054;71,56
729,287;71,69
729,521;71,85
729,754;72
729,988;72,14
730,221;72,27
730,454;72,41
730,688;72,52
730,921;72,64
731,154;72,77
731,387;72,91
731,621;73,05
731,854;73,16
732,087;73,3
732,32;73,41
732,553;73,51
732,787;73,65
733,02;73,78
733,253;73,89
733,486;74
733,719;74,14
733,952;74,27
734,185;74,4
734,418;74,54
734,651;74,67
734,884;74,77
735,117;74,91
735,35;75,04
735,583;75,19
735,816;75,33
736,049;75,47
736,281;75,58
736,514;75,69
736,747;75,79
736,98;75,91
737,213;76,05
737,445;76,18
737,678;76,28
737,911;76,39
738,144;76,47
738,376;76,58
738,609;76,69
738,842;76,77
739,074;76,9
739,307;77,01
739,539;77,11
739,772;77,24
740,004;77,37
740,237;77,45
740,469;77,55
740,702;77,66
740,934;77,74
741,167;77,85
741,399;77,97
741,632;78,11
741,864;78,22
742,096;78,32
742,329;78,41
742,561;78,55
742,793;78,65
743,026;78,79
743,258;78,89
743,49;79,01
743,723;79,13
743,955;79,25
744,187;79,32
744,419;79,41
744,651;79,48
744,883;79,57
745,115;79,66
745,348;79,73
745,58;79,81
745,812;79,89
746,044;79,98
746,276;80,07
746,508;80,15
746,74;80,22
746,972;80,29
747,204;80,39
747,436;80,45
747,667;80,52
747,899;80,56
748,131;80,64
748,363;80,7
748,595;80,77
748,827;80,83
749,058;80,88
749,29;80,96
749,522;81,03
749,754;81,07
749,985;81,16
750,217;81,25
750,449;81,32
750,68;81,38
750,912;81,45
751,144;81,52
751,375;81,57
751,607;81,65
751,838;81,73
752,07;81,78
752,301;81,86
752,533;81,92
752,764;82
752,996;82,08
753,227;82,15
753,459;82,21
753,69;82,27
753,921;82,34
754,153;82,41
754,384;82,52
754,615;82,58
754,847;82,6
755,078;82,65
755,309;82,66
755,54;82,68
755,772;82,7
756,003;82,75
756,234;82,79
756,465;82,84
756,696;82,88
756,927;82,93
757,159;82,94
757,39;82,99
757,621;83,03
757,852;83,03
758,083;83,08
758,314;83,12
758,545;83,16
758,776;83,2
759,007;83,23
759,238;83,2
759,469;83,25
759,699;83,33
759,93;83,35
760,161;83,43
760,392;83,48
760,623;83,56
760,854;83,59
761,084;83,64
761,315;83,68
761,546;83,72
761,776;83,75
762,007;83,82
762,238;83,87
762,468;83,91
762,699;83,98
762,93;84,04
763,16;84,11
763,391;84,14
763,621;84,19
763,852;84,22
764,083;84,29
764,313;84,37
764,543;84,37
764,774;84,45
765,004;84,47
765,235;84,53
765,465;84,57
765,696;84,63
765,926;84,67
766,156;84,7
766,387;84,76
766,617;84,84
766,847;84,86
767,077;84,91
767,308;84,94
767,538;84,97
767,768;84,96
767,998;84,99
768,228;85,04
768,459;85,07
768,689;85,12
768,919;85,16
769,149;85,17
769,379;85,22
769,609;85,24
769,839;85,28
770,069;85,33
770,299;85,35
770,529;85,36
770,759;85,4
770,989;85,44
771,219;85,45
771,449;85,48
771,678;85,5
771,908;85,55
772,138;85,6
772,368;85,63
772,598;85,67
772,827;85,71
773,057;85,74
773,287;85,81
773,517;85,84
773,746;85,87
773,976;85,93
774,206;85,98
774,435;86,01
774,665;86,06
774,894;86,08
775,124;86,14
775,354;86,17
775,583;86,2
775,813;86,23
776,042;86,24
776,272;86,27
776,501;86,31
776,73;86,35
776,96;86,35
777,189;86,36
777,419;86,41
777,648;86,39
777,877;86,38
778,107;86,37
778,336;86,38
778,565;86,4
778,794;86,38
779,024;86,39
779,253;86,36
779,482;86,35
779,711;86,36
779,94;86,35
780,17;86,35
780,399;86,37
780,628;86,38
780,857;86,43
781,086;86,41
781,315;86,39
781,544;86,38
781,773;86,4
782,002;86,4
782,231;86,4
782,46;86,41
782,689;86,45
782,918;86,46
783,147;86,47
783,375;86,46
783,604;86,46
783,833;86,48
784,062;86,52
784,291;86,59
784,519;86,6
784,748;86,64
784,977;86,7
785,206;86,7
785,434;86,71
785,663;86,73
785,892;86,77
786,12;86,82
786,349;86,85
786,577;86,86
786,806;86,92
787,034;86,93
787,263;86,96
787,492;86,96
787,72;86,98
787,948;86,97
788,177;86,99
788,405;87
788,634;87,01
788,862;87,04
789,09;87,01
789,319;87
789,547;87,01
789,775;86,99
790,004;86,96
790,232;86,98
790,46;86,97
790,688;86,99
790,917;86,98
791,145;87,01
791,373;87,01
791,601;86,98
791,829;86,95
792,057;86,92
792,286;86,91
792,514;86,9
792,742;86,88
792,97;86,92
793,198;86,94
793,426;86,93
793,654;86,92
793,882;86,92
794,109;86,93
794,337;86,93
794,565;86,97
794,793;86,99
795,021;86,99
795,249;87,01
795,477;86,96
795,704;86,99
795,932;86,98
796,16;87,03
796,388;87,07
796,615;87,11
796,843;87,2
797,071;87,27
797,298;87,32
797,526;87,36
797,754;87,35
797,981;87,41
798,209;87,41
798,436;87,42
798,664;87,48
798,891;87,51
799,119;87,52
799,346;87,5
799,574;87,49
799,801;87,52
800,029;87,54
800,256;87,59
800,483;87,6
800,711;87,6
800,938;87,59
801,165;87,62
801,393;87,63
801,62;87,59
801,847;87,58
802,074;87,57
802,302;87,59
802,529;87,63
802,756;87,64
802,983;87,67
803,21;87,66
803,437;87,67
803,665;87,68
803,892;87,66
804,119;87,71
804,346;87,74
804,573;87,72
804,8;87,71
805,027;87,7
805,254;87,7
805,481;87,71
805,708;87,7
805,934;87,67
806,161;87,73
806,388;87,74
806,615;87,73
806,842;87,74
807,069;87,74
807,295;87,75
807,522;87,73
807,749;87,72
807,976;87,74
808,202;87,71
808,429;87,7
808,656;87,74
808,882;87,71
809,109;87,76
809,335;87,76
809,562;87,76
809,789;87,8
810,015;87,81
810,242;87,83
810,468;87,84
810,695;87,89
810,921;87,87
811,147;87,89
811,374;87,93
811,6;87,93
811,827;87,89
812,053;87,9
812,279;87,91
812,506;87,93
812,732;87,94
812,958;87,99
813,185;88,03
813,411;88,01
813,637;88,01
813,863;88,01
814,089;88,05
814,315;88,08
814,542;88,07
814,768;88,06
814,994;88,05
815,22;88,05
815,446;88,06
815,672;88,02
815,898;88,04
816,124;88,02
816,35;88,02
816,576;88,09
816,802;88,1
817,028;88,11
817,254;88,12
817,48;88,15
817,705;88,15
817,931;88,16
818,157;88,24
818,383;88,29
818,609;88,26
818,834;88,28
819,06;88,28
819,286;88,27
819,512;88,27
819,737;88,27
819,963;88,26
820,189;88,27
820,414;88,3
820,64;88,32
820,865;88,3
821,091;88,34
821,316;88,31
821,542;88,27
821,767;88,29
821,993;88,31
822,218;88,27
822,444;88,29
822,669;88,29
822,895;88,23
823,12;88,17
823,345;88,19
823,571;88,18
823,796;88,2
824,021;88,24
824,247;88,29
824,472;88,3
824,697;88,35
824,922;88,33
825,147;88,34
825,373;88,35
825,598;88,44
825,823;88,4
826,048;88,42
826,273;88,43
826,498;88,41
826,723;88,34
826,948;88,36
827,173;88,34
827,398;88,29
827,623;88,32
827,848;88,37
828,073;88,39
828,298;88,37
828,523;88,4
828,748;88,37
828,973;88,37
829,197;88,4
829,422;88,41
829,647;88,44
829,872;88,42
830,097;88,41
830,321;88,37
830,546;88,41
830,771;88,46
830,995;88,46
831,22;88,48
831,445;88,55
831,669;88,56
831,894;88,55
832,118;88,61
832,343;88,63
832,567;88,65
832,792;88,61
833,016;88,65
833,241;88,66
833,465;88,66
833,69;88,66
833,914;88,6
834,139;88,61
834,363;88,59
834,587;88,63
834,812;88,66
835,036;88,65
835,26;88,67
835,485;88,64
835,709;88,67
835,933;88,69
836,157;88,71
836,381;88,72
836,606;88,72
836,83;88,75
837,054;88,72
837,278;88,78
837,502;88,82
837,726;88,81
837,95;88,76
838,174;88,78
838,398;88,76
838,622;88,81
838,846;88,78
839,07;88,76
839,294;88,74
839,518;88,71
839,742;88,74
839,966;88,75
840,189;88,76
840,413;88,75
840,637;88,76
840,861;88,76
841,085;88,77
841,308;88,78
841,532;88,73
841,756;88,79
841,979;88,71
842,203;88,76
842,427;88,76
842,65;88,79
842,874;88,83
843,098;88,84
843,321;88,87
843,545;88,93
843,768;89
843,992;89,02
844,215;89,06
844,439;89,07
844,662;89,07
844,886;89,06
845,109;89,07
845,332;89,07
845,556;89,03
845,779;89,02
846,002;89,03
846,226;89,04
846,449;89,01
846,672;89,07
846,895;89,06
847,119;89,1
847,342;89,1
847,565;89,14
847,788;89,22
848,011;89,25
848,234;89,26
848,457;89,26
848,681;89,29
848,904;89,31
849,127;89,34
849,35;89,38
849,573;89,45
849,796;89,47
850,019;89,52
850,241;89,55
850,464;89,6
850,687;89,61
850,91;89,64
851,133;89,63
851,356;89,64
851,579;89,64
851,801;89,59
852,024;89,62
852,247;89,57
852,47;89,48
852,692;89,41
852,915;89,42
853,138;89,38
853,36;89,37
853,583;89,34
853,806;89,32
854,028;89,27
854,251;89,24
854,473;89,25
854,696;89,26
854,918;89,27
855,141;89,29
855,363;89,35
855,586;89,34
855,808;89,34
856,031;89,35
856,253;89,33
856,475;89,4
856,698;89,33
856,92;89,3
857,142;89,36
857,365;89,42
857,587;89,37
857,809;89,44
858,031;89,46
858,253;89,5
858,476;89,51
858,698;89,54
858,92;89,58
859,142;89,54
859,364;89,48
859,586;89,54
859,808;89,54
860,03;89,49
860,252;89,53
860,474;89,58
860,696;89,56
860,918;89,6
861,14;89,56
861,362;89,62
861,584;89,7
861,806;89,68
862,028;89,71
862,25;89,79
862,471;89,81
862,693;89,77
862,915;89,79
863,137;89,83
863,358;89,84
863,58;89,79
863,802;89,85
864,024;89,85
864,245;89,79
864,467;89,79
864,688;89,85
864,91;89,86
865,132;89,84
865,353;89,84
865,575;89,83
865,796;89,88
866,018;89,84
866,239;89,84
866,461;89,85
866,682;89,83
866,903;89,86
867,125;89,85
867,346;89,87
867,567;89,84
867,789;89,87
868,01;89,9
868,231;89,91
868,453;89,91
868,674;89,96
868,895;89,94
869,116;89,94
869,337;89,91
869,559;89,89
869,78;89,91
870,001;89,93
870,222;90,02
870,443;90,03
870,664;90,07
870,885;90,06
871,106;90,14
871,327;90,15
871,548;90,07
871,769;90,05
871,99;90,12
872,211;90,15
872,432;90,04
872,653;89,99
872,874;90,12
873,094;90,15
873,315;90,14
873,536;90,18
873,757;90,1
873,978;90,12
874,198;90,1
874,419;90,07
874,64;90,04
874,86;89,99
875,081;89,97
875,302;90,01
875,522;90,05
875,743;90,03
875,963;90,12
876,184;90,15
876,404;90,14
876,625;90,06
876,845;90,04
877,066;90,11
877,286;90,11
877,507;90,04
877,727;90,03
877,947;90,01
878,168;90,08
878,388;90,2
878,609;90,12
878,829;90,18
879,049;90,24
879,269;90,3
879,49;90,19
879,71;90,22
879,93;90,14
880,15;90,15
880,37;90,11
880,59;90,04
880,811;90,02
881,031;90,08
881,251;90,18
881,471;90,16
881,691;90,21
881,911;90,27
882,131;90,22
882,351;90,21
882,571;90,24
882,791;90,2
883,011;90,23
883,23;90,32
883,45;90,27
883,67;90,2
883,89;90,19
884,11;90,34
884,33;90,35
884,549;90,43
884,769;90,45
884,989;90,5
885,209;90,49
885,428;90,58
885,648;90,52
885,868;90,49
886,087;90,55
886,307;90,53
886,526;90,52
886,746;90,57
886,965;90,55
887,185;90,58
887,404;90,53
887,624;90,53
887,843;90,56
888,063;90,66
888,282;90,73
888,502;90,72
888,721;90,68
888,94;90,74
889,16;90,72
889,379;90,69
889,598;90,72
889,818;90,74
890,037;90,68
890,256;90,75
890,475;90,8
890,694;90,85
890,914;90,89
891,133;90,94
891,352;90,92
891,571;90,91
891,79;90,98
892,009;91,04
892,228;90,96
892,447;90,98
892,666;90,92
892,885;90,89
893,104;90,91
893,323;90,93
893,542;90,9
893,761;90,91
893,98;90,95
894,199;90,88
894,417;90,87
894,636;90,84
894,855;90,79
895,074;90,69
895,293;90,67
895,511;90,7
895,73;90,67
895,949;90,7
896,167;90,79
896,386;90,77
896,605;90,81
896,823;90,91
897,042;90,91
897,26;90,91
897,479;91,01
897,697;91,02
897,916;91,11
898,134;91,03
898,353;91,08
898,571;91,09
898,79;91,09
899,008;91,18
899,227;91,17
899,445;91,21
899,663;91,29
899,882;91,27
900,1;91,26
900,318;91,29
900,536;91,32
900,755;91,34
900,973;91,38
901,191;91,34
901,409;91,32
901,627;91,29
901,846;91,29
902,064;91,19
902,282;91,21
902,5;91,12
902,718;91,29
902,936;91,35
903,154;91,37
903,372;91,5
903,59;91,54
903,808;91,66
904,026;91,7
904,244;91,75
904,462;91,83
904,679;91,83
904,897;91,87
905,115;91,95
905,333;91,91
905,551;91,93
905,768;91,96
905,986;92
906,204;92,01
906,422;92,16
906,639;92,21
906,857;92,26
907,074;92,32
907,292;92,24
907,51;92,24
907,727;92,23
907,945;92,17
908,162;92,2
908,38;92,26
908,597;92,32
908,815;92,32
909,032;92,36
909,25;92,42
909,467;92,45
909,684;92,47
909,902;92,54
910,119;92,58
910,337;92,66
910,554;92,72
910,771;92,77
910,988;92,77
911,206;92,75
911,423;92,8
911,64;92,73
911,857;92,81
912,074;92,83
912,291;92,87
912,509;92,94
912,726;92,84
912,943;92,85
913,16;92,77
913,377;92,87
913,594;92,74
913,811;92,62
914,028;92,6
914,245;92,6
914,462;92,53
914,679;92,52
914,896;92,5
915,112;92,42
915,329;92,41
915,546;92,31
915,763;92,35
915,98;92,4
916,196;92,51
916,413;92,46
916,63;92,44
916,847;92,4
917,063;92,39
917,28;92,35
917,497;92,27
917,713;92,27
917,93;92,16
918,146;92,14
918,363;92,29
918,579;92,26
918,796;92,28
919,012;92,41
919,229;92,46
919,445;92,46
919,662;92,6
919,878;92,65
920,095;92,74
920,311;92,74
920,527;92,72
920,744;92,81
920,96;92,94
921,176;93,02
921,392;93,08
921,609;93,16
921,825;93,27
922,041;93,33
922,257;93,43
922,473;93,46
922,69;93,52
922,906;93,59
923,122;93,58
923,338;93,55
923,554;93,54
923,77;93,5
923,986;93,51
924,202;93,38
924,418;93,42
924,634;93,44
924,85;93,48
925,066;93,45
925,282;93,34
925,497;93,34
925,713;93,31
925,929;93,43
926,145;93,41
926,361;93,51
926,576;93,63
926,792;93,68
927,008;93,66
927,224;93,75
927,439;93,71
927,655;93,79
927,871;93,79
928,086;93,74
928,302;93,8
928,517;93,88
928,733;93,98
928,948;94
929,164;93,98
929,379;94,07
929,595;94,09
929,81;94,12
930,026;94,08
930,241;94,11
930,456;94,05
930,672;93,98
930,887;93,94
931,102;93,88
931,318;93,87
931,533;93,96
931,748;93,92
931,964;93,83
932,179;93,8
932,394;93,88
932,609;93,87
932,824;93,78
933,039;93,72
933,255;93,65
933,47;93,65
933,685;93,71
933,9;93,63
934,115;93,67
934,33;93,7
934,545;93,71
934,76;93,66
934,975;93,62
935,19;93,74
935,404;93,67
935,619;93,54
935,834;93,49
936,049;93,37
936,264;93,39
936,479;93,51
936,693;93,5
936,908;93,45
937,123;93,64
937,338;93,69
937,552;93,74
937,767;93,81
937,982;93,87
938,196;93,79
938,411;93,95
938,625;93,77
938,84;93,7
939,055;93,77
939,269;93,85
939,484;93,97
939,698;94,06
939,912;94,21
940,127;94,56
940,341;94,8
940,556;95,16
940,77;95,22
940,984;95,18
941,199;95,2
941,413;95,62
941,627;95,6
941,842;95,43
942,056;95,53
942,27;95,37
942,484;95,15
942,699;95,3
942,913;95,01
943,127;95,22
943,341;95,73
943,555;95,67
943,769;95,98
943,983;96
944,197;95,69
944,411;95,46
944,625;95,52
944,839;95,42
945,053;95,24
945,267;95,15
945,481;95,46
945,695;95,85
945,909;95,57
946,123;95,39
946,336;95,56
946,55;95,15
946,764;95,75
946,978;95,62
947,192;95,52
947,405;95,71
947,619;95,83
947,833;95,58
948,046;95,54
948,26;95,11
948,474;95,02
948,687;95,21
948,901;95,05
949,114;94,76
949,328;94,63
949,541;94,67
949,755;94,84
949,968;94,45
950,182;94,41
950,395;94,33
950,609;94,36
950,822;94,8
951,035;95,06
951,249;95,08
951,462;95,18
951,675;95,22
951,889;95,34
952,102;95,25
952,315;95,21
952,528;95,43
952,741;95,49
952,955;95,75
953,168;95,84
953,381;96,36
953,594;96,55
953,807;96,43
954,02;96,53
954,233;96,54
954,446;97,01
954,659;97,09
954,872;97,27
955,085;97,25
955,298;96,88
955,511;97,05
955,724;96,67
955,937;96,9
956,15;96,93
956,362;96,62
956,575;97,01
956,788;97,12
957,001;96,76
957,214;96,93
957,426;96,95
957,639;97,11
957,852;96,98
958,064;97
958,277;97,18
958,49;97,33
958,702;97,41
958,915;97,29
959,127;97,38
959,34;97,21
959,552;97,51
959,765;97,8
959,977;98,14
960,19;98,14
960,402;97,92
960,615;97,87
960,827;98,07
961,039;97,79
961,252;97,83
961,464;97,87
961,676;97,81
961,889;97,85
962,101;97,64
962,313;97,55
962,525;97,37
962,738;97,12
962,95;97,09
963,162;97,22
963,374;96,94
963,586;96,8
963,798;96,78
964,01;96,53
964,222;96,59
964,434;96,14
964,646;96,26
964,858;96,3
965,07;96,44
965,282;96,5
965,494;96,4
965,706;96,52
965,918;96,61
966,13;96,67
966,342;96,49
966,553;96,47
966,765;96,44
966,977;96,47
967,189;96,65
967,401;96,59
967,612;96,22
967,824;96,18
968,036;96,43
968,247;96,45
968,459;96,6
968,67;96,33
968,882;96,12
969,094;96,25
969,305;96,2
969,517;96,2
969,728;96,25
969,94;96,21
970,151;96,27
970,362;96,38
970,574;96,38
970,785;96,48
970,997;96,28
971,208;96,56
971,419;96,74
971,631;97,13
971,842;97,15
972,053;97,49
972,264;97,79
972,476;97,46
972,687;97,58
972,898;97,45
973,109;97,72
973,32;97,96
973,531;97,92
973,742;98,02
973,954;97,88
974,165;97,82
974,376;98
974,587;97,78
974,798;97,61
975,009;97,95
975,22;97,85
975,43;98,43
975,641;98,26
975,852;98,36
976,063;98,04
976,274;98,13
976,485;98
976,695;97,98
976,906;98,13
977,117;98,08
977,328;98,52
977,538;98,22
977,749;98,48
977,96;98,58
978,17;99,05
978,381;99,11
978,592;99,15
978,802;99,06
979,013;99,18
979,223;99,31
979,434;99,16
979,644;99,22
979,855;98,97
980,065;99,05
980,276;98,96
980,486;99,18
980,696;98,99
980,907;99,05
981,117;99,14
981,327;99,4
981,538;99,25
981,748;99,09
981,958;99,24
982,169;99,14
982,379;99,3
982,589;98,92
982,799;99,18
983,009;99,24
983,219;99,53
983,43;99,6
983,64;99,82
983,85;100,23
984,06;100,28
984,27;100,58
984,48;100,7
984,69;100,87
984,9;100,73
985,11;100,71
985,32;101,05
985,529;100,78
985,739;100,26
985,949;100,47
986,159;100,13
986,369;100,47
986,579;100,45
986,788;100,35
986,998;100,63
987,208;100,16
987,417;100,33
987,627;100,26
987,837;100,09
988,046;100,21
988,256;99,97
988,466;99,75
988,675;99,36
988,885;99,38
989,094;98,99
989,304;98,99
989,513;99,29
989,723;99,43
989,932;99,78
990,142;100,06
990,351;99,77
990,56;100,12
990,77;99,27
990,979;98,8
991,188;98,6
991,398;98,29
991,607;98,62
991,816;98,32
992,025;98,1
992,235;97,86
992,444;97,79
992,653;97,84
992,862;98,28
993,071;98,48
993,28;98,32
993,489;98,86
993,698;98,67
993,908;98,84
994,117;98,57
994,326;98,62
994,534;98,55
994,743;99,03
994,952;99,07
995,161;99,6
995,37;100,46
995,579;100,75
995,788;101
995,997;101,04
996,205;100,65
996,414;100,95
996,623;101,22
996,832;101,24
997,04;100,55
997,249;100,12
997,458;99,84
997,666;100,15
997,875;99,86
998,084;100,13
998,292;99,62
998,501;99,38
998,709;98,97
998,918;98,91
999,126;98,81
999,335;99,13
999,543;99,21
999,752;98,67
999,96;98,54
1000,169;98,84
1000,377;99
1000,585;100,01
1000,794;100,18
1001,002;100,8
1001,21;100,88
1001,418;101,55
1001,627;101,64
1001,835;102,03
1002,043;101,72
1002,251;102,1
1002,459;102,08
1002,668;102,41
1002,876;102,27
1003,084;102,21
1003,292;102,65
1003,5;102,89
1003,708;102,56
1003,916;102,4
1004,124;102,54
1004,332;102,93
1004,54;102,63
1004,748;102,27
1004,956;101,68
1005,163;101,64
1005,371;101,04
1005,579;100,74
1005,787;100,35
1005,995;100,85
1006,202;100,61
1006,41;100,89
1006,618;100,51
1006,826;100,49
1007,033;100,22
1007,241;100,54
1007,449;101,03
1007,656;100,63
1007,864;100,19
1008,071;100,36
1008,279;100,8
1008,486;101,25
1008,694;100,44
1008,901;100,35
1009,109;100,61
1009,316;101,3
1009,524;101,06
1009,731;100,68
1009,938;100,15
1010,146;100,27
1010,353;100,23
1010,56;100,68
1010,768;100,19
1010,975;100,88
1011,182;100,87
1011,389;101,14
1011,597;100,37
1011,804;100,63
1012,011;100,43
1012,218;100,64
1012,425;100,11
1012,632;100,19
1012,839;99,94
1013,046;100,1
1013,253;100,39
1013,46;100,41
1013,667;100,42
1013,874;99,98
1014,081;101,01
1014,288;100,58
1014,495;100,33
1014,702;100,31
1014,909;100,27
1015,116;100,77
1015,323;100,22
1015,529;100,79
1015,736;100,85
1015,943;102,08
1016,15;102,11
1016,356;102,81
1016,563;103,11
1016,77;103,15
1016,976;103,35
1017,183;103,45
1017,389;103,64
1017,596;102,76
1017,803;103,39
1018,009;103,18
1018,216;103,98
1018,422;104,19
1018,629;105,53
1018,835;105,79
1019,041;105,36
1019,248;105,68
1019,454;105,46
1019,661;106,26
1019,867;105,8
1020,073;105,42
1020,279;105,47
1020,486;104,91
1020,692;104,42
1020,898;104,31
1021,104;103,66
1021,311;102,91
1021,517;102,84
1021,723;103,51
1021,929;104,28
1022,135;104,26
1022,341;103,53
1022,547;104,13
1022,753;102,86
1022,959;102,83
1023,165;102,49
1023,371;102,65
1023,577;101,81
1023,783;101,21
1023,989;100,09
1024,195;99,73
1024,401;100,4
1024,607;100,6
1024,812;101,27
1025,018;100,98
1025,224;100,85
1025,43;101,73
1025,635;102,55
1025,841;102,9
1026,047;102,01
1026,252;102,41
1026,458;102,53
1026,664;102,54
1026,869;102,19
1027,075;102,61
1027,28;103,03
1027,486;102,39
1027,691;102,65
1027,897;102,66
1028,102;103,44
1028,308;103,04
1028,513;104,27
1028,719;103,65
1028,924;103,1
1029,129;102,19
1029,335;103,45
1029,54;103,14
1029,745;102,58
1029,95;102,62
1030,156;101,33
1030,361;102,15
1030,566;102,36
1030,771;100,49
1030,976;100,88
1031,182;100,32
1031,387;100,43
1031,592;100,81
1031,797;102,2
1032,002;101,41
1032,207;102,31
1032,412;102,12
1032,617;103,05
1032,822;101,77
1033,027;103,36
1033,232;103,48
1033,437;103,82
1033,642;103,68
1033,846;103,83
1034,051;105,07
1034,256;104,19
1034,461;105,11
1034,666;105,1
1034,87;105,2
1035,075;106,92
1035,28;106,89
1035,484;105,99
1035,689;106,19
1035,894;104,39
1036,098;105,04
1036,303;105,81
1036,507;105,64
1036,712;106,04
1036,917;107,48
1037,121;107,28
1037,325;106,02
1037,53;105,83
1037,734;106,63
1037,939;106,27
1038,143;105,54
1038,348;104,93
1038,552;105,7
1038,756;106,66
1038,961;104,63
1039,165;103,54
1039,369;103,49
1039,573;102,73
1039,778;105,77
1039,982;106,1
1040,186;108,28
1040,39;108,87
1040,594;108,47
1040,798;107,73
1041,002;105,8
1041,206;105,96
1041,41;106,33
1041,614;107,59
1041,818;107,88
1042,022;106
1042,226;105,73
1042,43;107,24
1042,634;108,04
1042,838;107,74
1043,042;108,5
1043,246;109,87
1043,45;107,93
1043,653;106,67
1043,857;106,62
1044,061;103,59
1044,265;103,41
1044,468;102,33
1044,672;101,45
1044,876;102,64
1045,079;103,36
1045,283;104,32
1045,487;100,9
1045,69;102,53
1045,894;99,65
1046,097;100,01
1046,301;100,31
1046,504;99,48
1046,708;98,77
1046,911;98,37
1047,115;98,28
1047,318;97,21
1047,522;98,98
1047,725;100,84
1047,928;100,94
1048,132;103,36
1048,335;104,49
1048,538;106,08
1048,741;106,91
1048,945;105,92
1049,148;105,65
1049,351;105,8
1049,554;105,55
1049,757;106,15
1049,96;105,4
1050,163;106,86
1050,367;105,85
1050,57;105,96
1050,773;107,5
1050,976;107,86
1051,179;111,11
1051,382;112,45
1051,585;112,24
1051,787;112,16
1051,99;113,57
1052,193;114,63
1052,396;115,84
1052,599;117,05
1052,802;112,97
1053,005;111,54
1053,207;113,2
1053,41;111,85
1053,613;114,45
1053,815;115,49
1054,018;115,48
1054,221;113,41
1054,423;114,7
1054,626;115,36
1054,829;117,85
1055,031;117,91
1055,234;119,2
1055,436;113,79
1055,639;112,33
1055,841;112,69
1056,044;111,09
1056,246;110,07
