Data from lapisWhite_Reflection__2__35.txt Node;
"Date: Fri Sep 12 11:16:31 CEST 2025 User: sycur Spectrometer: SR400348 Trigger mode: 0 Integration Time (sec): 2,000000E-2 Scans to average: 20 Electric dark correction enabled: true Nonlinearity correction enabled: false Boxcar width: 10 XAxis mode: Wavelengths Number of Pixels in Spectrum: 3648 >>>>>Begin Spectral Data<<<<<";
186,01;-678,09
186,281;-3360,29
186,552;109,39
186,822;24,56
187,093;54,55
187,364;-23,19
187,635;5101,06
187,905;58,43
188,176;43,75
188,447;36,44
188,717;29,82
188,988;31,75
189,258;34,63
189,529;36,51
189,8;37,69
190,07;34,15
190,341;30,28
190,611;26,16
190,882;25,16
191,152;25,14
191,423;24,48
191,693;24,15
191,964;24,19
192,234;24,31
192,505;23,4
192,775;23,93
193,045;23,26
193,316;22,66
193,586;21,74
193,856;20,74
194,127;20,52
194,397;20,41
194,667;20,17
194,938;19,84
195,208;19,55
195,478;19,26
195,748;18,87
196,019;18,51
196,289;18,4
196,559;17,58
196,829;17,34
197,099;17,17
197,37;16,88
197,64;16,57
197,91;16,13
198,18;15,36
198,45;14,74
198,72;14,61
198,99;14,04
199,26;13,94
199,53;14,06
199,8;14,27
200,07;13,81
200,34;13,61
200,61;13,21
200,88;12,96
201,15;12,62
201,42;12,51
201,69;12,7
201,96;12,52
202,23;12,39
202,499;12,01
202,769;11,81
203,039;11,51
203,309;11,15
203,579;10,98
203,849;11,14
204,118;10,89
204,388;10,54
204,658;10,68
204,927;10,56
205,197;10,33
205,467;9,77
205,736;9,82
206,006;9,54
206,276;9,46
206,545;9,13
206,815;8,92
207,085;8,91
207,354;8,63
207,624;8,63
207,893;8,47
208,163;8,36
208,432;8,39
208,702;8,33
208,971;8,41
209,241;8,22
209,51;8,15
209,78;8,1
210,049;8,2
210,318;8,09
210,588;8,04
210,857;7,95
211,127;7,96
211,396;7,89
211,665;7,79
211,935;7,88
212,204;7,93
212,473;7,85
212,742;7,76
213,012;7,77
213,281;7,7
213,55;7,66
213,819;7,62
214,088;7,49
214,358;7,42
214,627;7,31
214,896;7,34
215,165;7,2
215,434;7,17
215,703;7,01
215,972;6,98
216,241;6,96
216,51;6,89
216,779;6,83
217,048;6,78
217,317;6,71
217,586;6,62
217,855;6,62
218,124;6,6
218,393;6,56
218,662;6,49
218,931;6,43
219,2;6,39
219,469;6,37
219,738;6,38
220,006;6,39
220,275;6,37
220,544;6,32
220,813;6,32
221,082;6,3
221,35;6,31
221,619;6,29
221,888;6,26
222,157;6,24
222,425;6,26
222,694;6,26
222,963;6,3
223,231;6,26
223,5;6,3
223,769;6,32
224,037;6,34
224,306;6,38
224,574;6,4
224,843;6,43
225,111;6,45
225,38;6,42
225,648;6,44
225,917;6,45
226,185;6,49
226,454;6,52
226,722;6,53
226,991;6,55
227,259;6,56
227,528;6,59
227,796;6,65
228,064;6,67
228,333;6,71
228,601;6,76
228,869;6,78
229,138;6,79
229,406;6,83
229,674;6,88
229,942;6,92
230,211;6,98
230,479;7,03
230,747;7,1
231,015;7,16
231,283;7,22
231,552;7,28
231,82;7,34
232,088;7,41
232,356;7,52
232,624;7,6
232,892;7,69
233,16;7,78
233,428;7,86
233,696;7,96
233,964;8,05
234,232;8,15
234,5;8,28
234,768;8,37
235,036;8,47
235,304;8,58
235,572;8,68
235,84;8,8
236,108;8,93
236,376;9,05
236,644;9,2
236,912;9,33
237,179;9,47
237,447;9,6
237,715;9,74
237,983;9,88
238,251;10,01
238,518;10,15
238,786;10,3
239,054;10,44
239,322;10,59
239,589;10,75
239,857;10,89
240,125;11,05
240,392;11,2
240,66;11,37
240,927;11,5
241,195;11,64
241,463;11,76
241,73;11,88
241,998;12
242,265;12,12
242,533;12,24
242,8;12,35
243,068;12,47
243,335;12,58
243,603;12,68
243,87;12,8
244,138;12,91
244,405;12,99
244,672;13,1
244,94;13,18
245,207;13,25
245,474;13,33
245,742;13,39
246,009;13,47
246,276;13,52
246,544;13,58
246,811;13,65
247,078;13,72
247,345;13,8
247,613;13,85
247,88;13,9
248,147;13,96
248,414;14
248,681;14,05
248,948;14,1
249,215;14,14
249,483;14,16
249,75;14,2
250,017;14,23
250,284;14,25
250,551;14,27
250,818;14,29
251,085;14,3
251,352;14,33
251,619;14,34
251,886;14,37
252,153;14,38
252,42;14,4
252,687;14,41
252,953;14,42
253,22;14,44
253,487;14,45
253,754;14,45
254,021;14,47
254,288;14,45
254,555;14,45
254,821;14,45
255,088;14,45
255,355;14,45
255,622;14,46
255,888;14,45
256,155;14,45
256,422;14,45
256,688;14,46
256,955;14,44
257,222;14,44
257,488;14,44
257,755;14,44
258,022;14,42
258,288;14,42
258,555;14,39
258,821;14,38
259,088;14,38
259,354;14,38
259,621;14,37
259,887;14,38
260,154;14,37
260,42;14,35
260,687;14,34
260,953;14,33
261,219;14,32
261,486;14,31
261,752;14,29
262,019;14,29
262,285;14,26
262,551;14,25
262,818;14,23
263,084;14,21
263,35;14,19
263,616;14,18
263,883;14,15
264,149;14,14
264,415;14,12
264,681;14,11
264,947;14,08
265,214;14,06
265,48;14,04
265,746;14,04
266,012;14,02
266,278;14
266,544;13,99
266,81;13,98
267,076;13,96
267,342;13,96
267,608;13,94
267,874;13,94
268,14;13,95
268,406;13,95
268,672;13,96
268,938;13,96
269,204;13,94
269,47;13,94
269,736;13,94
270,002;13,95
270,268;13,94
270,533;13,94
270,799;13,94
271,065;13,95
271,331;13,95
271,597;13,95
271,862;13,97
272,128;13,97
272,394;13,97
272,66;13,98
272,925;13,98
273,191;14,01
273,457;14,02
273,722;14,04
273,988;14,03
274,254;14,03
274,519;14,04
274,785;14,07
275,05;14,09
275,316;14,11
275,582;14,13
275,847;14,15
276,113;14,17
276,378;14,2
276,644;14,21
276,909;14,23
277,174;14,26
277,44;14,29
277,705;14,32
277,971;14,36
278,236;14,4
278,501;14,44
278,767;14,46
279,032;14,51
279,297;14,54
279,563;14,59
279,828;14,65
280,093;14,72
280,358;14,76
280,624;14,82
280,889;14,87
281,154;14,93
281,419;14,99
281,684;15,04
281,95;15,12
282,215;15,19
282,48;15,27
282,745;15,36
283,01;15,42
283,275;15,51
283,54;15,6
283,805;15,7
284,07;15,79
284,335;15,89
284,6;16
284,865;16,12
285,13;16,23
285,395;16,35
285,66;16,47
285,925;16,6
286,19;16,74
286,455;16,88
286,72;17,02
286,985;17,17
287,249;17,33
287,514;17,46
287,779;17,62
288,044;17,77
288,309;17,91
288,573;18,07
288,838;18,23
289,103;18,39
289,367;18,56
289,632;18,75
289,897;18,92
290,161;19,09
290,426;19,26
290,691;19,45
290,955;19,64
291,22;19,84
291,484;20,02
291,749;20,25
292,014;20,46
292,278;20,67
292,543;20,9
292,807;21,13
293,072;21,36
293,336;21,6
293,6;21,84
293,865;22,09
294,129;22,34
294,394;22,58
294,658;22,84
294,922;23,1
295,187;23,34
295,451;23,6
295,715;23,86
295,98;24,13
296,244;24,38
296,508;24,64
296,773;24,89
297,037;25,15
297,301;25,39
297,565;25,62
297,829;25,87
298,094;26,11
298,358;26,37
298,622;26,61
298,886;26,85
299,15;27,09
299,414;27,33
299,678;27,58
299,942;27,8
300,206;28,02
300,47;28,26
300,734;28,48
300,998;28,71
301,262;28,93
301,526;29,13
301,79;29,35
302,054;29,56
302,318;29,76
302,582;29,97
302,846;30,19
303,11;30,41
303,374;30,6
303,637;30,79
303,901;30,99
304,165;31,19
304,429;31,38
304,693;31,56
304,956;31,76
305,22;31,95
305,484;32,14
305,747;32,33
306,011;32,51
306,275;32,7
306,538;32,9
306,802;33,07
307,066;33,25
307,329;33,43
307,593;33,61
307,856;33,79
308,12;33,97
308,384;34,14
308,647;34,3
308,911;34,47
309,174;34,66
309,438;34,82
309,701;34,97
309,964;35,14
310,228;35,31
310,491;35,45
310,755;35,62
311,018;35,79
311,281;35,95
311,545;36,09
311,808;36,24
312,071;36,37
312,335;36,52
312,598;36,68
312,861;36,84
313,124;36,97
313,388;37,13
313,651;37,27
313,914;37,41
314,177;37,55
314,44;37,71
314,704;37,84
314,967;37,98
315,23;38,13
315,493;38,27
315,756;38,4
316,019;38,53
316,282;38,67
316,545;38,8
316,808;38,92
317,071;39,06
317,334;39,19
317,597;39,33
317,86;39,45
318,123;39,58
318,386;39,7
318,649;39,83
318,912;39,95
319,175;40,06
319,437;40,17
319,7;40,3
319,963;40,4
320,226;40,51
320,489;40,62
320,751;40,73
321,014;40,82
321,277;40,93
321,54;41,05
321,802;41,16
322,065;41,26
322,328;41,39
322,59;41,49
322,853;41,58
323,116;41,68
323,378;41,8
323,641;41,91
323,903;42,01
324,166;42,13
324,428;42,23
324,691;42,33
324,953;42,42
325,216;42,52
325,478;42,65
325,741;42,76
326,003;42,86
326,266;42,96
326,528;43,09
326,791;43,19
327,053;43,3
327,315;43,39
327,578;43,48
327,84;43,57
328,102;43,66
328,365;43,79
328,627;43,88
328,889;43,97
329,151;44,06
329,414;44,16
329,676;44,23
329,938;44,33
330,2;44,42
330,462;44,5
330,725;44,59
330,987;44,65
331,249;44,73
331,511;44,82
331,773;44,91
332,035;44,99
332,297;45,06
332,559;45,12
332,821;45,19
333,083;45,24
333,345;45,32
333,607;45,39
333,869;45,45
334,131;45,51
334,393;45,6
334,655;45,67
334,917;45,76
335,179;45,83
335,44;45,92
335,702;46,02
335,964;46,13
336,226;46,22
336,488;46,32
336,749;46,4
337,011;46,5
337,273;46,58
337,535;46,68
337,796;46,76
338,058;46,86
338,32;46,96
338,581;47,07
338,843;47,17
339,105;47,28
339,366;47,35
339,628;47,45
339,889;47,54
340,151;47,63
340,412;47,72
340,674;47,81
340,935;47,88
341,197;47,96
341,458;48,02
341,72;48,09
341,981;48,17
342,243;48,24
342,504;48,32
342,766;48,37
343,027;48,41
343,288;48,48
343,55;48,54
343,811;48,6
344,072;48,66
344,334;48,71
344,595;48,76
344,856;48,82
345,117;48,87
345,379;48,94
345,64;48,99
345,901;49,04
346,162;49,1
346,423;49,14
346,684;49,17
346,946;49,23
347,207;49,27
347,468;49,32
347,729;49,37
347,99;49,42
348,251;49,5
348,512;49,58
348,773;49,62
349,034;49,65
349,295;49,69
349,556;49,75
349,817;49,81
350,078;49,91
350,339;49,97
350,6;50,03
350,86;50,07
351,121;50,11
351,382;50,16
351,643;50,22
351,904;50,32
352,165;50,4
352,425;50,47
352,686;50,57
352,947;50,63
353,208;50,7
353,468;50,76
353,729;50,81
353,99;50,86
354,25;50,94
354,511;51,02
354,772;51,12
355,032;51,18
355,293;51,28
355,553;51,33
355,814;51,39
356,074;51,46
356,335;51,53
356,596;51,62
356,856;51,67
357,116;51,73
357,377;51,8
357,637;51,86
357,898;51,94
358,158;51,98
358,419;52,05
358,679;52,11
358,939;52,18
359,2;52,27
359,46;52,35
359,72;52,4
359,981;52,5
360,241;52,56
360,501;52,63
360,761;52,7
361,022;52,75
361,282;52,83
361,542;52,91
361,802;53
362,062;53,07
362,323;53,15
362,583;53,23
362,843;53,29
363,103;53,38
363,363;53,43
363,623;53,51
363,883;53,56
364,143;53,64
364,403;53,7
364,663;53,77
364,923;53,84
365,183;53,92
365,443;54
365,703;54,04
365,963;54,1
366,223;54,14
366,483;54,19
366,743;54,25
367,002;54,31
367,262;54,36
367,522;54,41
367,782;54,47
368,042;54,51
368,301;54,56
368,561;54,59
368,821;54,67
369,081;54,72
369,34;54,81
369,6;54,86
369,86;54,92
370,119;54,96
370,379;55,04
370,638;55,09
370,898;55,12
371,158;55,2
371,417;55,26
371,677;55,33
371,936;55,39
372,196;55,44
372,455;55,5
372,715;55,58
372,974;55,66
373,234;55,73
373,493;55,82
373,753;55,87
374,012;55,96
374,271;56,01
374,531;56,06
374,79;56,12
375,049;56,22
375,309;56,28
375,568;56,34
375,827;56,37
376,086;56,47
376,346;56,54
376,605;56,6
376,864;56,68
377,123;56,77
377,383;56,85
377,642;56,92
377,901;57,01
378,16;57,06
378,419;57,11
378,678;57,18
378,937;57,23
379,196;57,33
379,455;57,37
379,714;57,43
379,973;57,52
380,232;57,58
380,491;57,62
380,75;57,68
381,009;57,73
381,268;57,8
381,527;57,81
381,786;57,88
382,045;57,94
382,304;58,02
382,563;58,04
382,821;58,08
383,08;58,15
383,339;58,19
383,598;58,21
383,857;58,27
384,115;58,33
384,374;58,4
384,633;58,44
384,891;58,53
385,15;58,57
385,409;58,63
385,667;58,68
385,926;58,7
386,185;58,79
386,443;58,87
386,702;58,94
386,96;59,03
387,219;59,07
387,477;59,13
387,736;59,15
387,994;59,23
388,253;59,29
388,511;59,35
388,77;59,42
389,028;59,51
389,287;59,57
389,545;59,62
389,803;59,68
390,062;59,74
390,32;59,78
390,578;59,85
390,837;59,91
391,095;59,98
391,353;60,07
391,612;60,09
391,87;60,15
392,128;60,21
392,386;60,28
392,644;60,36
392,903;60,42
393,161;60,47
393,419;60,52
393,677;60,6
393,935;60,65
394,193;60,7
394,451;60,76
394,709;60,81
394,967;60,89
395,225;60,93
395,483;60,98
395,741;61,05
395,999;61,14
396,257;61,21
396,515;61,26
396,773;61,36
397,031;61,42
397,289;61,48
397,547;61,54
397,805;61,59
398,062;61,64
398,32;61,71
398,578;61,8
398,836;61,87
399,094;61,91
399,351;61,98
399,609;62,07
399,867;62,12
400,124;62,17
400,382;62,24
400,64;62,32
400,897;62,4
401,155;62,47
401,413;62,56
401,67;62,62
401,928;62,7
402,185;62,76
402,443;62,87
402,701;62,96
402,958;63,04
403,216;63,11
403,473;63,2
403,73;63,25
403,988;63,34
404,245;63,42
404,503;63,51
404,76;63,6
405,018;63,68
405,275;63,79
405,532;63,89
405,79;63,96
406,047;64,03
406,304;64,13
406,561;64,22
406,819;64,27
407,076;64,36
407,333;64,44
407,59;64,53
407,848;64,59
408,105;64,68
408,362;64,76
408,619;64,85
408,876;64,94
409,133;65,06
409,39;65,13
409,647;65,2
409,904;65,28
410,161;65,32
410,418;65,39
410,675;65,48
410,932;65,54
411,189;65,65
411,446;65,76
411,703;65,8
411,96;65,86
412,217;65,98
412,474;66,05
412,731;66,13
412,988;66,23
413,245;66,35
413,501;66,43
413,758;66,53
414,015;66,59
414,272;66,63
414,529;66,69
414,785;66,78
415,042;66,86
415,299;66,96
415,555;67,08
415,812;67,16
416,069;67,21
416,325;67,33
416,582;67,39
416,838;67,43
417,095;67,54
417,352;67,62
417,608;67,67
417,865;67,76
418,121;67,83
418,378;67,92
418,634;67,98
418,891;68,09
419,147;68,17
419,403;68,28
419,66;68,38
419,916;68,49
420,173;68,55
420,429;68,63
420,685;68,71
420,942;68,8
421,198;68,9
421,454;69,01
421,711;69,06
421,967;69,16
422,223;69,28
422,479;69,37
422,735;69,44
422,992;69,53
423,248;69,62
423,504;69,7
423,76;69,74
424,016;69,81
424,272;69,86
424,528;69,94
424,784;70,02
425,041;70,14
425,297;70,21
425,553;70,31
425,809;70,41
426,065;70,48
426,32;70,58
426,576;70,68
426,832;70,79
427,088;70,91
427,344;70,98
427,6;71,08
427,856;71,18
428,112;71,31
428,368;71,39
428,623;71,48
428,879;71,59
429,135;71,69
429,391;71,79
429,646;71,88
429,902;71,95
430,158;72,03
430,414;72,07
430,669;72,16
430,925;72,25
431,181;72,36
431,436;72,44
431,692;72,49
431,947;72,58
432,203;72,62
432,458;72,68
432,714;72,77
432,97;72,81
433,225;72,88
433,481;72,91
433,736;72,97
433,991;73,03
434,247;73,11
434,502;73,2
434,758;73,27
435,013;73,33
435,268;73,43
435,524;73,49
435,779;73,6
436,034;73,67
436,29;73,75
436,545;73,78
436,8;73,86
437,056;73,95
437,311;73,96
437,566;74,05
437,821;74,1
438,076;74,18
438,331;74,27
438,587;74,32
438,842;74,44
439,097;74,52
439,352;74,62
439,607;74,65
439,862;74,71
440,117;74,78
440,372;74,85
440,627;74,88
440,882;74,99
441,137;75,06
441,392;75,15
441,647;75,19
441,902;75,25
442,157;75,28
442,412;75,32
442,667;75,38
442,921;75,45
443,176;75,51
443,431;75,54
443,686;75,59
443,941;75,65
444,195;75,68
444,45;75,73
444,705;75,78
444,96;75,84
445,214;75,88
445,469;75,92
445,724;75,94
445,978;75,97
446,233;75,96
446,487;76,01
446,742;76,01
446,997;76,06
447,251;76,07
447,506;76,12
447,76;76,14
448,015;76,18
448,269;76,16
448,524;76,2
448,778;76,26
449,033;76,3
449,287;76,31
449,541;76,32
449,796;76,35
450,05;76,36
450,305;76,34
450,559;76,37
450,813;76,39
451,067;76,43
451,322;76,45
451,576;76,48
451,83;76,44
452,084;76,46
452,339;76,46
452,593;76,49
452,847;76,51
453,101;76,54
453,355;76,54
453,609;76,57
453,864;76,61
454,118;76,57
454,372;76,57
454,626;76,58
454,88;76,58
455,134;76,59
455,388;76,6
455,642;76,62
455,896;76,6
456,15;76,56
456,404;76,53
456,658;76,51
456,912;76,46
457,165;76,46
457,419;76,44
457,673;76,4
457,927;76,35
458,181;76,31
458,435;76,29
458,688;76,28
458,942;76,28
459,196;76,18
459,45;76,13
459,703;76,09
459,957;76,05
460,211;76
460,464;75,93
460,718;75,84
460,972;75,81
461,225;75,75
461,479;75,73
461,732;75,67
461,986;75,6
462,239;75,55
462,493;75,52
462,746;75,49
463;75,42
463,253;75,37
463,507;75,31
463,76;75,23
464,014;75,15
464,267;75,09
464,52;75
464,774;74,93
465,027;74,88
465,28;74,79
465,534;74,72
465,787;74,65
466,04;74,58
466,294;74,48
466,547;74,4
466,8;74,32
467,053;74,25
467,306;74,19
467,56;74,12
467,813;74,04
468,066;73,94
468,319;73,87
468,572;73,78
468,825;73,64
469,078;73,54
469,331;73,46
469,584;73,31
469,837;73,23
470,09;73,16
470,343;73,04
470,596;72,97
470,849;72,86
471,102;72,74
471,355;72,63
471,608;72,51
471,861;72,4
472,114;72,25
472,367;72,14
472,619;71,99
472,872;71,86
473,125;71,67
473,378;71,55
473,631;71,41
473,883;71,29
474,136;71,19
474,389;71,05
474,641;70,89
474,894;70,76
475,147;70,6
475,399;70,46
475,652;70,3
475,905;70,16
476,157;70
476,41;69,85
476,662;69,71
476,915;69,55
477,167;69,42
477,42;69,28
477,672;69,09
477,925;68,96
478,177;68,77
478,43;68,63
478,682;68,43
478,934;68,25
479,187;68,09
479,439;67,9
479,691;67,74
479,944;67,56
480,196;67,37
480,448;67,21
480,701;67,01
480,953;66,84
481,205;66,65
481,457;66,47
481,709;66,31
481,962;66,11
482,214;65,9
482,466;65,66
482,718;65,42
482,97;65,2
483,222;64,95
483,474;64,74
483,726;64,54
483,978;64,36
484,23;64,19
484,482;64,02
484,734;63,85
484,986;63,68
485,238;63,52
485,49;63,36
485,742;63,22
485,994;63,07
486,246;62,91
486,498;62,74
486,75;62,57
487,001;62,39
487,253;62,21
487,505;62,03
487,757;61,84
488,009;61,65
488,26;61,43
488,512;61,21
488,764;60,97
489,015;60,75
489,267;60,52
489,519;60,29
489,77;60,06
490,022;59,84
490,274;59,63
490,525;59,43
490,777;59,23
491,028;59
491,28;58,8
491,531;58,58
491,783;58,37
492,034;58,19
492,286;58
492,537;57,77
492,789;57,56
493,04;57,35
493,291;57,11
493,543;56,9
493,794;56,67
494,045;56,46
494,297;56,21
494,548;55,99
494,799;55,77
495,051;55,56
495,302;55,34
495,553;55,14
495,804;54,93
496,056;54,73
496,307;54,51
496,558;54,28
496,809;54,06
497,06;53,88
497,311;53,65
497,562;53,43
497,813;53,24
498,064;53,03
498,316;52,83
498,567;52,63
498,818;52,41
499,069;52,23
499,319;52,01
499,57;51,81
499,821;51,61
500,072;51,39
500,323;51,19
500,574;51
500,825;50,79
501,076;50,57
501,327;50,36
501,577;50,18
501,828;49,97
502,079;49,78
502,33;49,56
502,58;49,37
502,831;49,15
503,082;48,94
503,333;48,74
503,583;48,55
503,834;48,34
504,084;48,16
504,335;47,94
504,586;47,75
504,836;47,57
505,087;47,37
505,337;47,17
505,588;46,96
505,838;46,77
506,089;46,58
506,339;46,41
506,59;46,22
506,84;46,01
507,091;45,85
507,341;45,66
507,591;45,48
507,842;45,28
508,092;45,1
508,343;44,92
508,593;44,74
508,843;44,55
509,093;44,38
509,344;44,19
509,594;44,02
509,844;43,84
510,094;43,65
510,345;43,47
510,595;43,3
510,845;43,13
511,095;42,95
511,345;42,78
511,595;42,59
511,845;42,4
512,095;42,25
512,345;42,09
512,595;41,92
512,845;41,75
513,095;41,59
513,345;41,43
513,595;41,27
513,845;41,1
514,095;40,95
514,345;40,8
514,595;40,65
514,845;40,48
515,095;40,36
515,345;40,22
515,594;40,08
515,844;39,93
516,094;39,76
516,344;39,6
516,593;39,44
516,843;39,3
517,093;39,18
517,343;39,01
517,592;38,86
517,842;38,7
518,092;38,56
518,341;38,4
518,591;38,26
518,84;38,12
519,09;37,98
519,34;37,85
519,589;37,71
519,839;37,55
520,088;37,41
520,338;37,28
520,587;37,13
520,836;36,99
521,086;36,86
521,335;36,74
521,585;36,61
521,834;36,49
522,083;36,37
522,333;36,23
522,582;36,11
522,831;36
523,081;35,88
523,33;35,77
523,579;35,66
523,828;35,56
524,078;35,44
524,327;35,32
524,576;35,2
524,825;35,09
525,074;34,98
525,323;34,88
525,573;34,75
525,822;34,64
526,071;34,53
526,32;34,43
526,569;34,33
526,818;34,23
527,067;34,11
527,316;34
527,565;33,88
527,814;33,78
528,063;33,66
528,312;33,55
528,56;33,44
528,809;33,32
529,058;33,21
529,307;33,1
529,556;33,01
529,805;32,92
530,053;32,82
530,302;32,72
530,551;32,63
530,8;32,53
531,048;32,45
531,297;32,36
531,546;32,25
531,794;32,16
532,043;32,08
532,292;31,99
532,54;31,9
532,789;31,81
533,037;31,73
533,286;31,65
533,535;31,58
533,783;31,48
534,032;31,41
534,28;31,33
534,528;31,26
534,777;31,17
535,025;31,07
535,274;30,99
535,522;30,92
535,771;30,84
536,019;30,76
536,267;30,67
536,516;30,61
536,764;30,53
537,012;30,45
537,26;30,35
537,509;30,28
537,757;30,21
538,005;30,14
538,253;30,08
538,501;30,01
538,75;29,92
538,998;29,88
539,246;29,8
539,494;29,73
539,742;29,65
539,99;29,59
540,238;29,52
540,486;29,44
540,734;29,37
540,982;29,3
541,23;29,23
541,478;29,16
541,726;29,09
541,974;29,03
542,222;28,97
542,47;28,9
542,718;28,85
542,966;28,79
543,213;28,71
543,461;28,63
543,709;28,57
543,957;28,5
544,205;28,43
544,452;28,37
544,7;28,3
544,948;28,25
545,196;28,19
545,443;28,14
545,691;28,07
545,939;28,01
546,186;27,96
546,434;27,91
546,681;27,85
546,929;27,78
547,176;27,73
547,424;27,66
547,671;27,61
547,919;27,56
548,166;27,51
548,414;27,48
548,661;27,43
548,909;27,39
549,156;27,36
549,404;27,3
549,651;27,25
549,898;27,22
550,146;27,16
550,393;27,14
550,64;27,09
550,888;27,06
551,135;27,02
551,382;26,99
551,629;26,94
551,876;26,9
552,124;26,86
552,371;26,82
552,618;26,77
552,865;26,75
553,112;26,69
553,359;26,66
553,606;26,6
553,854;26,56
554,101;26,52
554,348;26,48
554,595;26,43
554,842;26,4
555,089;26,35
555,336;26,31
555,582;26,26
555,829;26,22
556,076;26,17
556,323;26,14
556,57;26,09
556,817;26,05
557,064;26
557,311;25,97
557,557;25,91
557,804;25,9
558,051;25,86
558,298;25,85
558,544;25,81
558,791;25,77
559,038;25,73
559,284;25,7
559,531;25,67
559,778;25,64
560,024;25,61
560,271;25,58
560,517;25,56
560,764;25,53
561,011;25,5
561,257;25,48
561,504;25,44
561,75;25,41
561,997;25,39
562,243;25,38
562,489;25,34
562,736;25,32
562,982;25,29
563,229;25,26
563,475;25,22
563,721;25,2
563,968;25,18
564,214;25,16
564,46;25,13
564,707;25,11
564,953;25,1
565,199;25,07
565,445;25,05
565,691;25,04
565,938;25,01
566,184;25
566,43;24,98
566,676;24,97
566,922;24,94
567,168;24,94
567,414;24,93
567,66;24,94
567,906;24,92
568,152;24,9
568,398;24,9
568,644;24,89
568,89;24,87
569,136;24,87
569,382;24,87
569,628;24,86
569,874;24,84
570,12;24,84
570,366;24,83
570,612;24,82
570,857;24,8
571,103;24,8
571,349;24,77
571,595;24,76
571,84;24,76
572,086;24,75
572,332;24,74
572,578;24,72
572,823;24,7
573,069;24,69
573,315;24,68
573,56;24,67
573,806;24,66
574,051;24,64
574,297;24,63
574,542;24,63
574,788;24,62
575,034;24,61
575,279;24,59
575,524;24,59
575,77;24,57
576,015;24,56
576,261;24,54
576,506;24,54
576,752;24,51
576,997;24,49
577,242;24,48
577,488;24,45
577,733;24,43
577,978;24,42
578,223;24,41
578,469;24,39
578,714;24,38
578,959;24,36
579,204;24,36
579,45;24,35
579,695;24,33
579,94;24,32
580,185;24,3
580,43;24,29
580,675;24,27
580,92;24,27
581,165;24,25
581,41;24,25
581,655;24,23
581,9;24,23
582,145;24,22
582,39;24,2
582,635;24,2
582,88;24,2
583,125;24,19
583,37;24,18
583,615;24,17
583,86;24,17
584,105;24,15
584,349;24,13
584,594;24,11
584,839;24,1
585,084;24,08
585,328;24,07
585,573;24,05
585,818;24,05
586,063;24,03
586,307;24,02
586,552;24,01
586,797;24
587,041;23,99
587,286;23,99
587,53;23,98
587,775;23,95
588,019;23,94
588,264;23,93
588,508;23,91
588,753;23,89
588,997;23,87
589,242;23,87
589,486;23,86
589,731;23,86
589,975;23,86
590,22;23,85
590,464;23,84
590,708;23,84
590,953;23,83
591,197;23,82
591,441;23,82
591,685;23,8
591,93;23,79
592,174;23,8
592,418;23,79
592,662;23,79
592,907;23,79
593,151;23,8
593,395;23,78
593,639;23,77
593,883;23,77
594,127;23,76
594,371;23,75
594,615;23,74
594,859;23,72
595,103;23,71
595,347;23,7
595,591;23,69
595,835;23,67
596,079;23,67
596,323;23,67
596,567;23,66
596,811;23,65
597,055;23,65
597,299;23,64
597,542;23,64
597,786;23,63
598,03;23,63
598,274;23,62
598,518;23,63
598,761;23,64
599,005;23,65
599,249;23,65
599,492;23,66
599,736;23,66
599,98;23,67
600,223;23,68
600,467;23,69
600,711;23,7
600,954;23,71
601,198;23,7
601,441;23,7
601,685;23,71
601,928;23,72
602,172;23,72
602,415;23,71
602,659;23,71
602,902;23,72
603,145;23,72
603,389;23,72
603,632;23,72
603,876;23,72
604,119;23,71
604,362;23,71
604,606;23,7
604,849;23,71
605,092;23,69
605,335;23,68
605,579;23,67
605,822;23,67
606,065;23,66
606,308;23,67
606,551;23,66
606,794;23,66
607,037;23,66
607,281;23,67
607,524;23,66
607,767;23,66
608,01;23,66
608,253;23,67
608,496;23,67
608,739;23,67
608,982;23,66
609,225;23,69
609,468;23,69
609,711;23,7
609,953;23,71
610,196;23,73
610,439;23,74
610,682;23,74
610,925;23,75
611,168;23,76
611,41;23,76
611,653;23,78
611,896;23,78
612,139;23,79
612,381;23,8
612,624;23,82
612,867;23,82
613,109;23,84
613,352;23,85
613,595;23,85
613,837;23,85
614,08;23,88
614,322;23,87
614,565;23,88
614,807;23,88
615,05;23,89
615,292;23,89
615,535;23,9
615,777;23,91
616,02;23,93
616,262;23,93
616,505;23,95
616,747;23,95
616,989;23,96
617,232;23,97
617,474;23,98
617,716;23,99
617,959;24
618,201;24,01
618,443;24,02
618,685;24,04
618,927;24,08
619,17;24,09
619,412;24,1
619,654;24,12
619,896;24,15
620,138;24,17
620,38;24,2
620,622;24,22
620,864;24,24
621,107;24,25
621,349;24,27
621,591;24,3
621,833;24,32
622,075;24,34
622,316;24,36
622,558;24,38
622,8;24,4
623,042;24,42
623,284;24,43
623,526;24,44
623,768;24,46
624,01;24,45
624,251;24,47
624,493;24,48
624,735;24,48
624,977;24,49
625,218;24,5
625,46;24,5
625,702;24,53
625,943;24,53
626,185;24,55
626,427;24,56
626,668;24,57
626,91;24,59
627,152;24,6
627,393;24,61
627,635;24,63
627,876;24,64
628,118;24,67
628,359;24,69
628,601;24,72
628,842;24,74
629,084;24,77
629,325;24,78
629,566;24,8
629,808;24,81
630,049;24,84
630,29;24,84
630,532;24,85
630,773;24,85
631,014;24,88
631,256;24,87
631,497;24,9
631,738;24,91
631,979;24,92
632,22;24,93
632,462;24,95
632,703;24,95
632,944;24,97
633,185;24,98
633,426;25,01
633,667;25,04
633,908;25,06
634,149;25,06
634,39;25,08
634,631;25,1
634,872;25,13
635,113;25,14
635,354;25,17
635,595;25,18
635,836;25,22
636,077;25,23
636,318;25,28
636,559;25,29
636,8;25,31
637,04;25,33
637,281;25,36
637,522;25,38
637,763;25,42
638,003;25,44
638,244;25,47
638,485;25,47
638,726;25,48
638,966;25,5
639,207;25,55
639,448;25,57
639,688;25,61
639,929;25,61
640,169;25,65
640,41;25,68
640,65;25,72
640,891;25,75
641,131;25,78
641,372;25,8
641,612;25,84
641,853;25,87
642,093;25,91
642,334;25,94
642,574;25,97
642,814;26
643,055;26,04
643,295;26,06
643,535;26,11
643,776;26,14
644,016;26,18
644,256;26,19
644,496;26,25
644,737;26,26
644,977;26,31
645,217;26,34
645,457;26,38
645,697;26,4
645,938;26,45
646,178;26,47
646,418;26,51
646,658;26,55
646,898;26,59
647,138;26,61
647,378;26,65
647,618;26,7
647,858;26,74
648,098;26,78
648,338;26,82
648,578;26,84
648,818;26,88
649,057;26,92
649,297;26,98
649,537;27
649,777;27,05
650,017;27,08
650,257;27,14
650,496;27,18
650,736;27,22
650,976;27,26
661,506;29,27
661,744;29,38
661,983;29,47
662,222;29,55
662,461;29,61
662,7;29,7
662,939;29,77
663,177;29,84
663,416;29,9
663,655;29,97
663,894;30,05
664,132;30,11
664,371;30,16
664,61;30,24
664,848;30,31
665,087;30,38
665,326;30,45
665,564;30,52
665,803;30,58
666,041;30,65
666,28;30,71
666,518;30,77
666,757;30,83
666,995;30,9
667,234;30,97
667,472;31,04
667,711;31,12
667,949;31,19
668,187;31,26
668,426;31,35
668,664;31,43
668,902;31,49
669,141;31,57
669,379;31,66
669,617;31,75
669,856;31,84
670,094;31,93
670,332;32
670,57;32,08
670,808;32,16
671,046;32,25
671,285;32,34
671,523;32,42
671,761;32,5
671,999;32,59
672,237;32,67
672,475;32,76
672,713;32,82
672,951;32,9
673,189;32,97
673,427;33,04
673,665;33,12
673,903;33,22
674,141;33,3
674,379;33,4
674,617;33,49
674,854;33,57
675,092;33,66
675,33;33,75
675,568;33,84
675,806;33,95
676,043;34,05
676,281;34,15
676,519;34,26
676,756;34,35
676,994;34,47
677,232;34,57
677,469;34,66
677,707;34,78
677,945;34,88
678,182;35
678,42;35,1
678,657;35,21
678,895;35,3
679,132;35,42
679,37;35,5
679,607;35,6
679,845;35,69
680,082;35,8
680,32;35,9
680,557;36
680,794;36,1
681,032;36,19
681,269;36,28
681,507;36,39
681,744;36,51
681,981;36,62
682,218;36,74
682,456;36,87
682,693;36,98
682,93;37,1
683,167;37,21
683,404;37,33
683,642;37,44
683,879;37,57
684,116;37,69
684,353;37,8
684,59;37,92
684,827;38,03
685,064;38,16
685,301;38,28
685,538;38,41
685,775;38,52
686,012;38,64
686,249;38,76
686,486;38,88
686,723;38,99
686,96;39,12
687,197;39,24
687,433;39,36
687,67;39,46
687,907;39,59
688,144;39,73
688,381;39,86
688,617;39,97
688,854;40,09
689,091;40,21
689,327;40,34
689,564;40,47
689,801;40,62
690,037;40,74
690,274;40,86
690,511;40,99
690,747;41,14
690,984;41,27
691,22;41,4
691,457;41,54
691,693;41,68
691,93;41,81
692,166;41,95
692,403;42,08
692,639;42,22
692,876;42,36
693,112;42,5
693,348;42,64
693,585;42,78
693,821;42,94
694,057;43,09
694,294;43,25
694,53;43,39
694,766;43,52
695,002;43,68
695,239;43,83
695,475;43,97
695,711;44,1
695,947;44,24
696,183;44,41
696,419;44,54
696,656;44,69
696,892;44,83
697,128;44,95
697,364;45,1
697,6;45,26
697,836;45,4
698,072;45,55
698,308;45,7
698,544;45,86
698,78;46
699,016;46,15
699,251;46,28
699,487;46,45
699,723;46,61
699,959;46,76
700,195;46,91
700,431;47,06
700,666;47,24
700,902;47,41
701,138;47,57
701,374;47,72
701,609;47,89
701,845;48,08
702,081;48,24
702,316;48,42
702,552;48,58
702,788;48,75
703,023;48,9
703,259;49,06
703,494;49,21
703,73;49,38
703,965;49,55
704,201;49,73
704,436;49,88
704,672;50,06
704,907;50,24
705,143;50,41
705,378;50,58
705,613;50,72
705,849;50,87
706,084;51,02
706,319;51,18
706,555;51,33
706,79;51,45
707,025;51,63
707,26;51,77
707,496;51,92
707,731;52,07
707,966;52,22
708,201;52,38
708,436;52,54
708,671;52,69
708,907;52,83
709,142;52,97
709,377;53,14
709,612;53,29
709,847;53,43
710,082;53,59
710,317;53,75
710,552;53,92
710,787;54,07
711,022;54,24
711,257;54,41
711,492;54,57
711,726;54,75
711,961;54,9
712,196;55,06
712,431;55,24
712,666;55,4
712,901;55,55
713,135;55,69
713,37;55,86
713,605;56,03
713,839;56,2
714,074;56,37
714,309;56,54
714,543;56,69
714,778;56,87
715,013;57,05
715,247;57,22
715,482;57,38
715,716;57,57
715,951;57,72
716,185;57,89
716,42;58,04
716,654;58,22
716,889;58,38
717,123;58,54
717,358;58,69
717,592;58,86
717,827;59,02
718,061;59,2
718,295;59,36
718,53;59,52
718,764;59,66
718,998;59,82
719,232;59,97
719,467;60,13
719,701;60,29
719,935;60,42
720,169;60,56
720,403;60,7
720,638;60,87
720,872;61,03
721,106;61,2
721,34;61,36
721,574;61,51
721,808;61,67
722,042;61,81
722,276;61,95
722,51;62,11
722,744;62,26
722,978;62,43
723,212;62,6
723,446;62,74
723,68;62,9
723,914;63,05
724,147;63,21
724,381;63,35
724,615;63,49
724,849;63,65
725,083;63,81
725,316;63,97
725,55;64,08
725,784;64,25
726,018;64,4
726,251;64,55
726,485;64,7
726,719;64,82
726,952;64,98
727,186;65,13
727,419;65,27
727,653;65,42
727,887;65,54
728,12;65,67
728,354;65,81
728,587;65,96
728,821;66,1
729,054;66,24
729,287;66,35
729,521;66,48
729,754;66,6
729,988;66,74
730,221;66,86
730,454;67,01
730,688;67,1
730,921;67,2
731,154;67,33
731,387;67,44
731,621;67,59
731,854;67,71
732,087;67,83
732,32;67,93
732,553;68,04
732,787;68,17
733,02;68,29
733,253;68,41
733,486;68,52
733,719;68,62
733,952;68,74
734,185;68,89
734,418;69,02
734,651;69,14
734,884;69,23
735,117;69,37
735,35;69,45
735,583;69,58
735,816;69,68
736,049;69,8
736,281;69,9
736,514;70,01
736,747;70,12
736,98;70,22
737,213;70,32
737,445;70,44
737,678;70,53
737,911;70,62
738,144;70,73
738,376;70,85
738,609;70,95
738,842;71,04
739,074;71,12
739,307;71,22
739,539;71,31
739,772;71,43
740,004;71,54
740,237;71,65
740,469;71,76
740,702;71,84
740,934;71,97
741,167;72,07
741,399;72,17
741,632;72,29
741,864;72,4
742,096;72,51
742,329;72,62
742,561;72,73
742,793;72,82
743,026;72,92
743,258;73
743,49;73,13
743,723;73,2
743,955;73,32
744,187;73,39
744,419;73,5
744,651;73,58
744,883;73,68
745,115;73,77
745,348;73,83
745,58;73,93
745,812;73,99
746,044;74,08
746,276;74,18
746,508;74,24
746,74;74,34
746,972;74,43
747,204;74,52
747,436;74,6
747,667;74,69
747,899;74,75
748,131;74,84
748,363;74,9
748,595;74,97
748,827;75,02
749,058;75,1
749,29;75,18
749,522;75,23
749,754;75,26
749,985;75,3
750,217;75,36
750,449;75,44
750,68;75,51
750,912;75,56
751,144;75,63
751,375;75,68
751,607;75,71
751,838;75,77
752,07;75,81
752,301;75,86
752,533;75,93
752,764;75,98
752,996;76,04
753,227;76,06
753,459;76,15
753,69;76,21
753,921;76,25
754,153;76,28
754,384;76,35
754,615;76,4
754,847;76,48
755,078;76,55
755,309;76,56
755,54;76,55
755,772;76,57
756,003;76,6
756,234;76,64
756,465;76,68
756,696;76,71
756,927;76,75
757,159;76,8
757,39;76,85
757,621;76,89
757,852;76,89
758,083;76,96
758,314;76,97
758,545;77,01
758,776;77,05
759,007;77,1
759,238;77,12
759,469;77,18
759,699;77,24
759,93;77,28
760,161;77,36
760,392;77,44
760,623;77,49
760,854;77,52
761,084;77,56
761,315;77,61
761,546;77,66
761,776;77,69
762,007;77,75
762,238;77,75
762,468;77,78
762,699;77,85
762,93;77,92
763,16;77,99
763,391;78,02
763,621;78,06
763,852;78,08
764,083;78,12
764,313;78,18
764,543;78,19
764,774;78,24
765,004;78,24
765,235;78,28
765,465;78,33
765,696;78,38
765,926;78,43
766,156;78,44
766,387;78,49
766,617;78,51
766,847;78,53
767,077;78,58
767,308;78,66
767,538;78,68
767,768;78,7
767,998;78,74
768,228;78,79
768,459;78,83
768,689;78,89
768,919;78,93
769,149;78,97
769,379;78,99
769,609;79
769,839;79,06
770,069;79,11
770,299;79,13
770,529;79,15
770,759;79,18
770,989;79,23
771,219;79,27
771,449;79,31
771,678;79,34
771,908;79,4
772,138;79,39
772,368;79,43
772,598;79,47
772,827;79,5
773,057;79,52
773,287;79,54
773,517;79,57
773,746;79,6
773,976;79,64
774,206;79,66
774,435;79,69
774,665;79,71
774,894;79,71
775,124;79,77
775,354;79,8
775,583;79,83
775,813;79,89
776,042;79,9
776,272;79,95
776,501;79,98
776,73;79,98
776,96;80,02
777,189;80,03
777,419;80,03
777,648;80,04
777,877;80,05
778,107;80,06
778,336;80,08
778,565;80,06
778,794;80,05
779,024;80,09
779,253;80,09
779,482;80,07
779,711;80,12
779,94;80,12
780,17;80,11
780,399;80,11
780,628;80,1
780,857;80,12
781,086;80,1
781,315;80,09
781,544;80,12
781,773;80,13
782,002;80,14
782,231;80,18
782,46;80,19
782,689;80,21
782,918;80,23
783,147;80,24
783,375;80,26
783,604;80,28
783,833;80,28
784,062;80,32
784,291;80,36
784,519;80,36
784,748;80,39
784,977;80,45
785,206;80,46
785,434;80,46
785,663;80,47
785,892;80,52
786,12;80,54
786,349;80,55
786,577;80,54
786,806;80,57
787,034;80,57
787,263;80,59
787,492;80,62
787,72;80,63
787,948;80,64
788,177;80,64
788,405;80,65
788,634;80,66
788,862;80,67
789,09;80,7
789,319;80,69
789,547;80,71
789,775;80,71
790,004;80,7
790,232;80,74
790,46;80,68
790,688;80,7
790,917;80,71
791,145;80,73
791,373;80,73
791,601;80,73
791,829;80,7
792,057;80,68
792,286;80,68
792,514;80,67
792,742;80,67
792,97;80,73
793,198;80,74
793,426;80,75
793,654;80,75
793,882;80,74
794,109;80,76
794,337;80,75
794,565;80,75
794,793;80,78
795,021;80,78
795,249;80,85
795,477;80,82
795,704;80,85
795,932;80,85
796,16;80,9
796,388;80,91
796,615;80,97
796,843;81
797,071;81,01
797,298;81,03
797,526;81,04
797,754;81,01
797,981;81,04
798,209;81,06
798,436;81,04
798,664;81,07
798,891;81,06
799,119;81,1
799,346;81,11
799,574;81,11
799,801;81,14
800,029;81,13
800,256;81,16
800,483;81,13
800,711;81,14
800,938;81,14
801,165;81,17
801,393;81,17
801,62;81,19
801,847;81,2
802,074;81,2
802,302;81,22
802,529;81,29
802,756;81,32
802,983;81,37
803,21;81,41
803,437;81,4
803,665;81,43
803,892;81,41
804,119;81,43
804,346;81,42
804,573;81,41
804,8;81,43
805,027;81,42
805,254;81,43
805,481;81,41
805,708;81,4
805,934;81,37
806,161;81,38
806,388;81,35
806,615;81,33
806,842;81,34
807,069;81,36
807,295;81,35
807,522;81,35
807,749;81,31
807,976;81,32
808,202;81,32
808,429;81,34
808,656;81,39
808,882;81,38
809,109;81,42
809,335;81,42
809,562;81,41
809,789;81,48
810,015;81,49
810,242;81,56
810,468;81,58
810,695;81,62
810,921;81,61
811,147;81,66
811,374;81,69
811,6;81,7
811,827;81,67
812,053;81,68
812,279;81,63
812,506;81,62
812,732;81,61
812,958;81,61
813,185;81,62
813,411;81,57
813,637;81,61
813,863;81,57
814,089;81,6
814,315;81,62
814,542;81,59
814,768;81,58
814,994;81,57
815,22;81,56
815,446;81,57
815,672;81,59
815,898;81,59
816,124;81,56
816,35;81,56
816,576;81,62
816,802;81,62
817,028;81,69
817,254;81,71
817,48;81,73
817,705;81,76
817,931;81,73
818,157;81,77
818,383;81,73
818,609;81,78
818,834;81,78
819,06;81,81
819,286;81,79
819,512;81,84
819,737;81,81
819,963;81,83
820,189;81,83
820,414;81,85
820,64;81,84
820,865;81,86
821,091;81,89
821,316;81,84
821,542;81,83
821,767;81,78
821,993;81,82
822,218;81,78
822,444;81,81
822,669;81,85
822,895;81,85
823,12;81,86
823,345;81,87
823,571;81,89
823,796;81,92
824,021;81,94
824,247;81,92
824,472;81,95
824,697;81,99
824,922;81,99
825,147;81,95
825,373;81,98
825,598;81,98
825,823;81,95
826,048;81,97
826,273;81,99
826,498;82,01
826,723;82
826,948;82,03
827,173;81,97
827,398;81,91
827,623;81,91
827,848;81,88
828,073;81,84
828,298;81,83
828,523;81,79
828,748;81,79
828,973;81,79
829,197;81,77
829,422;81,75
829,647;81,79
829,872;81,79
830,097;81,8
830,321;81,81
830,546;81,86
830,771;81,86
830,995;81,85
831,22;81,82
831,445;81,83
831,669;81,81
831,894;81,83
832,118;81,86
832,343;81,89
832,567;81,95
832,792;81,96
833,016;81,99
833,241;82,03
833,465;82,03
833,69;82,11
833,914;82,12
834,139;82,12
834,363;82,1
834,587;82,17
834,812;82,19
835,036;82,19
835,26;82,18
835,485;82,16
835,709;82,17
835,933;82,21
836,157;82,21
836,381;82,25
836,606;82,25
836,83;82,27
837,054;82,21
837,278;82,25
837,502;82,22
837,726;82,22
837,95;82,15
838,174;82,17
838,398;82,11
838,622;82,1
838,846;82,12
839,07;82,08
839,294;82,06
839,518;82,04
839,742;82,04
839,966;82,04
840,189;82,08
840,413;82,06
840,637;82,03
840,861;82,05
841,085;82,03
841,308;82,05
841,532;82,01
841,756;82,03
841,979;81,95
842,203;82
842,427;82,03
842,65;82,1
842,874;82,13
843,098;82,13
843,321;82,15
843,545;82,18
843,768;82,19
843,992;82,2
844,215;82,23
844,439;82,24
844,662;82,27
844,886;82,24
845,109;82,24
845,332;82,27
845,556;82,24
845,779;82,28
846,002;82,23
846,226;82,24
846,449;82,27
846,672;82,33
846,895;82,31
847,119;82,29
847,342;82,26
847,565;82,27
847,788;82,3
848,011;82,34
848,234;82,37
848,457;82,35
848,681;82,37
848,904;82,37
849,127;82,35
849,35;82,39
849,573;82,42
849,796;82,46
850,019;82,47
850,241;82,51
850,464;82,54
850,687;82,56
850,91;82,62
851,133;82,62
851,356;82,65
851,579;82,69
851,801;82,65
852,024;82,65
852,247;82,64
852,47;82,66
852,692;82,61
852,915;82,54
853,138;82,56
853,36;82,53
853,583;82,53
853,806;82,54
854,028;82,52
854,251;82,48
854,473;82,5
854,696;82,48
854,918;82,52
855,141;82,46
855,363;82,52
855,586;82,49
855,808;82,52
856,031;82,51
856,253;82,5
856,475;82,53
856,698;82,51
856,92;82,43
857,142;82,4
857,365;82,44
857,587;82,46
857,809;82,5
858,031;82,49
858,253;82,53
858,476;82,5
858,698;82,48
858,92;82,5
859,142;82,49
859,364;82,5
859,586;82,45
859,808;82,5
860,03;82,51
860,252;82,56
860,474;82,54
860,696;82,5
860,918;82,47
861,14;82,47
861,362;82,51
861,584;82,58
861,806;82,58
862,028;82,53
862,25;82,56
862,471;82,57
862,693;82,6
862,915;82,54
863,137;82,61
863,358;82,62
863,58;82,61
863,802;82,63
864,024;82,6
864,245;82,62
864,467;82,66
864,688;82,7
864,91;82,66
865,132;82,69
865,353;82,64
865,575;82,67
865,796;82,64
866,018;82,6
866,239;82,61
866,461;82,63
866,682;82,62
866,903;82,65
867,125;82,6
867,346;82,59
867,567;82,66
867,789;82,63
868,01;82,64
868,231;82,67
868,453;82,67
868,674;82,7
868,895;82,69
869,116;82,66
869,337;82,59
869,559;82,59
869,78;82,59
870,001;82,65
870,222;82,68
870,443;82,71
870,664;82,75
870,885;82,78
871,106;82,79
871,327;82,85
871,548;82,79
871,769;82,82
871,99;82,84
872,211;82,8
872,432;82,77
872,653;82,77
872,874;82,78
873,094;82,82
873,315;82,8
873,536;82,76
873,757;82,67
873,978;82,72
874,198;82,72
874,419;82,66
874,64;82,65
874,86;82,58
875,081;82,61
875,302;82,64
875,522;82,6
875,743;82,59
875,963;82,65
876,184;82,62
876,404;82,6
876,625;82,59
876,845;82,63
877,066;82,66
877,286;82,64
877,507;82,71
877,727;82,66
877,947;82,64
878,168;82,74
878,388;82,79
878,609;82,74
878,829;82,73
879,049;82,75
879,269;82,8
879,49;82,82
879,71;82,83
879,93;82,85
880,15;82,87
880,37;82,87
880,59;82,8
880,811;82,85
881,031;82,92
881,251;82,93
881,471;82,85
881,691;82,87
881,911;82,87
882,131;82,82
882,351;82,83
882,571;82,87
882,791;82,86
883,011;82,89
883,23;82,95
883,45;83,01
883,67;83,03
883,89;83,06
884,11;83,11
884,33;83,13
884,549;83,1
884,769;83,15
884,989;83,15
885,209;83,15
885,428;83,17
885,648;83,09
885,868;83,13
886,087;83,19
886,307;83,15
886,526;83,2
886,746;83,18
886,965;83,18
887,185;83,2
887,404;83,22
887,624;83,22
887,843;83,24
888,063;83,31
888,282;83,35
888,502;83,33
888,721;83,3
888,94;83,33
889,16;83,37
889,379;83,34
889,598;83,39
889,818;83,38
890,037;83,42
890,256;83,48
890,475;83,47
890,694;83,53
890,914;83,64
891,133;83,67
891,352;83,73
891,571;83,79
891,79;83,78
892,009;83,77
892,228;83,75
892,447;83,77
892,666;83,67
892,885;83,68
893,104;83,66
893,323;83,75
893,542;83,66
893,761;83,61
893,98;83,51
894,199;83,47
894,417;83,46
894,636;83,39
894,855;83,36
895,074;83,37
895,293;83,36
895,511;83,29
895,73;83,26
895,949;83,21
896,167;83,19
896,386;83,2
896,605;83,25
896,823;83,33
897,042;83,31
897,26;83,37
897,479;83,4
897,697;83,41
897,916;83,36
898,134;83,41
898,353;83,43
898,571;83,57
898,79;83,61
899,008;83,69
899,227;83,72
899,445;83,76
899,663;83,73
899,882;83,71
900,1;83,77
900,318;83,8
900,536;83,85
900,755;83,91
900,973;83,9
901,191;83,83
901,409;83,78
901,627;83,82
901,846;83,77
902,064;83,71
902,282;83,7
902,5;83,7
902,718;83,81
902,936;83,82
903,154;83,85
903,372;83,93
903,59;83,99
903,808;83,97
904,026;83,96
904,244;84,02
904,462;84,08
904,679;84,07
904,897;84,12
905,115;84,11
905,333;84,01
905,551;84,07
905,768;84,06
905,986;84,13
906,204;84,07
906,422;84,14
906,639;84,13
906,857;84,18
907,074;84,19
907,292;84,05
907,51;84,08
907,727;84,07
907,945;83,99
908,162;84,03
908,38;84,1
908,597;84,11
908,815;84,08
909,032;84,17
909,25;84,15
909,467;84,15
909,684;84,24
909,902;84,34
910,119;84,35
910,337;84,45
910,554;84,39
910,771;84,4
910,988;84,44
911,206;84,49
911,423;84,6
911,64;84,59
911,857;84,64
912,074;84,67
912,291;84,61
912,509;84,63
912,726;84,55
912,943;84,5
913,16;84,49
913,377;84,53
913,594;84,36
913,811;84,31
914,028;84,32
914,245;84,29
914,462;84,21
914,679;84,23
914,896;84,25
915,112;84,19
915,329;84,24
915,546;84,24
915,763;84,29
915,98;84,22
916,196;84,23
916,413;84,27
916,63;84,29
916,847;84,37
917,063;84,35
917,28;84,4
917,497;84,43
917,713;84,47
917,93;84,47
918,146;84,45
918,363;84,53
918,579;84,49
918,796;84,49
919,012;84,6
919,229;84,6
919,445;84,61
919,662;84,73
919,878;84,73
920,095;84,69
920,311;84,57
920,527;84,6
920,744;84,65
920,96;84,64
921,176;84,63
921,392;84,69
921,609;84,8
921,825;84,75
922,041;84,79
922,257;84,82
922,473;84,83
922,69;84,98
922,906;84,98
923,122;84,97
923,338;84,93
923,554;84,95
923,77;84,94
923,986;84,92
924,202;84,86
924,418;84,89
924,634;85,01
924,85;85,14
925,066;85,11
925,282;85,03
925,497;85,2
925,713;85,24
925,929;85,25
926,145;85,2
926,361;85,26
926,576;85,37
926,792;85,38
927,008;85,4
927,224;85,41
927,439;85,45
927,655;85,47
927,871;85,52
928,086;85,5
928,302;85,51
928,517;85,55
928,733;85,66
928,948;85,74
929,164;85,66
929,379;85,65
929,595;85,75
929,81;85,85
930,026;85,82
930,241;85,87
930,456;85,89
930,672;85,86
930,887;85,83
931,102;85,71
931,318;85,71
931,533;85,76
931,748;85,77
931,964;85,78
932,179;85,76
932,394;85,81
932,609;85,79
932,824;85,7
933,039;85,72
933,255;85,69
933,47;85,65
933,685;85,73
933,9;85,75
934,115;85,69
934,33;85,62
934,545;85,52
934,76;85,35
934,975;85,26
935,19;85,31
935,404;85,35
935,619;85,41
935,834;85,53
936,049;85,51
936,264;85,39
936,479;85,43
936,693;85,55
936,908;85,61
937,123;85,83
937,338;85,91
937,552;85,89
937,767;85,92
937,982;85,93
938,196;85,84
938,411;86,08
938,625;86,07
938,84;86,24
939,055;86,37
939,269;86,58
939,484;86,76
939,698;86,98
939,912;86,96
940,127;86,93
940,341;87
940,556;87,14
940,77;87,45
940,984;87,64
941,199;87,58
941,413;87,74
941,627;87,71
941,842;87,81
942,056;87,95
942,27;87,79
942,484;87,79
942,699;87,95
942,913;87,76
943,127;87,83
943,341;87,74
943,555;87,96
943,769;88,38
943,983;88,5
944,197;88,42
944,411;88,41
944,625;88,63
944,839;88,52
945,053;88,39
945,267;88,35
945,481;88,36
945,695;88,88
945,909;88,69
946,123;88,7
946,336;88,72
946,55;88,56
946,764;89,15
946,978;89,08
947,192;89,01
947,405;88,98
947,619;89,46
947,833;89,55
948,046;89,41
948,26;88,82
948,474;88,75
948,687;88,66
948,901;88,72
949,114;88,43
949,328;88,42
949,541;88,78
949,755;88,87
949,968;88,48
950,182;88,4
950,395;88,33
950,609;88,19
950,822;88,62
951,035;88,57
951,249;88,38
951,462;88,46
951,675;88,52
951,889;88,62
952,102;88,31
952,315;88,43
952,528;88,34
952,741;88,48
952,955;88,58
953,168;88,46
953,381;88,62
953,594;88,91
953,807;88,56
954,02;88,31
954,233;88,15
954,446;88,46
954,659;88,42
954,872;88,53
955,085;88,43
955,298;88,17
955,511;88,39
955,724;88,18
955,937;88,22
956,15;88,18
956,362;87,93
956,575;87,99
956,788;87,98
957,001;87,93
957,214;88,18
957,426;88,15
957,639;88,25
957,852;88,49
958,064;88,34
958,277;88,53
958,49;88,55
958,702;88,61
958,915;88,6
959,127;88,75
959,34;88,67
959,552;88,89
959,765;89,01
959,977;89,14
960,19;89,1
960,402;89,12
960,615;89,03
960,827;89,13
961,039;89,05
961,252;88,93
961,464;88,76
961,676;88,53
961,889;88,8
962,101;88,87
962,313;88,63
962,525;88,64
962,738;88,75
962,95;88,98
963,162;89,19
963,374;89,02
963,586;88,74
963,798;88,68
964,01;88,61
964,222;88,65
964,434;88,38
964,646;88,57
964,858;88,54
965,07;88,72
965,282;88,86
965,494;88,62
965,706;88,89
965,918;89,12
966,13;89,17
966,342;88,85
966,553;88,76
966,765;88,71
966,977;88,76
967,189;88,75
967,401;88,91
967,612;88,85
967,824;88,98
968,036;89,12
968,247;89,11
968,459;89,07
968,67;88,8
968,882;88,73
969,094;88,87
969,305;88,83
969,517;88,82
969,728;88,86
969,94;89,04
970,151;88,82
970,362;88,94
970,574;89,06
970,785;89,08
970,997;89,14
971,208;89,4
971,419;89,42
971,631;89,7
971,842;89,28
972,053;89,29
972,264;89,57
972,476;89,48
972,687;89,67
972,898;89,82
973,109;90,41
973,32;90,91
973,531;90,85
973,742;90,99
973,954;90,81
974,165;90,69
974,376;90,98
974,587;90,89
974,798;90,82
975,009;91,02
975,22;91,22
975,43;91,56
975,641;91,53
975,852;91,72
976,063;91,84
976,274;92,1
976,485;91,82
976,695;91,6
976,906;91,73
977,117;91,49
977,328;91,53
977,538;91,06
977,749;90,82
977,96;90,84
978,17;90,99
978,381;91,26
978,592;91,34
978,802;91,32
979,013;91,43
979,223;91,54
979,434;91,5
979,644;91,32
979,855;91,35
980,065;91,3
980,276;91
980,486;90,62
980,696;90,56
980,907;90,73
981,117;90,88
981,327;91,16
981,538;91,32
981,748;91,47
981,958;91,54
982,169;91,48
982,379;91,56
982,589;91,55
982,799;91,6
983,009;91,67
983,219;91,81
983,43;91,94
983,64;92,08
983,85;92,43
984,06;92,58
984,27;92,61
984,48;92,93
984,69;93,39
984,9;93,45
985,11;93,74
985,32;94,01
985,529;93,67
985,739;93,38
985,949;93,38
986,159;92,94
986,369;93,18
986,579;93,23
986,788;93,22
986,998;93,41
987,208;93,23
987,417;93,32
987,627;93,19
987,837;93,38
988,046;93,42
988,256;93,08
988,466;92,68
988,675;92,56
988,885;92,48
989,094;92,4
989,304;92,39
989,513;92,42
989,723;92,35
989,932;92,53
990,142;92,76
990,351;92,96
990,56;93,37
990,77;93,08
990,979;93,17
991,188;93,02
991,398;92,73
991,607;92,82
991,816;92,4
992,025;92,17
992,235;92,05
992,444;91,75
992,653;91,91
992,862;92,36
993,071;92,22
993,28;91,77
993,489;91,85
993,698;91,94
993,908;91,89
994,117;91,89
994,326;92,15
994,534;91,61
994,743;91,94
994,952;91,72
995,161;92,09
995,37;92,3
995,579;92,45
995,788;92,34
995,997;92,24
996,205;92,3
996,414;92,53
996,623;92,61
996,832;92,86
997,04;92,35
997,249;92,34
997,458;92,3
997,666;92,49
997,875;92,18
998,084;92,02
998,292;91,82
998,501;92,15
998,709;91,78
998,918;92,05
999,126;91,82
999,335;92,32
999,543;92,23
999,752;91,88
999,96;91,8
1000,169;92,13
1000,377;92,26
1000,585;93,12
1000,794;92,99
1001,002;93,35
1001,21;93,61
1001,418;94,07
1001,627;94,1
1001,835;94,66
1002,043;94,47
1002,251;94,69
1002,459;95,7
1002,668;95,44
1002,876;95,18
1003,084;95,42
1003,292;95,17
1003,5;95,12
1003,708;94,67
1003,916;94,41
1004,124;94,87
1004,332;95,43
1004,54;95,54
1004,748;95,73
1004,956;94,96
1005,163;95,05
1005,371;94,96
1005,579;94,89
1005,787;94,78
1005,995;94,63
1006,202;94,77
1006,41;95,46
1006,618;94,94
1006,826;94,54
1007,033;94,49
1007,241;94,54
1007,449;95,4
1007,656;95,68
1007,864;96,13
1008,071;96,53
1008,279;96,85
1008,486;96,51
1008,694;96,19
1008,901;95,4
1009,109;95,41
1009,316;96,4
1009,524;96,81
1009,731;96,45
1009,938;96,29
1010,146;96,26
1010,353;96,75
1010,56;96,45
1010,768;96,4
1010,975;97,58
1011,182;97,25
1011,389;97,89
1011,597;97,27
1011,804;96,74
1012,011;96,67
1012,218;96,23
1012,425;96,03
1012,632;96,4
1012,839;96,07
1013,046;95,43
1013,253;96,82
1013,46;96,63
1013,667;96,17
1013,874;95,63
1014,081;96,27
1014,288;96,03
1014,495;96,43
1014,702;96,06
1014,909;96
1015,116;96,17
1015,323;95,59
1015,529;95,76
1015,736;95,82
1015,943;96,64
1016,15;96,57
1016,356;96,92
1016,563;96,76
1016,77;96,59
1016,976;96,7
1017,183;97,36
1017,389;97,3
1017,596;96,07
1017,803;95,68
1018,009;95,1
1018,216;95,38
1018,422;95,81
1018,629;96,12
1018,835;95,79
1019,041;96,18
1019,248;95,91
1019,454;95,99
1019,661;96,52
1019,867;95,96
1020,073;95,33
1020,279;94,96
1020,486;95,05
1020,692;95,46
1020,898;95,43
1021,104;95,17
1021,311;95,03
1021,517;95,44
1021,723;95,95
1021,929;95,9
1022,135;96,82
1022,341;97,64
1022,547;97,94
1022,753;96,99
1022,959;97,61
1023,165;98,26
1023,371;97,54
1023,577;97,48
1023,783;96,73
1023,989;96,96
1024,195;97,28
1024,401;97,99
1024,607;99,1
1024,812;98,64
1025,018;98,29
1025,224;98,99
1025,43;99,55
1025,635;99,52
1025,841;99,87
1026,047;100,3
1026,252;100,77
1026,458;101,38
1026,664;100,9
1026,869;100,39
1027,075;100,97
1027,28;100,44
1027,486;99,65
1027,691;100,54
1027,897;100,56
1028,102;101,23
1028,308;99,96
1028,513;100,25
1028,719;100,43
1028,924;99,64
1029,129;99,39
1029,335;99,14
1029,54;98,62
1029,745;98,85
1029,95;99,04
1030,156;98,12
1030,361;98,29
1030,566;99,69
1030,771;98,88
1030,976;99,57
1031,182;99,15
1031,387;98,16
1031,592;99,28
1031,797;99,52
1032,002;99,62
1032,207;100,02
1032,412;99,01
1032,617;99,34
1032,822;99,67
1033,027;100,09
1033,232;100,56
1033,437;101,13
1033,642;102,13
1033,846;102,41
1034,051;101,73
1034,256;101,95
1034,461;101,84
1034,666;102,44
1034,87;101,77
1035,075;102,29
1035,28;100,47
1035,484;100,77
1035,689;101,52
1035,894;100,45
1036,098;100,78
1036,303;101,94
1036,507;101,55
1036,712;102,73
1036,917;103,84
1037,121;104,45
1037,325;103,16
1037,53;104,06
1037,734;105,05
1037,939;104,32
1038,143;103,72
1038,348;104,67
1038,552;104,36
1038,756;105,28
1038,961;102,98
1039,165;101,78
1039,369;101,05
1039,573;102,17
1039,778;104,19
1039,982;103,4
1040,186;104,98
1040,39;104,49
1040,594;102,66
1040,798;102,76
1041,002;101,33
1041,206;101,02
1041,41;100,29
1041,614;102,32
1041,818;100,45
1042,022;100,34
1042,226;99,78
1042,43;100,4
1042,634;101,08
1042,838;100,38
1043,042;101,12
1043,246;102,05
1043,45;102,69
1043,653;103,19
1043,857;103,55
1044,061;100,78
1044,265;101,78
1044,468;99,98
1044,672;100,71
1044,876;102,11
1045,079;103,93
1045,283;106,84
1045,487;104,52
1045,69;105,21
1045,894;102,81
1046,097;102,82
1046,301;100,92
1046,504;101,89
1046,708;101,39
1046,911;100,4
1047,115;101,56
1047,318;100,18
1047,522;101,51
1047,725;102,34
1047,928;100,77
1048,132;103,32
1048,335;104,3
1048,538;105,06
1048,741;105,94
1048,945;107
1049,148;105,28
1049,351;104,21
1049,554;101,89
1049,757;103,65
1049,96;102,73
1050,163;103,59
1050,367;102,01
1050,57;102,87
1050,773;101,85
1050,976;99,94
1051,179;101,75
1051,382;102,15
1051,585;104,7
1051,787;104,28
1051,99;103,3
1052,193;103,83
1052,396;101,64
1052,599;103,81
1052,802;100,36
1053,005;97,92
1053,207;98,66
1053,41;99,38
1053,613;101,26
1053,815;102,51
1054,018;98,8
1054,221;97,28
1054,423;97,28
1054,626;99,58
1054,829;100,24
1055,031;100,92
1055,234;104,68
1055,436;102,18
1055,639;100,44
1055,841;96,16
1056,044;96,19
1056,246;96,12
