Data from crisocollaWhite_Reflection__2__60.txt Node;
"Date: Fri Sep 12 11:59:42 CEST 2025 User: sycur Spectrometer: SR400348 Trigger mode: 0 Integration Time (sec): 2,000000E-2 Scans to average: 20 Electric dark correction enabled: true Nonlinearity correction enabled: false Boxcar width: 10 XAxis mode: Wavelengths Number of Pixels in Spectrum: 3648 >>>>>Begin Spectral Data<<<<<";
186,01;-632,44
186,281;-2136,76
186,552;105,91
186,822;72,44
187,093;209,09
187,364;65,41
187,635;-1025,53
187,905;72,01
188,176;33,79
188,447;30,55
188,717;23,75
188,988;22,66
189,258;22,17
189,529;24,78
189,8;24,86
190,07;25,46
190,341;24,95
190,611;23,66
190,882;22,3
191,152;22,98
191,423;22,92
191,693;22,54
191,964;21,07
192,234;20,59
192,505;19,97
192,775;20,07
193,045;19,85
193,316;19,32
193,586;18,23
193,856;18,14
194,127;17,64
194,397;17,94
194,667;17,64
194,938;17,52
195,208;16,83
195,478;16,61
195,748;15,85
196,019;15,26
196,289;15,13
196,559;15,08
196,829;14,56
197,099;14,23
197,37;13,9
197,64;13,87
197,91;13,7
198,18;13,18
198,45;12,53
198,72;12,62
198,99;12,16
199,26;11,76
199,53;11,65
199,8;11,79
200,07;11,8
200,34;11,96
200,61;11,96
200,88;11,81
201,15;11,49
201,42;11,59
201,69;11,95
201,96;11,85
202,23;11,38
202,499;11,08
202,769;11,04
203,039;10,89
203,309;10,78
203,579;10,67
203,849;10,78
204,118;10,75
204,388;10,58
204,658;10,69
204,927;10,69
205,197;10,57
205,467;10,21
205,736;9,95
206,006;9,59
206,276;9,37
206,545;9,08
206,815;9
207,085;8,84
207,354;8,57
207,624;8,54
207,893;8,53
208,163;8,5
208,432;8,41
208,702;8,27
208,971;8,29
209,241;8,29
209,51;8,17
209,78;8,12
210,049;8,05
210,318;7,84
210,588;7,79
210,857;7,72
211,127;7,76
211,396;7,74
211,665;7,67
211,935;7,64
212,204;7,67
212,473;7,64
212,742;7,6
213,012;7,59
213,281;7,47
213,55;7,41
213,819;7,37
214,088;7,28
214,358;7,21
214,627;7,13
214,896;7,06
215,165;7
215,434;6,94
215,703;6,83
215,972;6,87
216,241;6,8
216,51;6,72
216,779;6,58
217,048;6,53
217,317;6,54
217,586;6,48
217,855;6,48
218,124;6,45
218,393;6,31
218,662;6,29
218,931;6,24
219,2;6,19
219,469;6,15
219,738;6,11
220,006;6,1
220,275;6,14
220,544;6,11
220,813;6,06
221,082;6,07
221,35;6,05
221,619;6
221,888;5,98
222,157;5,96
222,425;5,97
222,694;5,94
222,963;5,93
223,231;5,92
223,5;5,95
223,769;5,91
224,037;5,94
224,306;5,92
224,574;5,95
224,843;5,94
225,111;5,95
225,38;5,94
225,648;5,95
225,917;5,88
226,185;5,9
226,454;5,88
226,722;5,86
226,991;5,88
227,259;5,88
227,528;5,84
227,796;5,85
228,064;5,84
228,333;5,83
228,601;5,8
228,869;5,76
229,138;5,74
229,406;5,76
229,674;5,77
229,942;5,78
230,211;5,78
230,479;5,79
230,747;5,75
231,015;5,74
231,283;5,73
231,552;5,73
231,82;5,72
232,088;5,72
232,356;5,73
232,624;5,73
232,892;5,73
233,16;5,74
233,428;5,75
233,696;5,74
233,964;5,74
234,232;5,75
234,5;5,75
234,768;5,74
235,036;5,73
235,304;5,72
235,572;5,69
235,84;5,68
236,108;5,68
236,376;5,7
236,644;5,7
236,912;5,71
237,179;5,69
237,447;5,69
237,715;5,68
237,983;5,66
238,251;5,64
238,518;5,64
238,786;5,63
239,054;5,62
239,322;5,62
239,589;5,63
239,857;5,63
240,125;5,66
240,392;5,65
240,66;5,65
240,927;5,66
241,195;5,65
241,463;5,64
241,73;5,63
241,998;5,62
242,265;5,61
242,533;5,6
242,8;5,62
243,068;5,63
243,335;5,63
243,603;5,63
243,87;5,63
244,138;5,64
244,405;5,64
244,672;5,65
244,94;5,65
245,207;5,64
245,474;5,63
245,742;5,62
246,009;5,61
246,276;5,6
246,544;5,59
246,811;5,6
247,078;5,59
247,345;5,61
247,613;5,6
247,88;5,59
248,147;5,6
248,414;5,59
248,681;5,57
248,948;5,57
249,215;5,57
249,483;5,57
249,75;5,56
250,017;5,55
250,284;5,54
250,551;5,54
250,818;5,53
251,085;5,53
251,352;5,53
251,619;5,52
251,886;5,52
252,153;5,52
252,42;5,52
252,687;5,52
252,953;5,5
253,22;5,51
253,487;5,52
253,754;5,51
254,021;5,5
254,288;5,49
254,555;5,49
254,821;5,49
255,088;5,49
255,355;5,48
255,622;5,49
255,888;5,47
256,155;5,47
256,422;5,46
256,688;5,46
256,955;5,46
257,222;5,46
257,488;5,47
257,755;5,48
258,022;5,48
258,288;5,48
258,555;5,48
258,821;5,47
259,088;5,46
259,354;5,47
259,621;5,47
259,887;5,48
260,154;5,47
260,42;5,47
260,687;5,47
260,953;5,47
261,219;5,46
261,486;5,46
261,752;5,45
262,019;5,45
262,285;5,45
262,551;5,44
262,818;5,44
263,084;5,42
263,35;5,42
263,616;5,41
263,883;5,41
264,149;5,41
264,415;5,41
264,681;5,42
264,947;5,42
265,214;5,41
265,48;5,42
265,746;5,42
266,012;5,42
266,278;5,41
266,544;5,41
266,81;5,42
267,076;5,43
267,342;5,44
267,608;5,44
267,874;5,45
268,14;5,47
268,406;5,48
268,672;5,48
268,938;5,49
269,204;5,49
269,47;5,49
269,736;5,5
270,002;5,51
270,268;5,51
270,533;5,51
270,799;5,51
271,065;5,52
271,331;5,52
271,597;5,52
271,862;5,53
272,128;5,54
272,394;5,54
272,66;5,54
272,925;5,54
273,191;5,55
273,457;5,55
273,722;5,55
273,988;5,55
274,254;5,54
274,519;5,54
274,785;5,55
275,05;5,56
275,316;5,56
275,582;5,55
275,847;5,56
276,113;5,56
276,378;5,57
276,644;5,57
276,909;5,58
277,174;5,59
277,44;5,59
277,705;5,6
277,971;5,61
278,236;5,61
278,501;5,61
278,767;5,61
279,032;5,61
279,297;5,61
279,563;5,63
279,828;5,64
280,093;5,65
280,358;5,66
280,624;5,65
280,889;5,66
281,154;5,66
281,419;5,67
281,684;5,67
281,95;5,67
282,215;5,67
282,48;5,68
282,745;5,69
283,01;5,68
283,275;5,68
283,54;5,68
283,805;5,7
284,07;5,71
284,335;5,72
284,6;5,72
284,865;5,73
285,13;5,72
285,395;5,74
285,66;5,75
285,925;5,76
286,19;5,77
286,455;5,78
286,72;5,8
286,985;5,8
287,249;5,8
287,514;5,8
287,779;5,82
288,044;5,82
288,309;5,81
288,573;5,82
288,838;5,83
289,103;5,84
289,367;5,84
289,632;5,84
289,897;5,85
290,161;5,86
290,426;5,86
290,691;5,87
290,955;5,87
291,22;5,86
291,484;5,86
291,749;5,87
292,014;5,88
292,278;5,89
292,543;5,9
292,807;5,92
293,072;5,93
293,336;5,93
293,6;5,94
293,865;5,95
294,129;5,95
294,394;5,96
294,658;5,98
294,922;5,98
295,187;6
295,451;6,01
295,715;6,01
295,98;6,02
296,244;6,03
296,508;6,03
296,773;6,05
297,037;6,05
297,301;6,05
297,565;6,06
297,829;6,05
298,094;6,06
298,358;6,06
298,622;6,07
298,886;6,07
299,15;6,08
299,414;6,09
299,678;6,11
299,942;6,11
300,206;6,1
300,47;6,11
300,734;6,11
300,998;6,11
301,262;6,12
301,526;6,12
301,79;6,13
302,054;6,12
302,318;6,13
302,582;6,13
302,846;6,13
303,11;6,14
303,374;6,15
303,637;6,14
303,901;6,15
304,165;6,14
304,429;6,15
304,693;6,16
304,956;6,17
305,22;6,16
305,484;6,17
305,747;6,17
306,011;6,16
306,275;6,16
306,538;6,17
306,802;6,18
307,066;6,18
307,329;6,18
307,593;6,19
307,856;6,2
308,12;6,21
308,384;6,21
308,647;6,21
308,911;6,21
309,174;6,22
309,438;6,22
309,701;6,23
309,964;6,23
310,228;6,24
310,491;6,23
310,755;6,25
311,018;6,27
311,281;6,28
311,545;6,29
311,808;6,29
312,071;6,29
312,335;6,29
312,598;6,3
312,861;6,3
313,124;6,29
313,388;6,3
313,651;6,32
313,914;6,32
314,177;6,32
314,44;6,34
314,704;6,34
314,967;6,35
315,23;6,36
315,493;6,37
315,756;6,36
316,019;6,37
316,282;6,37
316,545;6,37
316,808;6,38
317,071;6,39
317,334;6,42
317,597;6,42
317,86;6,42
318,123;6,43
318,386;6,44
318,649;6,46
318,912;6,47
319,175;6,47
319,437;6,49
319,7;6,5
319,963;6,51
320,226;6,51
320,489;6,52
320,751;6,52
321,014;6,53
321,277;6,56
321,54;6,58
321,802;6,59
322,065;6,6
322,328;6,62
322,59;6,61
322,853;6,63
323,116;6,65
323,378;6,66
323,641;6,68
323,903;6,69
324,166;6,71
324,428;6,72
324,691;6,72
324,953;6,72
325,216;6,73
325,478;6,75
325,741;6,78
326,003;6,79
326,266;6,81
326,528;6,83
326,791;6,84
327,053;6,85
327,315;6,86
327,578;6,87
327,84;6,89
328,102;6,91
328,365;6,91
328,627;6,93
328,889;6,94
329,151;6,96
329,414;6,97
329,676;6,99
329,938;7,01
330,2;7,03
330,462;7,05
330,725;7,07
330,987;7,08
331,249;7,09
331,511;7,1
331,773;7,13
332,035;7,15
332,297;7,17
332,559;7,17
332,821;7,19
333,083;7,21
333,345;7,24
333,607;7,25
333,869;7,28
334,131;7,3
334,393;7,33
334,655;7,34
334,917;7,36
335,179;7,39
335,44;7,41
335,702;7,43
335,964;7,47
336,226;7,49
336,488;7,52
336,749;7,56
337,011;7,59
337,273;7,62
337,535;7,64
337,796;7,65
338,058;7,7
338,32;7,74
338,581;7,77
338,843;7,8
339,105;7,84
339,366;7,87
339,628;7,92
339,889;7,95
340,151;7,99
340,412;8,03
340,674;8,06
340,935;8,11
341,197;8,15
341,458;8,18
341,72;8,21
341,981;8,25
342,243;8,28
342,504;8,31
342,766;8,34
343,027;8,37
343,288;8,41
343,55;8,44
343,811;8,48
344,072;8,52
344,334;8,54
344,595;8,57
344,856;8,6
345,117;8,62
345,379;8,66
345,64;8,69
345,901;8,71
346,162;8,72
346,423;8,75
346,684;8,76
346,946;8,79
347,207;8,83
347,468;8,84
347,729;8,87
347,99;8,92
348,251;8,95
348,512;9,01
348,773;9,04
349,034;9,07
349,295;9,09
349,556;9,11
349,817;9,16
350,078;9,22
350,339;9,26
350,6;9,31
350,86;9,35
351,121;9,39
351,382;9,44
351,643;9,49
351,904;9,52
352,165;9,58
352,425;9,63
352,686;9,68
352,947;9,72
353,208;9,79
353,468;9,85
353,729;9,89
353,99;9,94
354,25;10
354,511;10,04
354,772;10,1
355,032;10,15
355,293;10,2
355,553;10,24
355,814;10,29
356,074;10,34
356,335;10,38
356,596;10,43
356,856;10,49
357,116;10,55
357,377;10,63
357,637;10,7
357,898;10,76
358,158;10,83
358,419;10,9
358,679;10,95
358,939;11,01
359,2;11,08
359,46;11,14
359,72;11,18
359,981;11,28
360,241;11,34
360,501;11,41
360,761;11,48
361,022;11,53
361,282;11,6
361,542;11,67
361,802;11,73
362,062;11,81
362,323;11,89
362,583;11,95
362,843;12
363,103;12,07
363,363;12,12
363,623;12,19
363,883;12,24
364,143;12,32
364,403;12,37
364,663;12,43
364,923;12,49
365,183;12,56
365,443;12,62
365,703;12,69
365,963;12,76
366,223;12,82
366,483;12,89
366,743;12,97
367,002;13,04
367,262;13,13
367,522;13,19
367,782;13,24
368,042;13,3
368,301;13,36
368,561;13,4
368,821;13,47
369,081;13,52
369,34;13,59
369,6;13,64
369,86;13,72
370,119;13,79
370,379;13,86
370,638;13,92
370,898;13,97
371,158;14,03
371,417;14,09
371,677;14,17
371,936;14,26
372,196;14,31
372,455;14,37
372,715;14,45
372,974;14,52
373,234;14,61
373,493;14,72
373,753;14,79
374,012;14,87
374,271;14,93
374,531;15,03
374,79;15,12
375,049;15,2
375,309;15,26
375,568;15,33
375,827;15,41
376,086;15,5
376,346;15,59
376,605;15,69
376,864;15,78
377,123;15,86
377,383;15,92
377,642;15,99
377,901;16,06
378,16;16,13
378,419;16,19
378,678;16,26
378,937;16,32
379,196;16,41
379,455;16,46
379,714;16,56
379,973;16,6
380,232;16,68
380,491;16,75
380,75;16,85
381,009;16,93
381,268;17
381,527;17,07
381,786;17,14
382,045;17,2
382,304;17,28
382,563;17,34
382,821;17,41
383,08;17,5
383,339;17,58
383,598;17,64
383,857;17,72
384,115;17,78
384,374;17,87
384,633;17,93
384,891;18,03
385,15;18,11
385,409;18,21
385,667;18,27
385,926;18,34
386,185;18,4
386,443;18,47
386,702;18,53
386,96;18,6
387,219;18,68
387,477;18,75
387,736;18,8
387,994;18,89
388,253;18,95
388,511;19,01
388,77;19,07
389,028;19,17
389,287;19,25
389,545;19,31
389,803;19,36
390,062;19,45
390,32;19,5
390,578;19,56
390,837;19,61
391,095;19,7
391,353;19,76
391,612;19,84
391,87;19,91
392,128;20
392,386;20,06
392,644;20,12
392,903;20,19
393,161;20,23
393,419;20,27
393,677;20,35
393,935;20,39
394,193;20,46
394,451;20,53
394,709;20,58
394,967;20,64
395,225;20,7
395,483;20,77
395,741;20,85
395,999;20,92
396,257;20,99
396,515;21,04
396,773;21,12
397,031;21,15
397,289;21,22
397,547;21,26
397,805;21,3
398,062;21,34
398,32;21,39
398,578;21,47
398,836;21,53
399,094;21,58
399,351;21,64
399,609;21,67
399,867;21,69
400,124;21,74
400,382;21,81
400,64;21,87
400,897;21,92
401,155;21,93
401,413;21,98
401,67;22,04
401,928;22,09
402,185;22,14
402,443;22,2
402,701;22,26
402,958;22,33
403,216;22,39
403,473;22,44
403,73;22,48
403,988;22,53
404,245;22,57
404,503;22,62
404,76;22,67
405,018;22,74
405,275;22,8
405,532;22,83
405,79;22,87
406,047;22,91
406,304;22,95
406,561;23
406,819;23,04
407,076;23,1
407,333;23,13
407,59;23,16
407,848;23,19
408,105;23,23
408,362;23,26
408,619;23,32
408,876;23,35
409,133;23,42
409,39;23,47
409,647;23,52
409,904;23,57
410,161;23,62
410,418;23,65
410,675;23,71
410,932;23,77
411,189;23,82
411,446;23,88
411,703;23,94
411,96;23,98
412,217;24,04
412,474;24,07
412,731;24,13
412,988;24,17
413,245;24,23
413,501;24,25
413,758;24,31
414,015;24,34
414,272;24,37
414,529;24,41
414,785;24,42
415,042;24,46
415,299;24,49
415,555;24,51
415,812;24,55
416,069;24,59
416,325;24,64
416,582;24,67
416,838;24,69
417,095;24,7
417,352;24,79
417,608;24,8
417,865;24,84
418,121;24,89
418,378;24,98
418,634;25,02
418,891;25,12
419,147;25,2
419,403;25,27
419,66;25,33
419,916;25,42
420,173;25,47
420,429;25,51
420,685;25,54
420,942;25,61
421,198;25,65
421,454;25,73
421,711;25,76
421,967;25,82
422,223;25,86
422,479;25,92
422,735;25,93
422,992;25,98
423,248;26,02
423,504;26,06
423,76;26,08
424,016;26,12
424,272;26,12
424,528;26,13
424,784;26,16
425,041;26,21
425,297;26,22
425,553;26,28
425,809;26,32
426,065;26,4
426,32;26,47
426,576;26,53
426,832;26,57
427,088;26,64
427,344;26,69
427,6;26,78
427,856;26,83
428,112;26,91
428,368;26,95
428,623;27
428,879;27,04
429,135;27,09
429,391;27,1
429,646;27,16
429,902;27,18
430,158;27,22
430,414;27,26
430,669;27,29
430,925;27,33
431,181;27,4
431,436;27,43
431,692;27,47
431,947;27,52
432,203;27,56
432,458;27,57
432,714;27,6
432,97;27,62
433,225;27,65
433,481;27,66
433,736;27,71
433,991;27,77
434,247;27,82
434,502;27,85
434,758;27,93
435,013;27,96
435,268;28,03
435,524;28,08
435,779;28,14
436,034;28,18
436,29;28,23
436,545;28,27
436,8;28,34
437,056;28,36
437,311;28,38
437,566;28,42
437,821;28,5
438,076;28,55
438,331;28,61
438,587;28,67
438,842;28,74
439,097;28,79
439,352;28,85
439,607;28,93
439,862;28,99
440,117;29,03
440,372;29,1
440,627;29,16
440,882;29,23
441,137;29,26
441,392;29,34
441,647;29,4
441,902;29,47
442,157;29,5
442,412;29,57
442,667;29,64
442,921;29,69
443,176;29,74
443,431;29,79
443,686;29,83
443,941;29,86
444,195;29,92
444,45;29,98
444,705;30,01
444,96;30,04
445,214;30,07
445,469;30,12
445,724;30,15
445,978;30,18
446,233;30,2
446,487;30,27
446,742;30,3
446,997;30,34
447,251;30,35
447,506;30,4
447,76;30,42
448,015;30,46
448,269;30,48
448,524;30,49
448,778;30,53
449,033;30,54
449,287;30,59
449,541;30,61
449,796;30,63
450,05;30,66
450,305;30,68
450,559;30,73
450,813;30,75
451,067;30,76
451,322;30,81
451,576;30,84
451,83;30,84
452,084;30,86
452,339;30,87
452,593;30,91
452,847;30,93
453,101;30,98
453,355;31,01
453,609;31,04
453,864;31,08
454,118;31,13
454,372;31,18
454,626;31,23
454,88;31,26
455,134;31,31
455,388;31,36
455,642;31,45
455,896;31,48
456,15;31,54
456,404;31,61
456,658;31,65
456,912;31,68
457,165;31,75
457,419;31,79
457,673;31,87
457,927;31,91
458,181;31,97
458,435;32
458,688;32,06
458,942;32,12
459,196;32,16
459,45;32,18
459,703;32,24
459,957;32,27
460,211;32,31
460,464;32,34
460,718;32,37
460,972;32,41
461,225;32,47
461,479;32,52
461,732;32,58
461,986;32,65
462,239;32,72
462,493;32,79
462,746;32,91
463;32,93
463,253;33,02
463,507;33,06
463,76;33,13
464,014;33,17
464,267;33,24
464,52;33,31
464,774;33,37
465,027;33,4
465,28;33,47
465,534;33,54
465,787;33,63
466,04;33,68
466,294;33,71
466,547;33,74
466,8;33,78
467,053;33,82
467,306;33,89
467,56;33,94
467,813;33,99
468,066;34,01
468,319;34,08
468,572;34,11
468,825;34,19
469,078;34,23
469,331;34,29
469,584;34,34
469,837;34,42
470,09;34,48
470,343;34,57
470,596;34,64
470,849;34,71
471,102;34,76
471,355;34,84
471,608;34,92
471,861;35,03
472,114;35,1
472,367;35,17
472,619;35,22
472,872;35,31
473,125;35,37
473,378;35,43
473,631;35,51
473,883;35,57
474,136;35,63
474,389;35,72
474,641;35,79
474,894;35,87
475,147;35,93
475,399;36,01
475,652;36,09
475,905;36,17
476,157;36,21
476,41;36,31
476,662;36,38
476,915;36,46
477,167;36,51
477,42;36,59
477,672;36,64
477,925;36,74
478,177;36,78
478,43;36,84
478,682;36,89
478,934;36,95
479,187;37,02
479,439;37,08
479,691;37,13
479,944;37,19
480,196;37,25
480,448;37,31
480,701;37,37
480,953;37,44
481,205;37,51
481,457;37,59
481,709;37,65
481,962;37,74
482,214;37,83
482,466;37,95
482,718;38,04
482,97;38,17
483,222;38,26
483,474;38,37
483,726;38,43
483,978;38,5
484,23;38,56
484,482;38,62
484,734;38,67
484,986;38,72
485,238;38,75
485,49;38,78
485,742;38,82
485,994;38,86
486,246;38,88
486,498;38,9
486,75;38,92
487,001;38,95
487,253;38,97
487,505;38,98
487,757;38,99
488,009;39,02
488,26;39,01
488,512;39
488,764;39,01
489,015;39,04
489,267;39,06
489,519;39,1
489,77;39,13
490,022;39,17
490,274;39,2
490,525;39,26
490,777;39,3
491,028;39,34
491,28;39,37
491,531;39,41
491,783;39,45
492,034;39,49
492,286;39,53
492,537;39,57
492,789;39,61
493,04;39,66
493,291;39,68
493,543;39,73
493,794;39,78
494,045;39,82
494,297;39,86
494,548;39,9
494,799;39,95
495,051;39,99
495,302;40,01
495,553;40,08
495,804;40,1
496,056;40,16
496,307;40,21
496,558;40,26
496,809;40,31
497,06;40,36
497,311;40,41
497,562;40,45
497,813;40,51
498,064;40,55
498,316;40,58
498,567;40,62
498,818;40,67
499,069;40,72
499,319;40,77
499,57;40,82
499,821;40,86
500,072;40,87
500,323;40,92
500,574;40,96
500,825;40,99
501,076;41,04
501,327;41,05
501,577;41,09
501,828;41,12
502,079;41,14
502,33;41,17
502,58;41,21
502,831;41,24
503,082;41,25
503,333;41,28
503,583;41,32
503,834;41,35
504,084;41,39
504,335;41,41
504,586;41,44
504,836;41,45
505,087;41,49
505,337;41,53
505,588;41,56
505,838;41,59
506,089;41,64
506,339;41,67
506,59;41,73
506,84;41,74
507,091;41,8
507,341;41,83
507,591;41,86
507,842;41,88
508,092;41,91
508,343;41,95
508,593;41,99
508,843;42,01
509,093;42,05
509,344;42,08
509,594;42,13
509,844;42,15
510,094;42,19
510,345;42,24
510,595;42,28
510,845;42,3
511,095;42,34
511,345;42,37
511,595;42,39
511,845;42,41
512,095;42,45
512,345;42,46
512,595;42,5
512,845;42,53
513,095;42,58
513,345;42,61
513,595;42,64
513,845;42,68
514,095;42,72
514,345;42,74
514,595;42,77
514,845;42,79
515,095;42,84
515,345;42,87
515,594;42,9
515,844;42,93
516,094;42,96
516,344;42,97
516,593;42,99
516,843;43,04
517,093;43,08
517,343;43,09
517,592;43,13
517,842;43,18
518,092;43,2
518,341;43,2
518,591;43,22
518,84;43,26
519,09;43,29
519,34;43,32
519,589;43,36
519,839;43,39
520,088;43,41
520,338;43,44
520,587;43,48
520,836;43,5
521,086;43,54
521,335;43,56
521,585;43,58
521,834;43,62
522,083;43,64
522,333;43,66
522,582;43,72
522,831;43,75
523,081;43,77
523,33;43,82
523,579;43,85
523,828;43,88
524,078;43,89
524,327;43,91
524,576;43,95
524,825;43,97
525,074;44,01
525,323;44,03
525,573;44,07
525,822;44,08
526,071;44,11
526,32;44,14
526,569;44,16
526,818;44,19
527,067;44,2
527,316;44,22
527,565;44,25
527,814;44,25
528,063;44,27
528,312;44,3
528,56;44,31
528,809;44,32
529,058;44,35
529,307;44,37
529,556;44,4
529,805;44,41
530,053;44,44
530,302;44,45
530,551;44,47
530,8;44,48
531,048;44,51
531,297;44,51
531,546;44,53
531,794;44,56
532,043;44,59
532,292;44,6
532,54;44,62
532,789;44,63
533,037;44,66
533,286;44,67
533,535;44,69
533,783;44,7
534,032;44,75
534,28;44,76
534,528;44,79
534,777;44,8
535,025;44,81
535,274;44,82
535,522;44,83
535,771;44,84
536,019;44,86
536,267;44,86
536,516;44,88
536,764;44,89
537,012;44,9
537,26;44,92
537,509;44,93
537,757;44,92
538,005;44,94
538,253;44,97
538,501;44,97
538,75;44,96
538,998;45
539,246;44,99
539,494;45
539,742;45
539,99;45,02
540,238;45,05
540,486;45,04
540,734;45,05
540,982;45,06
541,23;45,08
541,478;45,1
541,726;45,11
541,974;45,13
542,222;45,12
542,47;45,13
542,718;45,15
542,966;45,17
543,213;45,18
543,461;45,18
543,709;45,19
543,957;45,2
544,205;45,2
544,452;45,21
544,7;45,23
544,948;45,23
545,196;45,23
545,443;45,23
545,691;45,24
545,939;45,27
546,186;45,27
546,434;45,27
546,681;45,28
546,929;45,28
547,176;45,29
547,424;45,32
547,671;45,33
547,919;45,35
548,166;45,36
548,414;45,39
548,661;45,39
548,909;45,4
549,156;45,42
549,404;45,41
549,651;45,43
549,898;45,42
550,146;45,44
550,393;45,46
550,64;45,47
550,888;45,48
551,135;45,49
551,382;45,5
551,629;45,51
551,876;45,51
552,124;45,52
552,371;45,51
552,618;45,49
552,865;45,49
553,112;45,47
553,359;45,47
553,606;45,45
553,854;45,45
554,101;45,46
554,348;45,46
554,595;45,47
554,842;45,47
555,089;45,47
555,336;45,47
555,582;45,47
555,829;45,47
556,076;45,47
556,323;45,46
556,57;45,46
556,817;45,46
557,064;45,47
557,311;45,46
557,557;45,46
557,804;45,49
558,051;45,49
558,298;45,51
558,544;45,51
558,791;45,5
559,038;45,49
559,284;45,48
559,531;45,47
559,778;45,46
560,024;45,47
560,271;45,48
560,517;45,49
560,764;45,48
561,011;45,47
561,257;45,47
561,504;45,46
561,75;45,46
561,997;45,46
562,243;45,45
562,489;45,44
562,736;45,45
562,982;45,44
563,229;45,42
563,475;45,41
563,721;45,41
563,968;45,41
564,214;45,41
564,46;45,4
564,707;45,41
564,953;45,4
565,199;45,37
565,445;45,35
565,691;45,32
565,938;45,31
566,184;45,3
566,43;45,29
566,676;45,27
566,922;45,25
567,168;45,25
567,414;45,23
567,66;45,22
567,906;45,2
568,152;45,17
568,398;45,15
568,644;45,12
568,89;45,1
569,136;45,08
569,382;45,04
569,628;45
569,874;44,97
570,12;44,95
570,366;44,94
570,612;44,92
570,857;44,9
571,103;44,88
571,349;44,85
571,595;44,83
571,84;44,8
572,086;44,78
572,332;44,74
572,578;44,71
572,823;44,67
573,069;44,65
573,315;44,63
573,56;44,62
573,806;44,61
574,051;44,6
574,297;44,58
574,542;44,57
574,788;44,55
575,034;44,52
575,279;44,49
575,524;44,46
575,77;44,44
576,015;44,41
576,261;44,38
576,506;44,36
576,752;44,34
576,997;44,32
577,242;44,29
577,488;44,27
577,733;44,25
577,978;44,23
578,223;44,21
578,469;44,19
578,714;44,16
578,959;44,13
579,204;44,1
579,45;44,07
579,695;44,03
579,94;44,01
580,185;43,98
580,43;43,95
580,675;43,93
580,92;43,92
581,165;43,91
581,41;43,9
581,655;43,88
581,9;43,85
582,145;43,83
582,39;43,81
582,635;43,79
582,88;43,77
583,125;43,75
583,37;43,73
583,615;43,7
583,86;43,68
584,105;43,65
584,349;43,64
584,594;43,61
584,839;43,6
585,084;43,58
585,328;43,57
585,573;43,56
585,818;43,53
586,063;43,51
586,307;43,49
586,552;43,46
586,797;43,44
587,041;43,43
587,286;43,41
587,53;43,38
587,775;43,36
588,019;43,35
588,264;43,33
588,508;43,32
588,753;43,3
588,997;43,29
589,242;43,27
589,486;43,26
589,731;43,25
589,975;43,23
590,22;43,2
590,464;43,17
590,708;43,14
590,953;43,12
591,197;43,07
591,441;43,04
591,685;43,01
591,93;42,97
592,174;42,94
592,418;42,9
592,662;42,87
592,907;42,85
593,151;42,82
593,395;42,77
593,639;42,74
593,883;42,71
594,127;42,67
594,371;42,63
594,615;42,59
594,859;42,56
595,103;42,53
595,347;42,5
595,591;42,47
595,835;42,42
596,079;42,39
596,323;42,37
596,567;42,32
596,811;42,28
597,055;42,24
597,299;42,2
597,542;42,18
597,786;42,13
598,03;42,1
598,274;42,04
598,518;42,02
598,761;41,97
599,005;41,93
599,249;41,9
599,492;41,88
599,736;41,86
599,98;41,83
600,223;41,8
600,467;41,77
600,711;41,74
600,954;41,71
601,198;41,67
601,441;41,64
601,685;41,62
601,928;41,6
602,172;41,58
602,415;41,53
602,659;41,5
602,902;41,46
603,145;41,44
603,389;41,41
603,632;41,38
603,876;41,36
604,119;41,33
604,362;41,31
604,606;41,27
604,849;41,23
605,092;41,18
605,335;41,14
605,579;41,11
605,822;41,07
606,065;41,03
606,308;41,01
606,551;40,98
606,794;40,94
607,037;40,89
607,281;40,85
607,524;40,84
607,767;40,81
608,01;40,79
608,253;40,75
608,496;40,72
608,739;40,7
608,982;40,65
609,225;40,62
609,468;40,58
609,711;40,55
609,953;40,52
610,196;40,49
610,439;40,47
610,682;40,43
610,925;40,4
611,168;40,39
611,41;40,34
611,653;40,32
611,896;40,3
612,139;40,26
612,381;40,22
612,624;40,18
612,867;40,14
613,109;40,1
613,352;40,06
613,595;40,01
613,837;39,97
614,08;39,94
614,322;39,9
614,565;39,87
614,807;39,83
615,05;39,79
615,292;39,76
615,535;39,72
615,777;39,68
616,02;39,66
616,262;39,63
616,505;39,61
616,747;39,55
616,989;39,51
617,232;39,49
617,474;39,46
617,716;39,42
617,959;39,4
618,201;39,38
618,443;39,34
618,685;39,33
618,927;39,31
619,17;39,27
619,412;39,24
619,654;39,2
619,896;39,17
620,138;39,13
620,38;39,1
620,622;39,07
620,864;39,05
621,107;38,99
621,349;38,95
621,591;38,91
621,833;38,89
622,075;38,86
622,316;38,82
622,558;38,79
622,8;38,77
623,042;38,74
623,284;38,71
623,526;38,67
623,768;38,63
624,01;38,6
624,251;38,58
624,493;38,55
624,735;38,51
624,977;38,48
625,218;38,44
625,46;38,41
625,702;38,38
625,943;38,35
626,185;38,33
626,427;38,31
626,668;38,28
626,91;38,24
627,152;38,2
627,393;38,17
627,635;38,14
627,876;38,1
628,118;38,07
628,359;38,05
628,601;38,01
628,842;37,97
629,084;37,94
629,325;37,91
629,566;37,87
629,808;37,86
630,049;37,82
630,29;37,78
630,532;37,74
630,773;37,69
631,014;37,66
631,256;37,61
631,497;37,57
631,738;37,54
631,979;37,52
632,22;37,49
632,462;37,46
632,703;37,41
632,944;37,36
633,185;37,31
633,426;37,27
633,667;37,23
633,908;37,2
634,149;37,16
634,39;37,1
634,631;37,06
634,872;37,01
635,113;36,97
635,354;36,93
635,595;36,88
635,836;36,85
636,077;36,81
636,318;36,77
636,559;36,73
636,8;36,69
637,04;36,63
637,281;36,59
637,522;36,55
637,763;36,52
638,003;36,49
638,244;36,46
638,485;36,43
638,726;36,41
638,966;36,37
639,207;36,33
639,448;36,32
639,688;36,28
639,929;36,25
640,169;36,22
640,41;36,18
640,65;36,16
640,891;36,12
641,131;36,09
641,372;36,04
641,612;36,02
641,853;35,98
642,093;35,96
642,334;35,92
642,574;35,89
642,814;35,86
643,055;35,82
643,295;35,78
643,535;35,75
643,776;35,7
644,016;35,69
644,256;35,65
644,496;35,61
644,737;35,58
644,977;35,54
645,217;35,5
645,457;35,46
645,697;35,42
645,938;35,39
646,178;35,35
646,418;35,31
646,658;35,27
646,898;35,24
647,138;35,2
647,378;35,17
647,618;35,11
647,858;35,1
648,098;35,07
648,338;35,04
648,578;35
648,818;34,97
649,057;34,93
649,297;34,92
649,537;34,88
649,777;34,86
650,017;34,84
650,257;34,82
650,496;34,8
650,736;34,77
650,976;34,75
661,028;33,24
661,267;33,29
661,506;33,31
661,744;33,32
661,983;33,31
662,222;33,31
662,461;33,3
662,7;33,3
662,939;33,28
663,177;33,27
663,416;33,26
663,655;33,25
663,894;33,22
664,132;33,21
664,371;33,16
664,61;33,14
664,848;33,11
665,087;33,08
665,326;33,07
665,564;33,05
665,803;33,03
666,041;33
666,28;32,98
666,518;32,95
666,757;32,92
666,995;32,9
667,234;32,85
667,472;32,82
667,711;32,8
667,949;32,76
668,187;32,76
668,426;32,74
668,664;32,7
668,902;32,67
669,141;32,65
669,379;32,63
669,617;32,63
669,856;32,64
670,094;32,62
670,332;32,6
670,57;32,58
670,808;32,56
671,046;32,55
671,285;32,52
671,523;32,5
671,761;32,49
671,999;32,47
672,237;32,47
672,475;32,47
672,713;32,44
672,951;32,42
673,189;32,38
673,427;32,35
673,665;32,34
673,903;32,34
674,141;32,3
674,379;32,28
674,617;32,25
674,854;32,21
675,092;32,19
675,33;32,17
675,568;32,15
675,806;32,15
676,043;32,14
676,281;32,14
676,519;32,12
676,756;32,1
676,994;32,1
677,232;32,08
677,469;32,05
677,707;32,05
677,945;32,07
678,182;32,07
678,42;32,07
678,657;32,06
678,895;32,03
679,132;32,04
679,37;32,04
679,607;32,02
679,845;32,01
680,082;32
680,32;31,99
680,557;31,98
680,794;31,96
681,032;31,95
681,269;31,93
681,507;31,93
681,744;31,93
681,981;31,92
682,218;31,91
682,456;31,9
682,693;31,9
682,93;31,87
683,167;31,84
683,404;31,83
683,642;31,82
683,879;31,81
684,116;31,8
684,353;31,78
684,59;31,76
684,827;31,74
685,064;31,73
685,301;31,73
685,538;31,71
685,775;31,71
686,012;31,68
686,249;31,68
686,486;31,66
686,723;31,63
686,96;31,62
687,197;31,61
687,433;31,59
687,67;31,55
687,907;31,55
688,144;31,55
688,381;31,53
688,617;31,5
688,854;31,48
689,091;31,47
689,327;31,46
689,564;31,45
689,801;31,45
690,037;31,44
690,274;31,43
690,511;31,43
690,747;31,41
690,984;31,41
691,22;31,39
691,457;31,39
691,693;31,37
691,93;31,38
692,166;31,38
692,403;31,38
692,639;31,38
692,876;31,36
693,112;31,35
693,348;31,33
693,585;31,35
693,821;31,36
694,057;31,34
694,294;31,35
694,53;31,35
694,766;31,33
695,002;31,34
695,239;31,32
695,475;31,31
695,711;31,28
695,947;31,25
696,183;31,25
696,419;31,23
696,656;31,22
696,892;31,21
697,128;31,2
697,364;31,19
697,6;31,18
697,836;31,16
698,072;31,16
698,308;31,16
698,544;31,14
698,78;31,14
699,016;31,14
699,251;31,12
699,487;31,11
699,723;31,1
699,959;31,1
700,195;31,09
700,431;31,08
700,666;31,1
700,902;31,11
701,138;31,11
701,374;31,11
701,609;31,1
701,845;31,08
702,081;31,06
702,316;31,05
702,552;31,05
702,788;31,05
703,023;31,04
703,259;31,03
703,494;31,01
703,73;31
703,965;30,99
704,201;31,01
704,436;31,02
704,672;31,01
704,907;31
705,143;31,01
705,378;30,99
705,613;30,98
705,849;30,96
706,084;30,97
706,319;30,95
706,555;30,96
706,79;30,95
707,025;30,96
707,26;30,98
707,496;30,98
707,731;30,98
707,966;30,99
708,201;30,99
708,436;31,01
708,671;31,01
708,907;31
709,142;30,97
709,377;30,96
709,612;30,95
709,847;30,92
710,082;30,92
710,317;30,93
710,552;30,91
710,787;30,91
711,022;30,9
711,257;30,9
711,492;30,88
711,726;30,89
711,961;30,87
712,196;30,85
712,431;30,84
712,666;30,84
712,901;30,83
713,135;30,82
713,37;30,81
713,605;30,79
713,839;30,79
714,074;30,79
714,309;30,78
714,543;30,78
714,778;30,79
715,013;30,78
715,247;30,79
715,482;30,81
715,716;30,82
715,951;30,8
716,185;30,81
716,42;30,82
716,654;30,81
716,889;30,81
717,123;30,81
717,358;30,81
717,592;30,8
717,827;30,79
718,061;30,78
718,295;30,77
718,53;30,77
718,764;30,79
718,998;30,79
719,232;30,8
719,467;30,79
719,701;30,8
719,935;30,78
720,169;30,76
720,403;30,73
720,638;30,73
720,872;30,73
721,106;30,73
721,34;30,7
721,574;30,7
721,808;30,69
722,042;30,69
722,276;30,68
722,51;30,67
722,744;30,67
722,978;30,67
723,212;30,67
723,446;30,67
723,68;30,66
723,914;30,65
724,147;30,64
724,381;30,64
724,615;30,63
724,849;30,64
725,083;30,66
725,316;30,68
725,55;30,67
725,784;30,69
726,018;30,7
726,251;30,72
726,485;30,73
726,719;30,73
726,952;30,76
727,186;30,77
727,419;30,78
727,653;30,81
727,887;30,8
728,12;30,83
728,354;30,85
728,587;30,86
728,821;30,87
729,054;30,86
729,287;30,88
729,521;30,91
729,754;30,91
729,988;30,91
730,221;30,92
730,454;30,93
730,688;30,94
730,921;30,94
731,154;30,94
731,387;30,97
731,621;31
731,854;31
732,087;31,01
732,32;31,02
732,553;31,02
732,787;31,04
733,02;31,04
733,253;31,05
733,486;31,04
733,719;31,05
733,952;31,06
734,185;31,06
734,418;31,04
734,651;31,06
734,884;31,06
735,117;31,07
735,35;31,06
735,583;31,05
735,816;31,05
736,049;31,06
736,281;31,03
736,514;31,03
736,747;31
736,98;31,01
737,213;30,99
737,445;30,99
737,678;30,98
737,911;30,95
738,144;30,92
738,376;30,92
738,609;30,91
738,842;30,91
739,074;30,89
739,307;30,89
739,539;30,87
739,772;30,87
740,004;30,87
740,237;30,88
740,469;30,86
740,702;30,85
740,934;30,83
741,167;30,83
741,399;30,83
741,632;30,85
741,864;30,84
742,096;30,85
742,329;30,84
742,561;30,86
742,793;30,86
743,026;30,87
743,258;30,88
743,49;30,88
743,723;30,88
743,955;30,89
744,187;30,9
744,419;30,9
744,651;30,9
744,883;30,9
745,115;30,89
745,348;30,88
745,58;30,89
745,812;30,89
746,044;30,89
746,276;30,89
746,508;30,87
746,74;30,86
746,972;30,83
747,204;30,84
747,436;30,82
747,667;30,83
747,899;30,82
748,131;30,82
748,363;30,81
748,595;30,83
748,827;30,83
749,058;30,83
749,29;30,82
749,522;30,82
749,754;30,82
749,985;30,82
750,217;30,83
750,449;30,86
750,68;30,87
750,912;30,87
751,144;30,88
751,375;30,88
751,607;30,9
751,838;30,94
752,07;30,96
752,301;30,95
752,533;30,95
752,764;30,95
752,996;30,94
753,227;30,95
753,459;30,95
753,69;30,97
753,921;30,97
754,153;30,99
754,384;31,01
754,615;31,02
754,847;31,02
755,078;31,05
755,309;31,04
755,54;31,03
755,772;31,03
756,003;31,03
756,234;31,04
756,465;31,04
756,696;31,03
756,927;31,04
757,159;31,04
757,39;31,07
757,621;31,09
757,852;31,1
758,083;31,12
758,314;31,14
758,545;31,14
758,776;31,15
759,007;31,15
759,238;31,13
759,469;31,12
759,699;31,15
759,93;31,15
760,161;31,14
760,392;31,16
760,623;31,16
760,854;31,15
761,084;31,15
761,315;31,16
761,546;31,17
761,776;31,15
762,007;31,17
762,238;31,15
762,468;31,15
762,699;31,15
762,93;31,16
763,16;31,15
763,391;31,12
763,621;31,12
763,852;31,14
764,083;31,15
764,313;31,15
764,543;31,13
764,774;31,12
765,004;31,13
765,235;31,15
765,465;31,15
765,696;31,16
765,926;31,17
766,156;31,16
766,387;31,15
766,617;31,18
766,847;31,17
767,077;31,18
767,308;31,2
767,538;31,21
767,768;31,2
767,998;31,21
768,228;31,22
768,459;31,23
768,689;31,22
768,919;31,22
769,149;31,25
769,379;31,27
769,609;31,28
769,839;31,3
770,069;31,29
770,299;31,3
770,529;31,31
770,759;31,32
770,989;31,32
771,219;31,33
771,449;31,33
771,678;31,33
771,908;31,33
772,138;31,34
772,368;31,33
772,598;31,34
772,827;31,33
773,057;31,34
773,287;31,33
773,517;31,33
773,746;31,34
773,976;31,32
774,206;31,3
774,435;31,28
774,665;31,25
774,894;31,25
775,124;31,25
775,354;31,24
775,583;31,24
775,813;31,24
776,042;31,22
776,272;31,21
776,501;31,22
776,73;31,24
776,96;31,24
777,189;31,24
777,419;31,24
777,648;31,24
777,877;31,24
778,107;31,28
778,336;31,3
778,565;31,3
778,794;31,33
779,024;31,37
779,253;31,39
779,482;31,4
779,711;31,41
779,94;31,4
780,17;31,4
780,399;31,41
780,628;31,44
780,857;31,47
781,086;31,48
781,315;31,47
781,544;31,45
781,773;31,44
782,002;31,44
782,231;31,46
782,46;31,44
782,689;31,44
782,918;31,44
783,147;31,42
783,375;31,43
783,604;31,42
783,833;31,4
784,062;31,39
784,291;31,4
784,519;31,42
784,748;31,44
784,977;31,46
785,206;31,47
785,434;31,46
785,663;31,45
785,892;31,48
786,12;31,5
786,349;31,51
786,577;31,53
786,806;31,54
787,034;31,52
787,263;31,56
787,492;31,57
787,72;31,57
787,948;31,58
788,177;31,56
788,405;31,55
788,634;31,55
788,862;31,57
789,09;31,57
789,319;31,55
789,547;31,54
789,775;31,53
790,004;31,51
790,232;31,5
790,46;31,49
790,688;31,47
790,917;31,46
791,145;31,47
791,373;31,47
791,601;31,48
791,829;31,49
792,057;31,5
792,286;31,51
792,514;31,53
792,742;31,53
792,97;31,56
793,198;31,58
793,426;31,58
793,654;31,58
793,882;31,58
794,109;31,6
794,337;31,61
794,565;31,61
794,793;31,63
795,021;31,64
795,249;31,66
795,477;31,68
795,704;31,7
795,932;31,68
796,16;31,68
796,388;31,7
796,615;31,69
796,843;31,68
797,071;31,68
797,298;31,68
797,526;31,65
797,754;31,64
797,981;31,64
798,209;31,64
798,436;31,64
798,664;31,66
798,891;31,64
799,119;31,64
799,346;31,66
799,574;31,62
799,801;31,62
800,029;31,61
800,256;31,6
800,483;31,57
800,711;31,57
800,938;31,57
801,165;31,56
801,393;31,59
801,62;31,58
801,847;31,57
802,074;31,55
802,302;31,58
802,529;31,58
802,756;31,58
802,983;31,6
803,21;31,6
803,437;31,59
803,665;31,61
803,892;31,63
804,119;31,63
804,346;31,68
804,573;31,68
804,8;31,69
805,027;31,7
805,254;31,73
805,481;31,75
805,708;31,76
805,934;31,75
806,161;31,77
806,388;31,76
806,615;31,76
806,842;31,79
807,069;31,8
807,295;31,82
807,522;31,84
807,749;31,83
807,976;31,84
808,202;31,82
808,429;31,81
808,656;31,79
808,882;31,77
809,109;31,76
809,335;31,77
809,562;31,76
809,789;31,78
810,015;31,76
810,242;31,78
810,468;31,75
810,695;31,76
810,921;31,74
811,147;31,77
811,374;31,81
811,6;31,82
811,827;31,82
812,053;31,81
812,279;31,78
812,506;31,8
812,732;31,81
812,958;31,86
813,185;31,89
813,411;31,9
813,637;31,9
813,863;31,89
814,089;31,92
814,315;31,94
814,542;31,93
814,768;31,95
814,994;31,93
815,22;31,94
815,446;31,95
815,672;31,94
815,898;31,95
816,124;31,91
816,35;31,9
816,576;31,92
816,802;31,94
817,028;31,94
817,254;31,94
817,48;31,92
817,705;31,91
817,931;31,9
818,157;31,92
818,383;31,94
818,609;31,96
818,834;31,96
819,06;31,95
819,286;31,95
819,512;31,94
819,737;31,91
819,963;31,94
820,189;31,95
820,414;31,97
820,64;31,92
820,865;31,93
821,091;31,92
821,316;31,9
821,542;31,87
821,767;31,88
821,993;31,85
822,218;31,85
822,444;31,87
822,669;31,88
822,895;31,89
823,12;31,84
823,345;31,82
823,571;31,8
823,796;31,83
824,021;31,8
824,247;31,82
824,472;31,85
824,697;31,85
824,922;31,82
825,147;31,83
825,373;31,89
825,598;31,91
825,823;31,89
826,048;31,93
826,273;31,94
826,498;31,97
826,723;31,99
826,948;32,01
827,173;31,99
827,398;31,96
827,623;31,95
827,848;31,97
828,073;32
828,298;32
828,523;31,98
828,748;31,99
828,973;31,97
829,197;32
829,422;31,99
829,647;32,03
829,872;32
830,097;31,97
830,321;31,96
830,546;32
830,771;31,97
830,995;31,97
831,22;31,95
831,445;31,95
831,669;31,95
831,894;31,96
832,118;31,98
832,343;32,02
832,567;32,05
832,792;32,04
833,016;32,04
833,241;32,09
833,465;32,11
833,69;32,13
833,914;32,12
834,139;32,14
834,363;32,12
834,587;32,15
834,812;32,16
835,036;32,18
835,26;32,21
835,485;32,2
835,709;32,23
835,933;32,27
836,157;32,27
836,381;32,3
836,606;32,32
836,83;32,3
837,054;32,26
837,278;32,26
837,502;32,27
837,726;32,26
837,95;32,22
838,174;32,27
838,398;32,27
838,622;32,24
838,846;32,25
839,07;32,25
839,294;32,26
839,518;32,27
839,742;32,26
839,966;32,24
840,189;32,29
840,413;32,28
840,637;32,27
840,861;32,28
841,085;32,25
841,308;32,26
841,532;32,27
841,756;32,27
841,979;32,3
842,203;32,33
842,427;32,36
842,65;32,38
842,874;32,35
843,098;32,36
843,321;32,41
843,545;32,41
843,768;32,41
843,992;32,39
844,215;32,38
844,439;32,36
844,662;32,35
844,886;32,34
845,109;32,33
845,332;32,32
845,556;32,3
845,779;32,33
846,002;32,29
846,226;32,3
846,449;32,31
846,672;32,29
846,895;32,31
847,119;32,3
847,342;32,28
847,565;32,31
847,788;32,27
848,011;32,26
848,234;32,25
848,457;32,24
848,681;32,26
848,904;32,29
849,127;32,3
849,35;32,34
849,573;32,36
849,796;32,4
850,019;32,43
850,241;32,48
850,464;32,49
850,687;32,52
850,91;32,54
851,133;32,54
851,356;32,6
851,579;32,58
851,801;32,55
852,024;32,6
852,247;32,61
852,47;32,66
852,692;32,67
852,915;32,72
853,138;32,72
853,36;32,74
853,583;32,76
853,806;32,78
854,028;32,77
854,251;32,74
854,473;32,76
854,696;32,77
854,918;32,74
855,141;32,72
855,363;32,74
855,586;32,74
855,808;32,76
856,031;32,73
856,253;32,74
856,475;32,78
856,698;32,75
856,92;32,75
857,142;32,7
857,365;32,75
857,587;32,73
857,809;32,79
858,031;32,81
858,253;32,82
858,476;32,81
858,698;32,83
858,92;32,84
859,142;32,81
859,364;32,79
859,586;32,82
859,808;32,86
860,03;32,86
860,252;32,87
860,474;32,88
860,696;32,85
860,918;32,84
861,14;32,89
861,362;32,89
861,584;32,93
861,806;32,96
862,028;32,92
862,25;32,97
862,471;32,95
862,693;32,95
862,915;32,92
863,137;32,97
863,358;32,97
863,58;32,98
863,802;33
864,024;32,99
864,245;33
864,467;32,97
864,688;32,96
864,91;32,99
865,132;32,98
865,353;32,98
865,575;33,01
865,796;32,98
866,018;32,98
866,239;32,95
866,461;32,95
866,682;32,92
866,903;32,94
867,125;32,96
867,346;32,96
867,567;32,95
867,789;32,94
868,01;32,98
868,231;32,96
868,453;32,97
868,674;33
868,895;33,01
869,116;33,02
869,337;33,04
869,559;33,05
869,78;33,06
870,001;33,07
870,222;33,11
870,443;33,15
870,664;33,17
870,885;33,2
871,106;33,24
871,327;33,27
871,548;33,23
871,769;33,23
871,99;33,22
872,211;33,25
872,432;33,24
872,653;33,25
872,874;33,29
873,094;33,34
873,315;33,34
873,536;33,33
873,757;33,37
873,978;33,4
874,198;33,38
874,419;33,37
874,64;33,45
874,86;33,43
875,081;33,45
875,302;33,43
875,522;33,42
875,743;33,43
875,963;33,48
876,184;33,49
876,404;33,53
876,625;33,53
876,845;33,57
877,066;33,6
877,286;33,58
877,507;33,58
877,727;33,58
877,947;33,55
878,168;33,59
878,388;33,58
878,609;33,54
878,829;33,54
879,049;33,57
879,269;33,57
879,49;33,56
879,71;33,58
879,93;33,62
880,15;33,63
880,37;33,59
880,59;33,58
880,811;33,57
881,031;33,54
881,251;33,58
881,471;33,61
881,691;33,68
881,911;33,73
882,131;33,75
882,351;33,73
882,571;33,79
882,791;33,77
883,011;33,76
883,23;33,84
883,45;33,91
883,67;33,94
883,89;33,95
884,11;33,96
884,33;33,93
884,549;33,95
884,769;34,03
884,989;34,12
885,209;34,11
885,428;34,16
885,648;34,2
885,868;34,22
886,087;34,27
886,307;34,19
886,526;34,22
886,746;34,2
886,965;34,23
887,185;34,23
887,404;34,27
887,624;34,31
887,843;34,29
888,063;34,32
888,282;34,29
888,502;34,26
888,721;34,27
888,94;34,32
889,16;34,33
889,379;34,28
889,598;34,31
889,818;34,35
890,037;34,35
890,256;34,37
890,475;34,38
890,694;34,37
890,914;34,42
891,133;34,46
891,352;34,51
891,571;34,54
891,79;34,6
892,009;34,64
892,228;34,66
892,447;34,7
892,666;34,69
892,885;34,72
893,104;34,81
893,323;34,87
893,542;34,85
893,761;34,9
893,98;34,96
894,199;34,91
894,417;34,94
894,636;34,97
894,855;34,92
895,074;34,91
895,293;34,92
895,511;34,95
895,73;34,94
895,949;34,93
896,167;34,92
896,386;34,96
896,605;34,93
896,823;34,97
897,042;34,96
897,26;34,96
897,479;35,02
897,697;35,01
897,916;35,01
898,134;35,03
898,353;35,03
898,571;35,04
898,79;35,09
899,008;35,1
899,227;35,12
899,445;35,15
899,663;35,2
899,882;35,19
900,1;35,24
900,318;35,23
900,536;35,31
900,755;35,36
900,973;35,4
901,191;35,44
901,409;35,46
901,627;35,51
901,846;35,57
902,064;35,55
902,282;35,59
902,5;35,64
902,718;35,68
902,936;35,67
903,154;35,66
903,372;35,66
903,59;35,72
903,808;35,71
904,026;35,74
904,244;35,75
904,462;35,81
904,679;35,81
904,897;35,85
905,115;35,78
905,333;35,81
905,551;35,71
905,768;35,69
905,986;35,71
906,204;35,69
906,422;35,71
906,639;35,76
906,857;35,76
907,074;35,76
907,292;35,75
907,51;35,77
907,727;35,83
907,945;35,85
908,162;35,91
908,38;35,98
908,597;36,05
908,815;36,07
909,032;36,11
909,25;36,14
909,467;36,22
909,684;36,28
909,902;36,33
910,119;36,46
910,337;36,54
910,554;36,57
910,771;36,6
910,988;36,65
911,206;36,66
911,423;36,71
911,64;36,7
911,857;36,8
912,074;36,84
912,291;36,87
912,509;36,88
912,726;36,78
912,943;36,82
913,16;36,85
913,377;36,9
913,594;36,94
913,811;36,95
914,028;36,92
914,245;37,02
914,462;37,06
914,679;37,08
914,896;37,16
915,112;37,26
915,329;37,31
915,546;37,28
915,763;37,32
915,98;37,37
916,196;37,46
916,413;37,45
916,63;37,47
916,847;37,49
917,063;37,58
917,28;37,66
917,497;37,66
917,713;37,63
917,93;37,64
918,146;37,62
918,363;37,65
918,579;37,69
918,796;37,67
919,012;37,63
919,229;37,65
919,445;37,53
919,662;37,5
919,878;37,52
920,095;37,52
920,311;37,53
920,527;37,5
920,744;37,56
920,96;37,61
921,176;37,67
921,392;37,76
921,609;37,76
921,825;37,81
922,041;37,85
922,257;37,83
922,473;37,91
922,69;37,96
922,906;37,95
923,122;37,9
923,338;37,9
923,554;37,9
923,77;37,94
923,986;38
924,202;37,98
924,418;37,97
924,634;38,13
924,85;38,21
925,066;38,27
925,282;38,18
925,497;38,21
925,713;38,24
925,929;38,2
926,145;38,26
926,361;38,2
926,576;38,24
926,792;38,32
927,008;38,32
927,224;38,33
927,439;38,35
927,655;38,38
927,871;38,41
928,086;38,43
928,302;38,44
928,517;38,49
928,733;38,53
928,948;38,65
929,164;38,62
929,379;38,65
929,595;38,67
929,81;38,77
930,026;38,74
930,241;38,77
930,456;38,82
930,672;38,79
930,887;38,88
931,102;38,9
931,318;38,88
931,533;38,9
931,748;38,94
931,964;39
932,179;39,05
932,394;39,11
932,609;39,12
932,824;39,1
933,039;39,1
933,255;39,18
933,47;39,11
933,685;39,16
933,9;39,21
934,115;39,31
934,33;39,28
934,545;39,32
934,76;39,36
934,975;39,38
935,19;39,47
935,404;39,51
935,619;39,52
935,834;39,69
936,049;39,77
936,264;39,73
936,479;39,88
936,693;39,99
936,908;40,17
937,123;40,42
937,338;40,61
937,552;40,68
937,767;40,75
937,982;40,87
938,196;40,99
938,411;40,96
938,625;40,95
938,84;41,14
939,055;41,23
939,269;41,3
939,484;41,54
939,698;41,59
939,912;41,76
940,127;42,02
940,341;41,97
940,556;42,15
940,77;42,44
940,984;42,6
941,199;42,62
941,413;42,72
941,627;42,93
941,842;42,96
942,056;43,41
942,27;43,55
942,484;43,76
942,699;43,87
942,913;44,18
943,127;44,3
943,341;44,48
943,555;44,83
943,769;45,16
943,983;45,18
944,197;45,43
944,411;45,37
944,625;45,44
944,839;45,63
945,053;45,75
945,267;46,01
945,481;46,24
945,695;46,62
945,909;46,57
946,123;46,42
946,336;46,72
946,55;46,71
946,764;46,79
946,978;46,63
947,192;46,56
947,405;46,49
947,619;46,82
947,833;46,8
948,046;46,68
948,26;46,47
948,474;46,19
948,687;46,32
948,901;46,47
949,114;46,13
949,328;46,14
949,541;46,03
949,755;46,06
949,968;45,87
950,182;45,61
950,395;45,55
950,609;45,28
950,822;45,19
951,035;45,31
951,249;45,37
951,462;45,71
951,675;45,91
951,889;46,07
952,102;45,8
952,315;45,86
952,528;45,99
952,741;46,18
952,955;46,32
953,168;46,26
953,381;46,44
953,594;46,93
953,807;46,93
954,02;47,02
954,233;46,77
954,446;46,73
954,659;46,75
954,872;47,02
955,085;47,17
955,298;46,82
955,511;46,73
955,724;46,42
955,937;46,32
956,15;46,16
956,362;45,86
956,575;46,03
956,788;46,06
957,001;46,01
957,214;45,95
957,426;46,12
957,639;45,97
957,852;45,95
958,064;45,91
958,277;45,91
958,49;45,87
958,702;45,98
958,915;46,06
959,127;46,11
959,34;45,83
959,552;45,96
959,765;46,06
959,977;46,02
960,19;46,05
960,402;46,05
960,615;46,12
960,827;46,22
961,039;46,2
961,252;46,02
961,464;45,78
961,676;45,81
961,889;45,95
962,101;46,08
962,313;45,82
962,525;45,68
962,738;45,48
962,95;45,47
963,162;45,55
963,374;45,29
963,586;45,33
963,798;45,36
964,01;45,24
964,222;45,48
964,434;45,36
964,646;45,54
964,858;45,62
965,07;45,61
965,282;45,48
965,494;45,51
965,706;45,74
965,918;46,06
966,13;46,08
966,342;45,9
966,553;46
966,765;46,03
966,977;46,17
967,189;46,47
967,401;46,33
967,612;46,44
967,824;46,47
968,036;46,63
968,247;46,56
968,459;46,66
968,67;46,63
968,882;46,72
969,094;46,86
969,305;46,66
969,517;46,53
969,728;46,67
969,94;46,49
970,151;46,4
970,362;46,35
970,574;46,34
970,785;46,42
970,997;46,23
971,208;46,64
971,419;46,53
971,631;46,54
971,842;46,61
972,053;46,64
972,264;47,03
972,476;46,84
972,687;47,01
972,898;47,16
973,109;47,08
973,32;47,13
973,531;47,12
973,742;47,21
973,954;47,35
974,165;47,31
974,376;47,66
974,587;47,73
974,798;47,78
975,009;47,88
975,22;47,87
975,43;48,03
975,641;47,82
975,852;48,04
976,063;48,19
976,274;48,51
976,485;48,29
976,695;48,21
976,906;48,46
977,117;48,47
977,328;48,52
977,538;48,6
977,749;48,72
977,96;48,78
978,17;49,15
978,381;49,28
978,592;49,49
978,802;49,46
979,013;49,58
979,223;49,45
979,434;49,34
979,644;49,48
979,855;49,53
980,065;49,56
980,276;49,42
980,486;49,45
980,696;49,62
980,907;49,77
981,117;49,61
981,327;49,66
981,538;49,82
981,748;50,02
981,958;50,17
982,169;50,31
982,379;50,42
982,589;50,02
982,799;50,23
983,009;50,14
983,219;50,04
983,43;50,09
983,64;50,49
983,85;50,84
984,06;50,89
984,27;51,05
984,48;51,4
984,69;51,67
984,9;51,54
985,11;51,38
985,32;51,29
985,529;51,4
985,739;51,06
985,949;51,05
986,159;50,64
986,369;50,44
986,579;50,25
986,788;50,05
986,998;50,11
987,208;49,91
987,417;50,02
987,627;50,16
987,837;50,26
988,046;49,93
988,256;49,71
988,466;49,5
988,675;49,35
988,885;49,01
989,094;49,03
989,304;49,1
989,513;48,96
989,723;49,23
989,932;49,46
990,142;49,64
990,351;49,78
990,56;50,24
990,77;50,19
990,979;50,37
991,188;50,53
991,398;50,86
991,607;51,04
991,816;51,28
992,025;51,44
992,235;51,41
992,444;51,54
992,653;51,73
992,862;51,74
993,071;52,02
993,28;52,07
993,489;51,97
993,698;51,9
993,908;51,98
994,117;52,06
994,326;52,11
994,534;52,07
994,743;52,09
994,952;52
995,161;52,11
995,37;52,82
995,579;52,86
995,788;52,91
995,997;52,9
996,205;53
996,414;52,92
996,623;52,79
996,832;52,98
997,04;52,75
997,249;52,91
997,458;52,62
997,666;53,05
997,875;52,98
998,084;53,13
998,292;53,45
998,501;53,54
998,709;53,61
998,918;53,72
999,126;53,63
999,335;54,2
999,543;54,68
999,752;54,04
999,96;54,08
1000,169;54,35
1000,377;54,43
1000,585;54,49
1000,794;54,55
1001,002;55,21
1001,21;55,03
1001,418;55,14
1001,627;55,02
1001,835;55,58
1002,043;55,31
1002,251;55,59
1002,459;55,87
1002,668;55,72
1002,876;55,51
1003,084;55,68
1003,292;55,85
1003,5;55,96
1003,708;55,74
1003,916;55,85
1004,124;55,54
1004,332;55,72
1004,54;55,77
1004,748;55,82
1004,956;55,58
1005,163;55,54
1005,371;55,49
1005,579;55,67
1005,787;55,72
1005,995;56,09
1006,202;55,75
1006,41;55,99
1006,618;55,43
1006,826;55,1
1007,033;55,33
1007,241;55,61
1007,449;55,52
1007,656;55,7
1007,864;55,91
1008,071;56,13
1008,279;55,42
1008,486;55,9
1008,694;55,68
1008,901;55,14
1009,109;54,82
1009,316;55,26
1009,524;55,4
1009,731;54,62
1009,938;54,75
1010,146;55,17
1010,353;55,39
1010,56;55,46
1010,768;55,42
1010,975;56,14
1011,182;56,01
1011,389;55,73
1011,597;55,45
1011,804;55,44
1012,011;55,25
1012,218;55,42
1012,425;54,78
1012,632;55,45
1012,839;55,4
1013,046;55,8
1013,253;56,3
1013,46;56,88
1013,667;56,65
1013,874;56,6
1014,081;56,85
1014,288;56,66
1014,495;56,42
1014,702;56,29
1014,909;56,67
1015,116;56,49
1015,323;56,83
1015,529;57,17
1015,736;57,02
1015,943;57,57
1016,15;57,59
1016,356;57,65
1016,563;57,43
1016,77;56,6
1016,976;56,88
1017,183;56,83
1017,389;56,09
1017,596;55,72
1017,803;55,77
1018,009;56,32
1018,216;57,13
1018,422;57,61
1018,629;58,06
1018,835;58,03
1019,041;58,27
1019,248;57,64
1019,454;58,22
1019,661;58,41
1019,867;58,3
1020,073;59,3
1020,279;58,76
1020,486;58,25
1020,692;58,44
1020,898;58,96
1021,104;59,84
1021,311;58,9
1021,517;58,79
1021,723;59,83
1021,929;60,28
1022,135;59,89
1022,341;59,61
1022,547;58,99
1022,753;59,17
1022,959;59,65
1023,165;59,64
1023,371;59,43
1023,577;59,52
1023,783;59,12
1023,989;58,12
1024,195;58,36
1024,401;58,48
1024,607;59,3
1024,812;59,45
1025,018;58,57
1025,224;58,1
1025,43;58,44
1025,635;59,46
1025,841;60,28
1026,047;60,49
1026,252;61,13
1026,458;61,34
1026,664;61,38
1026,869;61,74
1027,075;61,8
1027,28;61,63
1027,486;61,46
1027,691;61,14
1027,897;61,75
1028,102;62,38
1028,308;62,52
1028,513;62,14
1028,719;61,58
1028,924;61,24
1029,129;62,03
1029,335;62,73
1029,54;63,16
1029,745;63,44
1029,95;63,39
1030,156;63,53
1030,361;63,06
1030,566;63,77
1030,771;63,6
1030,976;63,21
1031,182;62,88
1031,387;61,93
1031,592;62,06
1031,797;62,21
1032,002;62,7
1032,207;62,97
1032,412;61,27
1032,617;63,4
1032,822;63,79
1033,027;63,96
1033,232;62,6
1033,437;63,35
1033,642;64,46
1033,846;64,61
1034,051;63,63
1034,256;63,14
1034,461;62,07
1034,666;61,82
1034,87;60,17
1035,075;60,22
1035,28;60,55
1035,484;59,78
1035,689;60,46
1035,894;59,72
1036,098;60,14
1036,303;60,55
1036,507;59,55
1036,712;61,65
1036,917;60,89
1037,121;61,63
1037,325;61,52
1037,53;62,91
1037,734;62,5
1037,939;61,52
1038,143;61,14
1038,348;62,15
1038,552;62,06
1038,756;62,95
1038,961;63,46
1039,165;63,15
1039,369;62,93
1039,573;62,98
1039,778;64,17
1039,982;64,53
1040,186;65,16
1040,39;66,45
1040,594;64,77
1040,798;66,37
1041,002;64,75
1041,206;63,3
1041,41;63,35
1041,614;63,36
1041,818;64,23
1042,022;62,97
1042,226;63,44
1042,43;63,06
1042,634;62,73
1042,838;64,69
1043,042;64,1
1043,246;64
1043,45;65,41
1043,653;65,17
1043,857;64,47
1044,061;64,09
1044,265;64,28
1044,468;64,61
1044,672;64,73
1044,876;66,01
1045,079;65,25
1045,283;65,59
1045,487;65,26
1045,69;65,6
1045,894;65,13
1046,097;64,29
1046,301;63,41
1046,504;63,06
1046,708;62,6
1046,911;62,51
1047,115;61,58
1047,318;61,03
1047,522;63,77
1047,725;62,78
1047,928;62,74
1048,132;65,21
1048,335;66,42
1048,538;66,77
1048,741;66,56
1048,945;66,19
1049,148;67,3
1049,351;69,66
1049,554;70,54
1049,757;71,27
1049,96;71,58
1050,163;72,2
1050,367;70,66
1050,57;72,81
1050,773;72,22
1050,976;71,65
1051,179;73,06
1051,382;72,61
1051,585;74,32
1051,787;70,05
1051,99;70,45
1052,193;69,81
1052,396;68,3
1052,599;67,04
1052,802;65,87
1053,005;63,52
1053,207;64,04
1053,41;62,31
1053,613;59,93
1053,815;59,67
1054,018;59,34
1054,221;58,85
1054,423;58,59
1054,626;60,68
1054,829;59,94
1055,031;60,52
1055,234;62,45
1055,436;60,99
1055,639;60,89
1055,841;59,78
1056,044;61,6
1056,246;61,16
