Data from crisocollaWhite_Reflection__3__61.txt Node;
"Date: Fri Sep 12 12:00:30 CEST 2025 User: sycur Spectrometer: SR400348 Trigger mode: 0 Integration Time (sec): 2,000000E-2 Scans to average: 20 Electric dark correction enabled: true Nonlinearity correction enabled: false Boxcar width: 10 XAxis mode: Wavelengths Number of Pixels in Spectrum: 3648 >>>>>Begin Spectral Data<<<<<";
186,01;-233,66
186,281;-2185,29
186,552;107,93
186,822;78,84
187,093;190,91
187,364;79,86
187,635;6225,53
187,905;63,13
188,176;25,71
188,447;24,21
188,717;19,14
188,988;18,88
189,258;18,19
189,529;18,82
189,8;20,09
190,07;17,79
190,341;17,66
190,611;16,49
190,882;14,9
191,152;15,08
191,423;14,55
191,693;13,12
191,964;12,11
192,234;12,18
192,505;11,98
192,775;11,28
193,045;11,55
193,316;10,21
193,586;9,74
193,856;9,5
194,127;8,91
194,397;8,69
194,667;8,46
194,938;9,03
195,208;8,37
195,478;8,05
195,748;7,62
196,019;7,01
196,289;6,97
196,559;7,03
196,829;6,53
197,099;6,6
197,37;6,6
197,64;7,19
197,91;7,09
198,18;6,65
198,45;6,55
198,72;6,66
198,99;6,22
199,26;5,85
199,53;5,94
199,8;6,34
200,07;6,3
200,34;6,27
200,61;5,79
200,88;6
201,15;5,64
201,42;5,68
201,69;5,73
201,96;5,74
202,23;5,36
202,499;5,04
202,769;5,19
203,039;5,06
203,309;4,61
203,579;4,48
203,849;4,73
204,118;4,74
204,388;4,36
204,658;4,51
204,927;4,45
205,197;4,31
205,467;3,95
205,736;4,02
206,006;3,9
206,276;3,85
206,545;3,5
206,815;3,5
207,085;3,6
207,354;3,48
207,624;3,45
207,893;3,43
208,163;3,53
208,432;3,39
208,702;3,37
208,971;3,43
209,241;3,42
209,51;3,27
209,78;3,23
210,049;3,31
210,318;3,25
210,588;3,26
210,857;3,35
211,127;3,35
211,396;3,3
211,665;3,19
211,935;3,33
212,204;3,42
212,473;3,4
212,742;3,34
213,012;3,39
213,281;3,26
213,55;3,28
213,819;3,18
214,088;3,14
214,358;3,06
214,627;3,04
214,896;3,05
215,165;2,97
215,434;2,87
215,703;2,8
215,972;2,81
216,241;2,78
216,51;2,69
216,779;2,63
217,048;2,62
217,317;2,61
217,586;2,54
217,855;2,52
218,124;2,54
218,393;2,51
218,662;2,45
218,931;2,41
219,2;2,35
219,469;2,32
219,738;2,29
220,006;2,3
220,275;2,31
220,544;2,28
220,813;2,29
221,082;2,32
221,35;2,31
221,619;2,29
221,888;2,28
222,157;2,26
222,425;2,3
222,694;2,26
222,963;2,26
223,231;2,22
223,5;2,27
223,769;2,23
224,037;2,23
224,306;2,26
224,574;2,29
224,843;2,29
225,111;2,31
225,38;2,31
225,648;2,3
225,917;2,24
226,185;2,22
226,454;2,2
226,722;2,19
226,991;2,22
227,259;2,22
227,528;2,21
227,796;2,21
228,064;2,16
228,333;2,13
228,601;2,15
228,869;2,12
229,138;2,08
229,406;2,08
229,674;2,08
229,942;2,07
230,211;2,05
230,479;2,05
230,747;2,04
231,015;2,03
231,283;2,03
231,552;2,04
231,82;2,03
232,088;2,04
232,356;2,05
232,624;2,01
232,892;2
233,16;1,99
233,428;1,99
233,696;1,99
233,964;2
234,232;1,98
234,5;1,99
234,768;1,98
235,036;1,96
235,304;1,94
235,572;1,92
235,84;1,92
236,108;1,91
236,376;1,92
236,644;1,91
236,912;1,9
237,179;1,9
237,447;1,9
237,715;1,88
237,983;1,87
238,251;1,86
238,518;1,85
238,786;1,84
239,054;1,82
239,322;1,82
239,589;1,83
239,857;1,83
240,125;1,83
240,392;1,83
240,66;1,83
240,927;1,82
241,195;1,82
241,463;1,81
241,73;1,82
241,998;1,81
242,265;1,8
242,533;1,79
242,8;1,8
243,068;1,78
243,335;1,78
243,603;1,78
243,87;1,78
244,138;1,78
244,405;1,77
244,672;1,77
244,94;1,76
245,207;1,74
245,474;1,73
245,742;1,72
246,009;1,72
246,276;1,72
246,544;1,71
246,811;1,71
247,078;1,7
247,345;1,7
247,613;1,68
247,88;1,67
248,147;1,68
248,414;1,66
248,681;1,66
248,948;1,66
249,215;1,66
249,483;1,66
249,75;1,66
250,017;1,66
250,284;1,66
250,551;1,66
250,818;1,66
251,085;1,65
251,352;1,66
251,619;1,66
251,886;1,66
252,153;1,66
252,42;1,65
252,687;1,66
252,953;1,66
253,22;1,67
253,487;1,67
253,754;1,66
254,021;1,66
254,288;1,66
254,555;1,65
254,821;1,65
255,088;1,66
255,355;1,65
255,622;1,66
255,888;1,65
256,155;1,65
256,422;1,65
256,688;1,64
256,955;1,64
257,222;1,63
257,488;1,64
257,755;1,63
258,022;1,63
258,288;1,62
258,555;1,62
258,821;1,61
259,088;1,61
259,354;1,61
259,621;1,61
259,887;1,61
260,154;1,6
260,42;1,6
260,687;1,59
260,953;1,6
261,219;1,58
261,486;1,59
261,752;1,59
262,019;1,6
262,285;1,6
262,551;1,59
262,818;1,58
263,084;1,58
263,35;1,59
263,616;1,58
263,883;1,58
264,149;1,58
264,415;1,58
264,681;1,59
264,947;1,59
265,214;1,59
265,48;1,59
265,746;1,6
266,012;1,59
266,278;1,59
266,544;1,59
266,81;1,59
267,076;1,59
267,342;1,59
267,608;1,59
267,874;1,6
268,14;1,6
268,406;1,6
268,672;1,61
268,938;1,61
269,204;1,62
269,47;1,62
269,736;1,61
270,002;1,61
270,268;1,59
270,533;1,6
270,799;1,59
271,065;1,59
271,331;1,58
271,597;1,58
271,862;1,59
272,128;1,58
272,394;1,58
272,66;1,58
272,925;1,58
273,191;1,57
273,457;1,57
273,722;1,58
273,988;1,57
274,254;1,55
274,519;1,55
274,785;1,56
275,05;1,56
275,316;1,56
275,582;1,56
275,847;1,56
276,113;1,56
276,378;1,56
276,644;1,56
276,909;1,55
277,174;1,55
277,44;1,55
277,705;1,55
277,971;1,56
278,236;1,55
278,501;1,55
278,767;1,56
279,032;1,55
279,297;1,55
279,563;1,56
279,828;1,57
280,093;1,58
280,358;1,57
280,624;1,57
280,889;1,58
281,154;1,59
281,419;1,59
281,684;1,6
281,95;1,61
282,215;1,61
282,48;1,63
282,745;1,64
283,01;1,64
283,275;1,64
283,54;1,63
283,805;1,64
284,07;1,65
284,335;1,65
284,6;1,64
284,865;1,65
285,13;1,64
285,395;1,64
285,66;1,64
285,925;1,65
286,19;1,65
286,455;1,66
286,72;1,66
286,985;1,66
287,249;1,67
287,514;1,66
287,779;1,66
288,044;1,65
288,309;1,65
288,573;1,65
288,838;1,65
289,103;1,65
289,367;1,65
289,632;1,65
289,897;1,65
290,161;1,65
290,426;1,64
290,691;1,65
290,955;1,64
291,22;1,64
291,484;1,63
291,749;1,63
292,014;1,63
292,278;1,62
292,543;1,61
292,807;1,61
293,072;1,62
293,336;1,61
293,6;1,61
293,865;1,61
294,129;1,61
294,394;1,6
294,658;1,61
294,922;1,6
295,187;1,61
295,451;1,61
295,715;1,62
295,98;1,62
296,244;1,62
296,508;1,62
296,773;1,63
297,037;1,63
297,301;1,64
297,565;1,63
297,829;1,63
298,094;1,64
298,358;1,64
298,622;1,65
298,886;1,65
299,15;1,66
299,414;1,67
299,678;1,68
299,942;1,68
300,206;1,66
300,47;1,67
300,734;1,67
300,998;1,67
301,262;1,68
301,526;1,68
301,79;1,68
302,054;1,68
302,318;1,68
302,582;1,69
302,846;1,68
303,11;1,68
303,374;1,69
303,637;1,69
303,901;1,69
304,165;1,68
304,429;1,68
304,693;1,68
304,956;1,68
305,22;1,68
305,484;1,67
305,747;1,68
306,011;1,69
306,275;1,69
306,538;1,69
306,802;1,68
307,066;1,68
307,329;1,68
307,593;1,69
307,856;1,69
308,12;1,7
308,384;1,7
308,647;1,7
308,911;1,7
309,174;1,69
309,438;1,69
309,701;1,69
309,964;1,68
310,228;1,67
310,491;1,67
310,755;1,68
311,018;1,69
311,281;1,69
311,545;1,69
311,808;1,69
312,071;1,68
312,335;1,67
312,598;1,67
312,861;1,66
313,124;1,66
313,388;1,66
313,651;1,66
313,914;1,66
314,177;1,66
314,44;1,66
314,704;1,67
314,967;1,68
315,23;1,68
315,493;1,68
315,756;1,69
316,019;1,69
316,282;1,69
316,545;1,69
316,808;1,69
317,071;1,69
317,334;1,7
317,597;1,71
317,86;1,7
318,123;1,71
318,386;1,72
318,649;1,72
318,912;1,72
319,175;1,71
319,437;1,71
319,7;1,72
319,963;1,71
320,226;1,71
320,489;1,71
320,751;1,71
321,014;1,7
321,277;1,72
321,54;1,73
321,802;1,73
322,065;1,73
322,328;1,72
322,59;1,72
322,853;1,72
323,116;1,73
323,378;1,74
323,641;1,74
323,903;1,74
324,166;1,75
324,428;1,75
324,691;1,75
324,953;1,74
325,216;1,74
325,478;1,75
325,741;1,75
326,003;1,76
326,266;1,77
326,528;1,78
326,791;1,78
327,053;1,76
327,315;1,76
327,578;1,76
327,84;1,76
328,102;1,77
328,365;1,77
328,627;1,77
328,889;1,77
329,151;1,78
329,414;1,78
329,676;1,78
329,938;1,79
330,2;1,8
330,462;1,81
330,725;1,81
330,987;1,81
331,249;1,81
331,511;1,8
331,773;1,81
332,035;1,82
332,297;1,83
332,559;1,84
332,821;1,85
333,083;1,85
333,345;1,86
333,607;1,87
333,869;1,86
334,131;1,86
334,393;1,87
334,655;1,86
334,917;1,86
335,179;1,87
335,44;1,88
335,702;1,87
335,964;1,88
336,226;1,89
336,488;1,9
336,749;1,91
337,011;1,93
337,273;1,94
337,535;1,94
337,796;1,93
338,058;1,94
338,32;1,95
338,581;1,94
338,843;1,96
339,105;1,96
339,366;1,98
339,628;1,99
339,889;1,99
340,151;2,01
340,412;2,02
340,674;2,02
340,935;2,03
341,197;2,04
341,458;2,04
341,72;2,04
341,981;2,04
342,243;2,06
342,504;2,06
342,766;2,06
343,027;2,07
343,288;2,08
343,55;2,08
343,811;2,07
344,072;2,09
344,334;2,09
344,595;2,09
344,856;2,1
345,117;2,11
345,379;2,11
345,64;2,11
345,901;2,12
346,162;2,13
346,423;2,13
346,684;2,13
346,946;2,13
347,207;2,14
347,468;2,15
347,729;2,15
347,99;2,15
348,251;2,16
348,512;2,16
348,773;2,18
349,034;2,19
349,295;2,21
349,556;2,21
349,817;2,23
350,078;2,23
350,339;2,24
350,6;2,25
350,86;2,27
351,121;2,29
351,382;2,29
351,643;2,3
351,904;2,31
352,165;2,33
352,425;2,34
352,686;2,35
352,947;2,35
353,208;2,37
353,468;2,39
353,729;2,4
353,99;2,41
354,25;2,42
354,511;2,43
354,772;2,44
355,032;2,46
355,293;2,45
355,553;2,45
355,814;2,45
356,074;2,47
356,335;2,47
356,596;2,48
356,856;2,5
357,116;2,51
357,377;2,54
357,637;2,54
357,898;2,57
358,158;2,58
358,419;2,6
358,679;2,61
358,939;2,61
359,2;2,63
359,46;2,65
359,72;2,65
359,981;2,67
360,241;2,68
360,501;2,69
360,761;2,71
361,022;2,72
361,282;2,74
361,542;2,75
361,802;2,76
362,062;2,77
362,323;2,78
362,583;2,8
362,843;2,81
363,103;2,83
363,363;2,83
363,623;2,84
363,883;2,85
364,143;2,87
364,403;2,89
364,663;2,9
364,923;2,91
365,183;2,92
365,443;2,94
365,703;2,97
365,963;2,99
366,223;3,01
366,483;3,02
366,743;3,06
367,002;3,07
367,262;3,1
367,522;3,12
367,782;3,14
368,042;3,14
368,301;3,15
368,561;3,17
368,821;3,2
369,081;3,2
369,34;3,22
369,6;3,25
369,86;3,27
370,119;3,28
370,379;3,28
370,638;3,32
370,898;3,31
371,158;3,33
371,417;3,35
371,677;3,4
371,936;3,41
372,196;3,44
372,455;3,47
372,715;3,49
372,974;3,51
373,234;3,53
373,493;3,58
373,753;3,6
374,012;3,63
374,271;3,63
374,531;3,68
374,79;3,7
375,049;3,71
375,309;3,74
375,568;3,77
375,827;3,8
376,086;3,82
376,346;3,85
376,605;3,88
376,864;3,91
377,123;3,91
377,383;3,95
377,642;3,95
377,901;3,96
378,16;3,97
378,419;3,97
378,678;3,99
378,937;4
379,196;4,01
379,455;4,01
379,714;4,04
379,973;4,04
380,232;4,06
380,491;4,08
380,75;4,1
381,009;4,12
381,268;4,14
381,527;4,15
381,786;4,17
382,045;4,18
382,304;4,19
382,563;4,2
382,821;4,22
383,08;4,26
383,339;4,27
383,598;4,3
383,857;4,33
384,115;4,35
384,374;4,39
384,633;4,41
384,891;4,44
385,15;4,48
385,409;4,51
385,667;4,53
385,926;4,54
386,185;4,55
386,443;4,58
386,702;4,61
386,96;4,64
387,219;4,66
387,477;4,68
387,736;4,7
387,994;4,72
388,253;4,75
388,511;4,76
388,77;4,78
389,028;4,81
389,287;4,84
389,545;4,86
389,803;4,85
390,062;4,88
390,32;4,9
390,578;4,89
390,837;4,92
391,095;4,94
391,353;4,98
391,612;5
391,87;5
392,128;5,02
392,386;5,03
392,644;5,04
392,903;5,07
393,161;5,09
393,419;5,11
393,677;5,11
393,935;5,11
394,193;5,14
394,451;5,15
394,709;5,16
394,967;5,18
395,225;5,2
395,483;5,22
395,741;5,25
395,999;5,29
396,257;5,29
396,515;5,31
396,773;5,34
397,031;5,34
397,289;5,36
397,547;5,37
397,805;5,39
398,062;5,41
398,32;5,42
398,578;5,42
398,836;5,43
399,094;5,46
399,351;5,48
399,609;5,48
399,867;5,5
400,124;5,5
400,382;5,53
400,64;5,57
400,897;5,6
401,155;5,61
401,413;5,64
401,67;5,65
401,928;5,66
402,185;5,67
402,443;5,7
402,701;5,71
402,958;5,73
403,216;5,76
403,473;5,77
403,73;5,78
403,988;5,83
404,245;5,85
404,503;5,87
404,76;5,89
405,018;5,92
405,275;5,94
405,532;5,98
405,79;5,98
406,047;5,98
406,304;5,98
406,561;6
406,819;6
407,076;6,03
407,333;6,05
407,59;6,06
407,848;6,06
408,105;6,06
408,362;6,07
408,619;6,09
408,876;6,11
409,133;6,13
409,39;6,14
409,647;6,15
409,904;6,16
410,161;6,19
410,418;6,2
410,675;6,21
410,932;6,22
411,189;6,23
411,446;6,24
411,703;6,28
411,96;6,29
412,217;6,32
412,474;6,33
412,731;6,35
412,988;6,36
413,245;6,39
413,501;6,41
413,758;6,43
414,015;6,43
414,272;6,44
414,529;6,45
414,785;6,46
415,042;6,48
415,299;6,48
415,555;6,49
415,812;6,48
416,069;6,5
416,325;6,51
416,582;6,54
416,838;6,54
417,095;6,53
417,352;6,52
417,608;6,53
417,865;6,53
418,121;6,54
418,378;6,56
418,634;6,58
418,891;6,61
419,147;6,62
419,403;6,64
419,66;6,66
419,916;6,67
420,173;6,67
420,429;6,68
420,685;6,69
420,942;6,71
421,198;6,74
421,454;6,75
421,711;6,77
421,967;6,77
422,223;6,77
422,479;6,78
422,735;6,8
422,992;6,8
423,248;6,8
423,504;6,81
423,76;6,82
424,016;6,82
424,272;6,83
424,528;6,85
424,784;6,87
425,041;6,87
425,297;6,87
425,553;6,89
425,809;6,89
426,065;6,91
426,32;6,91
426,576;6,91
426,832;6,94
427,088;6,93
427,344;6,96
427,6;6,99
427,856;7,01
428,112;7,03
428,368;7,05
428,623;7,07
428,879;7,09
429,135;7,1
429,391;7,1
429,646;7,13
429,902;7,13
430,158;7,14
430,414;7,16
430,669;7,18
430,925;7,18
431,181;7,22
431,436;7,25
431,692;7,27
431,947;7,28
432,203;7,29
432,458;7,29
432,714;7,29
432,97;7,29
433,225;7,29
433,481;7,31
433,736;7,33
433,991;7,35
434,247;7,36
434,502;7,37
434,758;7,39
435,013;7,4
435,268;7,43
435,524;7,45
435,779;7,48
436,034;7,48
436,29;7,5
436,545;7,49
436,8;7,5
437,056;7,49
437,311;7,52
437,566;7,51
437,821;7,54
438,076;7,57
438,331;7,6
438,587;7,62
438,842;7,62
439,097;7,62
439,352;7,64
439,607;7,64
439,862;7,67
440,117;7,67
440,372;7,68
440,627;7,69
440,882;7,7
441,137;7,71
441,392;7,74
441,647;7,75
441,902;7,79
442,157;7,79
442,412;7,81
442,667;7,82
442,921;7,85
443,176;7,88
443,431;7,9
443,686;7,91
443,941;7,92
444,195;7,94
444,45;7,97
444,705;7,99
444,96;8,01
445,214;8,01
445,469;8,04
445,724;8,04
445,978;8,05
446,233;8,05
446,487;8,07
446,742;8,06
446,997;8,06
447,251;8,05
447,506;8,09
447,76;8,1
448,015;8,12
448,269;8,12
448,524;8,11
448,778;8,11
449,033;8,11
449,287;8,13
449,541;8,14
449,796;8,14
450,05;8,14
450,305;8,14
450,559;8,15
450,813;8,15
451,067;8,16
451,322;8,16
451,576;8,18
451,83;8,17
452,084;8,2
452,339;8,22
452,593;8,23
452,847;8,22
453,101;8,24
453,355;8,22
453,609;8,23
453,864;8,25
454,118;8,27
454,372;8,29
454,626;8,3
454,88;8,33
455,134;8,36
455,388;8,4
455,642;8,44
455,896;8,46
456,15;8,47
456,404;8,5
456,658;8,53
456,912;8,54
457,165;8,59
457,419;8,59
457,673;8,62
457,927;8,65
458,181;8,68
458,435;8,71
458,688;8,77
458,942;8,78
459,196;8,79
459,45;8,8
459,703;8,83
459,957;8,84
460,211;8,86
460,464;8,87
460,718;8,87
460,972;8,88
461,225;8,91
461,479;8,94
461,732;8,95
461,986;8,96
462,239;8,98
462,493;8,97
462,746;9,02
463;9,03
463,253;9,07
463,507;9,09
463,76;9,09
464,014;9,1
464,267;9,13
464,52;9,14
464,774;9,16
465,027;9,17
465,28;9,2
465,534;9,21
465,787;9,23
466,04;9,24
466,294;9,26
466,547;9,27
466,8;9,28
467,053;9,29
467,306;9,3
467,56;9,32
467,813;9,36
468,066;9,35
468,319;9,36
468,572;9,37
468,825;9,38
469,078;9,41
469,331;9,43
469,584;9,44
469,837;9,47
470,09;9,5
470,343;9,55
470,596;9,56
470,849;9,59
471,102;9,62
471,355;9,66
471,608;9,69
471,861;9,72
472,114;9,74
472,367;9,78
472,619;9,81
472,872;9,84
473,125;9,86
473,378;9,9
473,631;9,94
473,883;9,96
474,136;10
474,389;10,05
474,641;10,07
474,894;10,1
475,147;10,12
475,399;10,15
475,652;10,17
475,905;10,22
476,157;10,24
476,41;10,26
476,662;10,3
476,915;10,34
477,167;10,37
477,42;10,41
477,672;10,44
477,925;10,49
478,177;10,53
478,43;10,58
478,682;10,62
478,934;10,65
479,187;10,69
479,439;10,73
479,691;10,76
479,944;10,8
480,196;10,85
480,448;10,89
480,701;10,92
480,953;10,96
481,205;10,99
481,457;11,03
481,709;11,1
481,962;11,16
482,214;11,25
482,466;11,36
482,718;11,5
482,97;11,65
483,222;11,76
483,474;11,88
483,726;11,96
483,978;12,04
484,23;12,09
484,482;12,15
484,734;12,19
484,986;12,21
485,238;12,23
485,49;12,27
485,742;12,29
485,994;12,32
486,246;12,34
486,498;12,36
486,75;12,37
487,001;12,39
487,253;12,37
487,505;12,36
487,757;12,33
488,009;12,29
488,26;12,24
488,512;12,18
488,764;12,12
489,015;12,07
489,267;12,03
489,519;12,01
489,77;11,99
490,022;11,99
490,274;12
490,525;12,01
490,777;12
491,028;12,02
491,28;12,04
491,531;12,04
491,783;12,05
492,034;12,08
492,286;12,1
492,537;12,14
492,789;12,15
493,04;12,18
493,291;12,19
493,543;12,21
493,794;12,24
494,045;12,25
494,297;12,28
494,548;12,29
494,799;12,3
495,051;12,33
495,302;12,34
495,553;12,36
495,804;12,37
496,056;12,41
496,307;12,41
496,558;12,43
496,809;12,46
497,06;12,49
497,311;12,51
497,562;12,53
497,813;12,55
498,064;12,58
498,316;12,6
498,567;12,62
498,818;12,63
499,069;12,66
499,319;12,68
499,57;12,7
499,821;12,72
500,072;12,76
500,323;12,77
500,574;12,8
500,825;12,82
501,076;12,84
501,327;12,83
501,577;12,86
501,828;12,87
502,079;12,88
502,33;12,9
502,58;12,91
502,831;12,93
503,082;12,95
503,333;12,97
503,583;12,99
503,834;13
504,084;13,02
504,335;13,02
504,586;13,03
504,836;13,05
505,087;13,06
505,337;13,07
505,588;13,09
505,838;13,1
506,089;13,12
506,339;13,13
506,59;13,17
506,84;13,18
507,091;13,21
507,341;13,22
507,591;13,25
507,842;13,26
508,092;13,27
508,343;13,26
508,593;13,28
508,843;13,29
509,093;13,3
509,344;13,31
509,594;13,33
509,844;13,34
510,094;13,36
510,345;13,37
510,595;13,38
510,845;13,39
511,095;13,4
511,345;13,4
511,595;13,41
511,845;13,42
512,095;13,44
512,345;13,45
512,595;13,46
512,845;13,46
513,095;13,48
513,345;13,49
513,595;13,51
513,845;13,51
514,095;13,52
514,345;13,52
514,595;13,53
514,845;13,53
515,095;13,56
515,345;13,57
515,594;13,59
515,844;13,6
516,094;13,61
516,344;13,62
516,593;13,64
516,843;13,64
517,093;13,65
517,343;13,66
517,592;13,66
517,842;13,67
518,092;13,67
518,341;13,65
518,591;13,67
518,84;13,69
519,09;13,71
519,34;13,72
519,589;13,74
519,839;13,74
520,088;13,76
520,338;13,76
520,587;13,77
520,836;13,76
521,086;13,77
521,335;13,77
521,585;13,79
521,834;13,79
522,083;13,81
522,333;13,81
522,582;13,81
522,831;13,82
523,081;13,84
523,33;13,85
523,579;13,88
523,828;13,89
524,078;13,9
524,327;13,9
524,576;13,92
524,825;13,92
525,074;13,93
525,323;13,93
525,573;13,95
525,822;13,96
526,071;13,97
526,32;13,98
526,569;13,99
526,818;14,01
527,067;14,01
527,316;14,02
527,565;14,04
527,814;14,04
528,063;14,06
528,312;14,07
528,56;14,08
528,809;14,07
529,058;14,08
529,307;14,08
529,556;14,1
529,805;14,11
530,053;14,12
530,302;14,12
530,551;14,15
530,8;14,15
531,048;14,17
531,297;14,18
531,546;14,2
531,794;14,22
532,043;14,23
532,292;14,24
532,54;14,26
532,789;14,27
533,037;14,3
533,286;14,31
533,535;14,32
533,783;14,33
534,032;14,34
534,28;14,33
534,528;14,35
534,777;14,35
535,025;14,35
535,274;14,35
535,522;14,36
535,771;14,36
536,019;14,37
536,267;14,36
536,516;14,36
536,764;14,36
537,012;14,36
537,26;14,37
537,509;14,38
537,757;14,37
538,005;14,38
538,253;14,38
538,501;14,38
538,75;14,38
538,998;14,39
539,246;14,39
539,494;14,42
539,742;14,41
539,99;14,42
540,238;14,43
540,486;14,45
540,734;14,45
540,982;14,44
541,23;14,45
541,478;14,46
541,726;14,46
541,974;14,46
542,222;14,46
542,47;14,45
542,718;14,47
542,966;14,47
543,213;14,46
543,461;14,46
543,709;14,45
543,957;14,46
544,205;14,46
544,452;14,46
544,7;14,45
544,948;14,46
545,196;14,45
545,443;14,45
545,691;14,44
545,939;14,45
546,186;14,45
546,434;14,44
546,681;14,44
546,929;14,45
547,176;14,45
547,424;14,46
547,671;14,45
547,919;14,45
548,166;14,44
548,414;14,45
548,661;14,45
548,909;14,46
549,156;14,46
549,404;14,46
549,651;14,47
549,898;14,47
550,146;14,47
550,393;14,48
550,64;14,47
550,888;14,48
551,135;14,47
551,382;14,48
551,629;14,47
551,876;14,48
552,124;14,47
552,371;14,47
552,618;14,45
552,865;14,46
553,112;14,45
553,359;14,45
553,606;14,44
553,854;14,44
554,101;14,42
554,348;14,42
554,595;14,41
554,842;14,4
555,089;14,38
555,336;14,38
555,582;14,36
555,829;14,36
556,076;14,34
556,323;14,33
556,57;14,31
556,817;14,3
557,064;14,28
557,311;14,27
557,557;14,24
557,804;14,24
558,051;14,22
558,298;14,23
558,544;14,21
558,791;14,2
559,038;14,18
559,284;14,17
559,531;14,16
559,778;14,15
560,024;14,14
560,271;14,14
560,517;14,12
560,764;14,11
561,011;14,1
561,257;14,1
561,504;14,08
561,75;14,09
561,997;14,07
562,243;14,07
562,489;14,06
562,736;14,06
562,982;14,04
563,229;14,03
563,475;14,01
563,721;14,01
563,968;13,99
564,214;13,99
564,46;13,98
564,707;13,98
564,953;13,98
565,199;13,97
565,445;13,96
565,691;13,98
565,938;13,97
566,184;13,98
566,43;13,98
566,676;13,98
566,922;13,98
567,168;13,99
567,414;14
567,66;14,03
567,906;14,04
568,152;14,06
568,398;14,08
568,644;14,11
568,89;14,12
569,136;14,13
569,382;14,13
569,628;14,14
569,874;14,14
570,12;14,15
570,366;14,15
570,612;14,16
570,857;14,16
571,103;14,17
571,349;14,16
571,595;14,18
571,84;14,18
572,086;14,19
572,332;14,18
572,578;14,18
572,823;14,17
573,069;14,15
573,315;14,14
573,56;14,12
573,806;14,11
574,051;14,1
574,297;14,09
574,542;14,1
574,788;14,09
575,034;14,1
575,279;14,09
575,524;14,09
575,77;14,07
576,015;14,06
576,261;14,04
576,506;14,03
576,752;14
576,997;13,98
577,242;13,96
577,488;13,94
577,733;13,91
577,978;13,9
578,223;13,89
578,469;13,88
578,714;13,86
578,959;13,85
579,204;13,83
579,45;13,82
579,695;13,8
579,94;13,77
580,185;13,74
580,43;13,72
580,675;13,69
580,92;13,67
581,165;13,64
581,41;13,63
581,655;13,6
581,9;13,58
582,145;13,55
582,39;13,53
582,635;13,5
582,88;13,48
583,125;13,44
583,37;13,42
583,615;13,37
583,86;13,33
584,105;13,3
584,349;13,26
584,594;13,21
584,839;13,18
585,084;13,14
585,328;13,11
585,573;13,07
585,818;13,04
586,063;13
586,307;12,96
586,552;12,92
586,797;12,89
587,041;12,85
587,286;12,82
587,53;12,78
587,775;12,73
588,019;12,69
588,264;12,65
588,508;12,6
588,753;12,56
588,997;12,52
589,242;12,47
589,486;12,43
589,731;12,39
589,975;12,35
590,22;12,31
590,464;12,26
590,708;12,24
590,953;12,19
591,197;12,17
591,441;12,14
591,685;12,12
591,93;12,08
592,174;12,07
592,418;12,03
592,662;12,01
592,907;11,98
593,151;11,96
593,395;11,93
593,639;11,92
593,883;11,89
594,127;11,87
594,371;11,83
594,615;11,8
594,859;11,77
595,103;11,73
595,347;11,69
595,591;11,66
595,835;11,61
596,079;11,59
596,323;11,55
596,567;11,51
596,811;11,48
597,055;11,44
597,299;11,39
597,542;11,37
597,786;11,33
598,03;11,31
598,274;11,26
598,518;11,25
598,761;11,22
599,005;11,19
599,249;11,16
599,492;11,14
599,736;11,11
599,98;11,09
600,223;11,06
600,467;11,04
600,711;11,01
600,954;11
601,198;10,96
601,441;10,93
601,685;10,9
601,928;10,88
602,172;10,85
602,415;10,82
602,659;10,79
602,902;10,76
603,145;10,72
603,389;10,7
603,632;10,67
603,876;10,63
604,119;10,6
604,362;10,57
604,606;10,54
604,849;10,51
605,092;10,47
605,335;10,45
605,579;10,41
605,822;10,37
606,065;10,32
606,308;10,3
606,551;10,26
606,794;10,23
607,037;10,18
607,281;10,16
607,524;10,13
607,767;10,1
608,01;10,06
608,253;10,03
608,496;10
608,739;9,97
608,982;9,93
609,225;9,91
609,468;9,87
609,711;9,84
609,953;9,8
610,196;9,77
610,439;9,73
610,682;9,71
610,925;9,67
611,168;9,65
611,41;9,61
611,653;9,59
611,896;9,55
612,139;9,53
612,381;9,47
612,624;9,44
612,867;9,4
613,109;9,37
613,352;9,34
613,595;9,3
613,837;9,26
614,08;9,24
614,322;9,2
614,565;9,18
614,807;9,14
615,05;9,12
615,292;9,08
615,535;9,06
615,777;9,03
616,02;9,01
616,262;8,97
616,505;8,95
616,747;8,92
616,989;8,89
617,232;8,86
617,474;8,84
617,716;8,81
617,959;8,79
618,201;8,76
618,443;8,74
618,685;8,71
618,927;8,7
619,17;8,67
619,412;8,65
619,654;8,62
619,896;8,61
620,138;8,58
620,38;8,57
620,622;8,54
620,864;8,53
621,107;8,49
621,349;8,48
621,591;8,46
621,833;8,43
622,075;8,41
622,316;8,4
622,558;8,38
622,8;8,37
623,042;8,34
623,284;8,31
623,526;8,28
623,768;8,26
624,01;8,22
624,251;8,21
624,493;8,18
624,735;8,16
624,977;8,12
625,218;8,1
625,46;8,06
625,702;8,04
625,943;7,99
626,185;7,97
626,427;7,95
626,668;7,92
626,91;7,89
627,152;7,85
627,393;7,82
627,635;7,79
627,876;7,75
628,118;7,73
628,359;7,71
628,601;7,69
628,842;7,66
629,084;7,63
629,325;7,59
629,566;7,57
629,808;7,54
630,049;7,52
630,29;7,48
630,532;7,46
630,773;7,42
631,014;7,41
631,256;7,36
631,497;7,33
631,738;7,29
631,979;7,27
632,22;7,24
632,462;7,22
632,703;7,19
632,944;7,17
633,185;7,12
633,426;7,11
633,667;7,08
633,908;7,05
634,149;7,02
634,39;7
634,631;6,97
634,872;6,95
635,113;6,92
635,354;6,9
635,595;6,87
635,836;6,86
636,077;6,82
636,318;6,82
636,559;6,79
636,8;6,77
637,04;6,75
637,281;6,73
637,522;6,71
637,763;6,7
638,003;6,67
638,244;6,67
638,485;6,64
638,726;6,63
638,966;6,61
639,207;6,59
639,448;6,56
639,688;6,55
639,929;6,52
640,169;6,5
640,41;6,46
640,65;6,45
640,891;6,42
641,131;6,41
641,372;6,38
641,612;6,37
641,853;6,35
642,093;6,33
642,334;6,31
642,574;6,29
642,814;6,26
643,055;6,26
643,295;6,23
643,535;6,2
643,776;6,17
644,016;6,15
644,256;6,13
644,496;6,11
644,737;6,09
644,977;6,08
645,217;6,08
645,457;6,07
645,697;6,06
645,938;6,05
646,178;6,02
646,418;6,02
646,658;6
646,898;5,99
647,138;5,97
647,378;5,96
647,618;5,94
647,858;5,93
648,098;5,91
648,338;5,9
648,578;5,89
648,818;5,89
649,057;5,87
649,297;5,88
649,537;5,86
649,777;5,85
650,017;5,83
650,257;5,81
650,496;5,79
650,736;5,77
650,976;5,75
661,028;5,34
661,267;5,3
661,506;5,28
661,744;5,25
661,983;5,23
662,222;5,21
662,461;5,19
662,7;5,18
662,939;5,16
663,177;5,15
663,416;5,14
663,655;5,13
663,894;5,11
664,132;5,11
664,371;5,1
664,61;5,09
664,848;5,08
665,087;5,06
665,326;5,05
665,564;5,05
665,803;5,04
666,041;5,03
666,28;5,01
666,518;4,99
666,757;4,98
666,995;4,98
667,234;4,97
667,472;4,95
667,711;4,95
667,949;4,94
668,187;4,94
668,426;4,94
668,664;4,92
668,902;4,91
669,141;4,91
669,379;4,89
669,617;4,9
669,856;4,89
670,094;4,88
670,332;4,87
670,57;4,86
670,808;4,85
671,046;4,85
671,285;4,85
671,523;4,84
671,761;4,84
671,999;4,83
672,237;4,82
672,475;4,82
672,713;4,82
672,951;4,8
673,189;4,79
673,427;4,78
673,665;4,77
673,903;4,77
674,141;4,75
674,379;4,75
674,617;4,73
674,854;4,73
675,092;4,72
675,33;4,73
675,568;4,72
675,806;4,71
676,043;4,7
676,281;4,7
676,519;4,69
676,756;4,67
676,994;4,68
677,232;4,67
677,469;4,66
677,707;4,65
677,945;4,65
678,182;4,66
678,42;4,65
678,657;4,64
678,895;4,63
679,132;4,63
679,37;4,63
679,607;4,63
679,845;4,62
680,082;4,62
680,32;4,61
680,557;4,6
680,794;4,61
681,032;4,6
681,269;4,59
681,507;4,6
681,744;4,6
681,981;4,59
682,218;4,58
682,456;4,59
682,693;4,59
682,93;4,57
683,167;4,56
683,404;4,55
683,642;4,55
683,879;4,55
684,116;4,56
684,353;4,56
684,59;4,54
684,827;4,54
685,064;4,53
685,301;4,53
685,538;4,52
685,775;4,5
686,012;4,49
686,249;4,49
686,486;4,47
686,723;4,46
686,96;4,46
687,197;4,46
687,433;4,44
687,67;4,44
687,907;4,43
688,144;4,42
688,381;4,41
688,617;4,4
688,854;4,39
689,091;4,37
689,327;4,37
689,564;4,37
689,801;4,37
690,037;4,37
690,274;4,37
690,511;4,37
690,747;4,36
690,984;4,35
691,22;4,35
691,457;4,35
691,693;4,36
691,93;4,36
692,166;4,36
692,403;4,36
692,639;4,36
692,876;4,36
693,112;4,36
693,348;4,37
693,585;4,37
693,821;4,38
694,057;4,37
694,294;4,37
694,53;4,36
694,766;4,36
695,002;4,35
695,239;4,34
695,475;4,34
695,711;4,35
695,947;4,34
696,183;4,34
696,419;4,32
696,656;4,31
696,892;4,3
697,128;4,3
697,364;4,29
697,6;4,29
697,836;4,28
698,072;4,28
698,308;4,28
698,544;4,28
698,78;4,26
699,016;4,25
699,251;4,24
699,487;4,24
699,723;4,23
699,959;4,23
700,195;4,23
700,431;4,23
700,666;4,22
700,902;4,23
701,138;4,22
701,374;4,23
701,609;4,22
701,845;4,21
702,081;4,21
702,316;4,2
702,552;4,2
702,788;4,21
703,023;4,2
703,259;4,19
703,494;4,18
703,73;4,19
703,965;4,19
704,201;4,18
704,436;4,18
704,672;4,18
704,907;4,18
705,143;4,17
705,378;4,16
705,613;4,16
705,849;4,16
706,084;4,17
706,319;4,16
706,555;4,16
706,79;4,15
707,025;4,15
707,26;4,16
707,496;4,16
707,731;4,15
707,966;4,15
708,201;4,15
708,436;4,16
708,671;4,16
708,907;4,15
709,142;4,15
709,377;4,16
709,612;4,16
709,847;4,15
710,082;4,15
710,317;4,15
710,552;4,15
710,787;4,14
711,022;4,13
711,257;4,13
711,492;4,13
711,726;4,13
711,961;4,11
712,196;4,1
712,431;4,11
712,666;4,11
712,901;4,1
713,135;4,1
713,37;4,09
713,605;4,08
713,839;4,08
714,074;4,07
714,309;4,05
714,543;4,05
714,778;4,05
715,013;4,05
715,247;4,05
715,482;4,05
715,716;4,06
715,951;4,06
716,185;4,06
716,42;4,06
716,654;4,07
716,889;4,07
717,123;4,06
717,358;4,05
717,592;4,05
717,827;4,05
718,061;4,04
718,295;4,05
718,53;4,05
718,764;4,06
718,998;4,05
719,232;4,06
719,467;4,06
719,701;4,05
719,935;4,04
720,169;4,03
720,403;4,02
720,638;4,02
720,872;4,02
721,106;4,01
721,34;4
721,574;3,99
721,808;3,98
722,042;3,98
722,276;3,99
722,51;3,97
722,744;3,97
722,978;3,98
723,212;3,98
723,446;3,98
723,68;3,98
723,914;3,98
724,147;3,97
724,381;3,98
724,615;3,98
724,849;3,98
725,083;3,98
725,316;3,99
725,55;3,99
725,784;3,99
726,018;4
726,251;3,99
726,485;4,01
726,719;4
726,952;4,02
727,186;4,01
727,419;4,02
727,653;4,03
727,887;4,02
728,12;4,03
728,354;4,02
728,587;4,03
728,821;4,04
729,054;4,04
729,287;4,04
729,521;4,05
729,754;4,05
729,988;4,06
730,221;4,05
730,454;4,05
730,688;4,06
730,921;4,06
731,154;4,07
731,387;4,07
731,621;4,08
731,854;4,08
732,087;4,08
732,32;4,07
732,553;4,07
732,787;4,07
733,02;4,08
733,253;4,08
733,486;4,06
733,719;4,05
733,952;4,06
734,185;4,06
734,418;4,06
734,651;4,05
734,884;4,05
735,117;4,07
735,35;4,07
735,583;4,06
735,816;4,05
736,049;4,04
736,281;4,04
736,514;4,03
736,747;4,03
736,98;4,04
737,213;4,04
737,445;4,03
737,678;4,02
737,911;4,01
738,144;4,01
738,376;4,02
738,609;4,03
738,842;4,02
739,074;4,02
739,307;4,01
739,539;4,01
739,772;4
740,004;3,99
740,237;3,98
740,469;3,98
740,702;3,99
740,934;3,99
741,167;4
741,399;4,01
741,632;4,01
741,864;4,03
742,096;4,02
742,329;4,03
742,561;4,04
742,793;4,04
743,026;4,04
743,258;4,03
743,49;4,03
743,723;4,03
743,955;4,02
744,187;4,02
744,419;4,03
744,651;4,03
744,883;4,03
745,115;4,05
745,348;4,05
745,58;4,05
745,812;4,03
746,044;4,03
746,276;4,03
746,508;4,02
746,74;4,01
746,972;4
747,204;3,99
747,436;3,99
747,667;3,99
747,899;3,99
748,131;4
748,363;4
748,595;3,99
748,827;4,01
749,058;4,01
749,29;4,01
749,522;4,01
749,754;4,01
749,985;4
750,217;4
750,449;4
750,68;4,01
750,912;4,02
751,144;4,02
751,375;4,02
751,607;4,01
751,838;4,02
752,07;4,03
752,301;4,03
752,533;4,02
752,764;4,02
752,996;4,01
753,227;4,02
753,459;4,01
753,69;4,02
753,921;4,01
754,153;4,02
754,384;4,01
754,615;4,02
754,847;4,02
755,078;4,02
755,309;4,02
755,54;4,02
755,772;4,02
756,003;4,03
756,234;4,04
756,465;4,05
756,696;4,04
756,927;4,05
757,159;4,04
757,39;4,06
757,621;4,07
757,852;4,08
758,083;4,08
758,314;4,1
758,545;4,1
758,776;4,1
759,007;4,1
759,238;4,09
759,469;4,09
759,699;4,09
759,93;4,1
760,161;4,1
760,392;4,11
760,623;4,1
760,854;4,1
761,084;4,1
761,315;4,1
761,546;4,11
761,776;4,11
762,007;4,13
762,238;4,13
762,468;4,14
762,699;4,14
762,93;4,14
763,16;4,14
763,391;4,14
763,621;4,13
763,852;4,14
764,083;4,15
764,313;4,15
764,543;4,14
764,774;4,15
765,004;4,15
765,235;4,16
765,465;4,16
765,696;4,16
765,926;4,16
766,156;4,17
766,387;4,16
766,617;4,15
766,847;4,13
767,077;4,12
767,308;4,1
767,538;4,09
767,768;4,09
767,998;4,09
768,228;4,09
768,459;4,1
768,689;4,09
768,919;4,09
769,149;4,1
769,379;4,11
769,609;4,11
769,839;4,11
770,069;4,11
770,299;4,11
770,529;4,12
770,759;4,12
770,989;4,13
771,219;4,15
771,449;4,16
771,678;4,16
771,908;4,17
772,138;4,2
772,368;4,21
772,598;4,21
772,827;4,2
773,057;4,2
773,287;4,21
773,517;4,21
773,746;4,2
773,976;4,2
774,206;4,19
774,435;4,18
774,665;4,17
774,894;4,16
775,124;4,17
775,354;4,13
775,583;4,14
775,813;4,13
776,042;4,12
776,272;4,12
776,501;4,11
776,73;4,11
776,96;4,09
777,189;4,1
777,419;4,1
777,648;4,1
777,877;4,1
778,107;4,1
778,336;4,12
778,565;4,13
778,794;4,12
779,024;4,12
779,253;4,12
779,482;4,13
779,711;4,13
779,94;4,13
780,17;4,16
780,399;4,15
780,628;4,16
780,857;4,16
781,086;4,18
781,315;4,2
781,544;4,2
781,773;4,19
782,002;4,19
782,231;4,2
782,46;4,21
782,689;4,2
782,918;4,21
783,147;4,2
783,375;4,2
783,604;4,21
783,833;4,21
784,062;4,22
784,291;4,22
784,519;4,22
784,748;4,21
784,977;4,2
785,206;4,21
785,434;4,22
785,663;4,22
785,892;4,21
786,12;4,2
786,349;4,2
786,577;4,2
786,806;4,2
787,034;4,19
787,263;4,21
787,492;4,22
787,72;4,24
787,948;4,24
788,177;4,22
788,405;4,22
788,634;4,23
788,862;4,23
789,09;4,22
789,319;4,23
789,547;4,24
789,775;4,24
790,004;4,24
790,232;4,21
790,46;4,21
790,688;4,19
790,917;4,21
791,145;4,23
791,373;4,24
791,601;4,25
791,829;4,24
792,057;4,23
792,286;4,21
792,514;4,2
792,742;4,2
792,97;4,21
793,198;4,21
793,426;4,22
793,654;4,24
793,882;4,24
794,109;4,24
794,337;4,24
794,565;4,26
794,793;4,27
795,021;4,28
795,249;4,3
795,477;4,32
795,704;4,32
795,932;4,31
796,16;4,3
796,388;4,31
796,615;4,33
796,843;4,31
797,071;4,35
797,298;4,34
797,526;4,35
797,754;4,37
797,981;4,37
798,209;4,35
798,436;4,35
798,664;4,36
798,891;4,33
799,119;4,32
799,346;4,32
799,574;4,31
799,801;4,32
800,029;4,31
800,256;4,31
800,483;4,3
800,711;4,32
800,938;4,33
801,165;4,33
801,393;4,32
801,62;4,34
801,847;4,32
802,074;4,31
802,302;4,35
802,529;4,33
802,756;4,34
802,983;4,34
803,21;4,32
803,437;4,32
803,665;4,34
803,892;4,36
804,119;4,36
804,346;4,36
804,573;4,38
804,8;4,4
805,027;4,4
805,254;4,4
805,481;4,39
805,708;4,38
805,934;4,37
806,161;4,4
806,388;4,37
806,615;4,38
806,842;4,39
807,069;4,38
807,295;4,4
807,522;4,41
807,749;4,41
807,976;4,43
808,202;4,43
808,429;4,44
808,656;4,43
808,882;4,44
809,109;4,45
809,335;4,44
809,562;4,44
809,789;4,47
810,015;4,46
810,242;4,47
810,468;4,46
810,695;4,46
810,921;4,44
811,147;4,48
811,374;4,49
811,6;4,49
811,827;4,51
812,053;4,5
812,279;4,51
812,506;4,54
812,732;4,56
812,958;4,56
813,185;4,56
813,411;4,57
813,637;4,58
813,863;4,57
814,089;4,57
814,315;4,56
814,542;4,54
814,768;4,57
814,994;4,57
815,22;4,56
815,446;4,58
815,672;4,6
815,898;4,6
816,124;4,58
816,35;4,59
816,576;4,6
816,802;4,6
817,028;4,6
817,254;4,57
817,48;4,58
817,705;4,59
817,931;4,59
818,157;4,61
818,383;4,6
818,609;4,57
818,834;4,59
819,06;4,6
819,286;4,6
819,512;4,6
819,737;4,59
819,963;4,63
820,189;4,64
820,414;4,63
820,64;4,61
820,865;4,62
821,091;4,62
821,316;4,59
821,542;4,59
821,767;4,59
821,993;4,6
822,218;4,58
822,444;4,59
822,669;4,59
822,895;4,59
823,12;4,59
823,345;4,61
823,571;4,62
823,796;4,61
824,021;4,62
824,247;4,61
824,472;4,62
824,697;4,6
824,922;4,59
825,147;4,58
825,373;4,62
825,598;4,63
825,823;4,62
826,048;4,64
826,273;4,63
826,498;4,65
826,723;4,65
826,948;4,65
827,173;4,64
827,398;4,65
827,623;4,62
827,848;4,65
828,073;4,66
828,298;4,66
828,523;4,66
828,748;4,65
828,973;4,68
829,197;4,7
829,422;4,69
829,647;4,73
829,872;4,71
830,097;4,7
830,321;4,71
830,546;4,76
830,771;4,76
830,995;4,78
831,22;4,76
831,445;4,79
831,669;4,79
831,894;4,8
832,118;4,8
832,343;4,85
832,567;4,83
832,792;4,86
833,016;4,85
833,241;4,86
833,465;4,85
833,69;4,85
833,914;4,82
834,139;4,84
834,363;4,84
834,587;4,89
834,812;4,91
835,036;4,89
835,26;4,87
835,485;4,89
835,709;4,91
835,933;4,91
836,157;4,88
836,381;4,91
836,606;4,92
836,83;4,91
837,054;4,89
837,278;4,87
837,502;4,86
837,726;4,86
837,95;4,87
838,174;4,93
838,398;4,93
838,622;4,94
838,846;4,94
839,07;4,93
839,294;4,94
839,518;4,93
839,742;4,96
839,966;4,97
840,189;4,96
840,413;4,93
840,637;4,95
840,861;4,95
841,085;4,91
841,308;4,92
841,532;4,95
841,756;4,93
841,979;4,97
842,203;4,98
842,427;5,02
842,65;5,03
842,874;5,03
843,098;5,03
843,321;5,04
843,545;5,1
843,768;5,1
843,992;5,08
844,215;5,09
844,439;5,07
844,662;5,06
844,886;5,07
845,109;5,07
845,332;5,06
845,556;5,11
845,779;5,14
846,002;5,12
846,226;5,12
846,449;5,15
846,672;5,13
846,895;5,12
847,119;5,09
847,342;5,07
847,565;5,08
847,788;5,08
848,011;5,08
848,234;5,07
848,457;5,07
848,681;5,07
848,904;5,06
849,127;5,06
849,35;5,09
849,573;5,08
849,796;5,11
850,019;5,12
850,241;5,09
850,464;5,08
850,687;5,12
850,91;5,11
851,133;5,1
851,356;5,15
851,579;5,15
851,801;5,14
852,024;5,18
852,247;5,15
852,47;5,14
852,692;5,15
852,915;5,14
853,138;5,12
853,36;5,13
853,583;5,15
853,806;5,17
854,028;5,17
854,251;5,17
854,473;5,16
854,696;5,15
854,918;5,18
855,141;5,17
855,363;5,16
855,586;5,17
855,808;5,22
856,031;5,2
856,253;5,21
856,475;5,23
856,698;5,21
856,92;5,19
857,142;5,17
857,365;5,19
857,587;5,18
857,809;5,23
858,031;5,27
858,253;5,28
858,476;5,31
858,698;5,32
858,92;5,33
859,142;5,37
859,364;5,37
859,586;5,38
859,808;5,4
860,03;5,43
860,252;5,44
860,474;5,41
860,696;5,4
860,918;5,38
861,14;5,4
861,362;5,4
861,584;5,43
861,806;5,48
862,028;5,5
862,25;5,53
862,471;5,5
862,693;5,48
862,915;5,46
863,137;5,45
863,358;5,42
863,58;5,43
863,802;5,43
864,024;5,41
864,245;5,42
864,467;5,42
864,688;5,41
864,91;5,39
865,132;5,44
865,353;5,48
865,575;5,49
865,796;5,48
866,018;5,51
866,239;5,54
866,461;5,51
866,682;5,48
866,903;5,46
867,125;5,49
867,346;5,49
867,567;5,5
867,789;5,47
868,01;5,49
868,231;5,47
868,453;5,47
868,674;5,48
868,895;5,49
869,116;5,49
869,337;5,48
869,559;5,51
869,78;5,49
870,001;5,49
870,222;5,51
870,443;5,51
870,664;5,52
870,885;5,51
871,106;5,53
871,327;5,54
871,548;5,56
871,769;5,54
871,99;5,53
872,211;5,54
872,432;5,58
872,653;5,56
872,874;5,57
873,094;5,59
873,315;5,58
873,536;5,62
873,757;5,68
873,978;5,66
874,198;5,67
874,419;5,67
874,64;5,66
874,86;5,68
875,081;5,72
875,302;5,69
875,522;5,71
875,743;5,75
875,963;5,74
876,184;5,74
876,404;5,81
876,625;5,81
876,845;5,82
877,066;5,86
877,286;5,88
877,507;5,87
877,727;5,86
877,947;5,91
878,168;5,89
878,388;5,84
878,609;5,88
878,829;5,89
879,049;5,88
879,269;5,89
879,49;5,89
879,71;5,9
879,93;5,92
880,15;5,91
880,37;5,88
880,59;5,91
880,811;5,9
881,031;5,87
881,251;5,89
881,471;5,89
881,691;5,9
881,911;5,91
882,131;5,95
882,351;5,99
882,571;5,99
882,791;5,97
883,011;5,95
883,23;5,95
883,45;5,91
883,67;5,94
883,89;5,97
884,11;5,95
884,33;5,93
884,549;5,93
884,769;5,97
884,989;6,04
885,209;6,03
885,428;6,02
885,648;5,99
885,868;5,99
886,087;6,03
886,307;6,02
886,526;6,05
886,746;6,09
886,965;6,09
887,185;6,11
887,404;6,16
887,624;6,2
887,843;6,2
888,063;6,21
888,282;6,17
888,502;6,15
888,721;6,14
888,94;6,18
889,16;6,2
889,379;6,15
889,598;6,17
889,818;6,22
890,037;6,26
890,256;6,34
890,475;6,34
890,694;6,32
890,914;6,3
891,133;6,32
891,352;6,31
891,571;6,32
891,79;6,36
892,009;6,37
892,228;6,35
892,447;6,42
892,666;6,45
892,885;6,5
893,104;6,5
893,323;6,54
893,542;6,49
893,761;6,53
893,98;6,58
894,199;6,5
894,417;6,51
894,636;6,58
894,855;6,55
895,074;6,57
895,293;6,59
895,511;6,61
895,73;6,57
895,949;6,55
896,167;6,58
896,386;6,58
896,605;6,61
896,823;6,64
897,042;6,6
897,26;6,57
897,479;6,59
897,697;6,59
897,916;6,6
898,134;6,64
898,353;6,61
898,571;6,61
898,79;6,67
899,008;6,67
899,227;6,65
899,445;6,67
899,663;6,69
899,882;6,7
900,1;6,72
900,318;6,78
900,536;6,85
900,755;6,85
900,973;6,86
901,191;6,87
901,409;6,85
901,627;6,89
901,846;6,94
902,064;6,96
902,282;6,98
902,5;7,02
902,718;7,04
902,936;7,1
903,154;7,13
903,372;7,12
903,59;7,12
903,808;7,09
904,026;7,07
904,244;7,03
904,462;7,02
904,679;7,08
904,897;7,05
905,115;7,05
905,333;7,02
905,551;6,97
905,768;6,93
905,986;7
906,204;6,99
906,422;7,03
906,639;7,04
906,857;7,06
907,074;7,03
907,292;7
907,51;6,95
907,727;6,94
907,945;6,93
908,162;6,98
908,38;7,03
908,597;7,06
908,815;7,12
909,032;7,2
909,25;7,15
909,467;7,2
909,684;7,17
909,902;7,25
910,119;7,34
910,337;7,38
910,554;7,43
910,771;7,48
910,988;7,45
911,206;7,46
911,423;7,49
911,64;7,55
911,857;7,61
912,074;7,63
912,291;7,65
912,509;7,66
912,726;7,62
912,943;7,62
913,16;7,67
913,377;7,7
913,594;7,68
913,811;7,71
914,028;7,75
914,245;7,78
914,462;7,74
914,679;7,74
914,896;7,75
915,112;7,73
915,329;7,72
915,546;7,73
915,763;7,74
915,98;7,78
916,196;7,71
916,413;7,69
916,63;7,73
916,847;7,74
917,063;7,77
917,28;7,77
917,497;7,71
917,713;7,69
917,93;7,72
918,146;7,67
918,363;7,69
918,579;7,7
918,796;7,77
919,012;7,77
919,229;7,81
919,445;7,85
919,662;7,89
919,878;7,85
920,095;7,86
920,311;7,92
920,527;7,87
920,744;7,97
920,96;8,04
921,176;8,06
921,392;8,11
921,609;8,19
921,825;8,24
922,041;8,3
922,257;8,28
922,473;8,31
922,69;8,37
922,906;8,27
923,122;8,24
923,338;8,17
923,554;8,17
923,77;8,07
923,986;8
924,202;7,96
924,418;8,03
924,634;8,1
924,85;8,06
925,066;8,13
925,282;8,04
925,497;8,04
925,713;8,06
925,929;7,97
926,145;7,95
926,361;7,9
926,576;7,92
926,792;7,93
927,008;7,9
927,224;7,83
927,439;7,91
927,655;7,85
927,871;7,9
928,086;7,89
928,302;7,93
928,517;7,94
928,733;7,94
928,948;7,86
929,164;7,85
929,379;7,88
929,595;7,83
929,81;7,9
930,026;7,85
930,241;7,86
930,456;7,89
930,672;7,9
930,887;7,93
931,102;7,99
931,318;8,04
931,533;8,06
931,748;8,14
931,964;8,14
932,179;8,21
932,394;8,18
932,609;8,2
932,824;8,23
933,039;8,28
933,255;8,32
933,47;8,42
933,685;8,39
933,9;8,44
934,115;8,53
934,33;8,6
934,545;8,68
934,76;8,68
934,975;8,71
935,19;8,69
935,404;8,75
935,619;8,78
935,834;8,78
936,049;8,88
936,264;8,94
936,479;9,03
936,693;9,17
936,908;9,35
937,123;9,6
937,338;9,74
937,552;9,82
937,767;9,96
937,982;10,04
938,196;10,33
938,411;10,4
938,625;10,64
938,84;10,56
939,055;10,62
939,269;10,89
939,484;10,97
939,698;11,04
939,912;11,24
940,127;11,32
940,341;11,51
940,556;11,63
940,77;11,87
940,984;11,99
941,199;12,06
941,413;12,1
941,627;11,95
941,842;11,93
942,056;12,21
942,27;12,2
942,484;12,48
942,699;12,42
942,913;12,67
943,127;12,69
943,341;13,08
943,555;13,26
943,769;13,29
943,983;13,45
944,197;13,6
944,411;13,85
944,625;13,55
944,839;13,46
945,053;13,66
945,267;13,88
945,481;14,12
945,695;14,1
945,909;14,02
946,123;14,14
946,336;14,54
946,55;14,26
946,764;14,22
946,978;14,06
947,192;13,92
947,405;13,6
947,619;13,39
947,833;13,54
948,046;13,5
948,26;12,94
948,474;13,04
948,687;12,99
948,901;12,86
949,114;13,27
949,328;13,37
949,541;12,99
949,755;12,97
949,968;12,78
950,182;12,89
950,395;12,87
950,609;12,81
950,822;12,56
951,035;12,75
951,249;12,84
951,462;12,95
951,675;13,14
951,889;13,07
952,102;12,99
952,315;12,82
952,528;12,86
952,741;13,36
952,955;13,26
953,168;13,36
953,381;13,34
953,594;13,52
953,807;13,64
954,02;13,78
954,233;13,44
954,446;13,42
954,659;13,34
954,872;13,39
955,085;13,24
955,298;13,23
955,511;13,17
955,724;13,22
955,937;13
956,15;12,94
956,362;12,87
956,575;13,09
956,788;12,9
957,001;12,9
957,214;12,66
957,426;12,72
957,639;12,62
957,852;12,59
958,064;12,43
958,277;12,22
958,49;12,15
958,702;12,45
958,915;12,57
959,127;12,59
959,34;12,62
959,552;12,79
959,765;12,66
959,977;12,59
960,19;12,52
960,402;12,48
960,615;12,5
960,827;12,65
961,039;12,35
961,252;12,53
961,464;12,52
961,676;12,62
961,889;12,71
962,101;12,71
962,313;12,66
962,525;12,54
962,738;12,61
962,95;12,43
963,162;12,54
963,374;12,45
963,586;12,28
963,798;12,03
964,01;12,07
964,222;12,26
964,434;12,32
964,646;12,29
964,858;12,57
965,07;12,5
965,282;12,36
965,494;12,72
965,706;12,82
965,918;13,03
966,13;13,1
966,342;12,97
966,553;13,38
966,765;13,17
966,977;13,14
967,189;13,27
967,401;13,41
967,612;13,06
967,824;12,97
968,036;13,01
968,247;13,25
968,459;13,17
968,67;13,04
968,882;12,9
969,094;12,95
969,305;12,64
969,517;12,65
969,728;12,92
969,94;12,81
970,151;12,57
970,362;12,45
970,574;12,5
970,785;12,59
970,997;12,26
971,208;12,41
971,419;12,42
971,631;12,27
971,842;12,39
972,053;12,62
972,264;12,87
972,476;12,84
972,687;12,85
972,898;12,82
973,109;12,96
973,32;13,01
973,531;13,04
973,742;13,16
973,954;13,39
974,165;13,16
974,376;13,21
974,587;13,33
974,798;13,32
975,009;13,44
975,22;13,41
975,43;13,55
975,641;13,74
975,852;13,75
976,063;13,77
976,274;13,55
976,485;13,14
976,695;13,08
976,906;13,16
977,117;13,1
977,328;13,06
977,538;13,06
977,749;13,41
977,96;13,47
978,17;13,8
978,381;13,58
978,592;13,7
978,802;13,69
979,013;13,83
979,223;13,67
979,434;13,46
979,644;13,7
979,855;13,79
980,065;13,76
980,276;13,78
980,486;13,82
980,696;14,23
980,907;14,53
981,117;14,54
981,327;14,57
981,538;14,75
981,748;15,14
981,958;15,19
982,169;15,12
982,379;15,28
982,589;14,94
982,799;15,26
983,009;15,31
983,219;15,14
983,43;15,25
983,64;15,35
983,85;15,4
984,06;15,27
984,27;15,27
984,48;15,2
984,69;15,2
984,9;15,3
985,11;15,19
985,32;15,29
985,529;15,22
985,739;15,23
985,949;15,32
986,159;14,93
986,369;14,97
986,579;14,66
986,788;14,52
986,998;14,81
987,208;14,65
987,417;14,96
987,627;14,95
987,837;14,87
988,046;14,79
988,256;14,82
988,466;14,52
988,675;14,52
988,885;14,59
989,094;14,57
989,304;14,64
989,513;14,66
989,723;14,64
989,932;14,64
990,142;14,81
990,351;14,68
990,56;15,02
990,77;14,95
990,979;15,31
991,188;15,15
991,398;14,98
991,607;15,21
991,816;14,81
992,025;15,07
992,235;14,82
992,444;15,08
992,653;15,11
992,862;15,33
993,071;15,48
993,28;15,48
993,489;15,88
993,698;15,95
993,908;15,74
994,117;15,9
994,326;16,01
994,534;16,15
994,743;16,33
994,952;16,43
995,161;16,52
995,37;16,8
995,579;17,2
995,788;17,4
995,997;17,25
996,205;17,71
996,414;17,81
996,623;18,35
996,832;18,58
997,04;18,72
997,249;19,14
997,458;19,16
997,666;19,51
997,875;19,61
998,084;19,69
998,292;19,94
998,501;19,97
998,709;20,2
998,918;20,18
999,126;19,95
999,335;20,06
999,543;19,9
999,752;19,93
999,96;19,75
1000,169;20,01
1000,377;19,88
1000,585;19,78
1000,794;19,91
1001,002;19,64
1001,21;19,34
1001,418;19,13
1001,627;18,78
1001,835;18,74
1002,043;18,74
1002,251;18,74
1002,459;18,62
1002,668;19,05
1002,876;18,95
1003,084;19,09
1003,292;19,06
1003,5;19,28
1003,708;19,63
1003,916;19,92
1004,124;19,34
1004,332;19,43
1004,54;19,33
1004,748;19,64
1004,956;19,49
1005,163;19,7
1005,371;20,14
1005,579;20,26
1005,787;20,25
1005,995;20,69
1006,202;20,56
1006,41;20,87
1006,618;20,35
1006,826;20,43
1007,033;19,85
1007,241;19,85
1007,449;19,51
1007,656;19,52
1007,864;19,49
1008,071;19,05
1008,279;19,03
1008,486;19,4
1008,694;19,67
1008,901;19,13
1009,109;18,86
1009,316;18,75
1009,524;18,64
1009,731;18,18
1009,938;18,38
1010,146;19,01
1010,353;19,4
1010,56;19,39
1010,768;18,97
1010,975;19,62
1011,182;19,52
1011,389;20,11
1011,597;20,16
1011,804;20,67
1012,011;20,73
1012,218;20,75
1012,425;21,12
1012,632;21,3
1012,839;21,19
1013,046;20,91
1013,253;21,57
1013,46;21,64
1013,667;21,59
1013,874;21,33
1014,081;21,48
1014,288;21,65
1014,495;21,12
1014,702;20,07
1014,909;20,51
1015,116;20,35
1015,323;20,93
1015,529;21,31
1015,736;21,07
1015,943;21,27
1016,15;21,05
1016,356;20,96
1016,563;21,14
1016,77;20,41
1016,976;20,34
1017,183;20,34
1017,389;20,1
1017,596;19,97
1017,803;21,15
1018,009;22,11
1018,216;22,49
1018,422;23,13
1018,629;23,16
1018,835;23,25
1019,041;23,49
1019,248;23,17
1019,454;23,66
1019,661;23,66
1019,867;23,66
1020,073;23,87
1020,279;23,96
1020,486;23,66
1020,692;23,93
1020,898;23,4
1021,104;23,65
1021,311;24,11
1021,517;24,2
1021,723;24,73
1021,929;24,61
1022,135;23,35
1022,341;24,07
1022,547;23,99
1022,753;23,4
1022,959;23,83
1023,165;23,61
1023,371;24,09
1023,577;23,59
1023,783;23,54
1023,989;23,88
1024,195;23,54
1024,401;24,06
1024,607;24,64
1024,812;25,14
1025,018;24,95
1025,224;26,1
1025,43;26,36
1025,635;26,04
1025,841;26,17
1026,047;26,04
1026,252;25,94
1026,458;26,3
1026,664;24,93
1026,869;25,53
1027,075;26,55
1027,28;25,71
1027,486;25,91
1027,691;25,27
1027,897;25,32
1028,102;25,65
1028,308;23,68
1028,513;24,55
1028,719;23,56
1028,924;22,88
1029,129;22,65
1029,335;21,82
1029,54;20,87
1029,745;20,27
1029,95;20,58
1030,156;21,55
1030,361;21,75
1030,566;22,88
1030,771;22,54
1030,976;22,54
1031,182;21,69
1031,387;20,24
1031,592;20,73
1031,797;20,82
1032,002;21,27
1032,207;21,58
1032,412;20,62
1032,617;22,46
1032,822;21,43
1033,027;22,26
1033,232;21,92
1033,437;23,26
1033,642;24,91
1033,846;25,74
1034,051;26,36
1034,256;25,44
1034,461;24,75
1034,666;24,32
1034,87;23,3
1035,075;24,24
1035,28;23,67
1035,484;25,05
1035,689;26,39
1035,894;26,09
1036,098;26,82
1036,303;28
1036,507;28,78
1036,712;29,77
1036,917;29,68
1037,121;30,6
1037,325;28,87
1037,53;28,77
1037,734;28,3
1037,939;27,09
1038,143;27,32
1038,348;27,26
1038,552;27,08
1038,756;26,69
1038,961;27,69
1039,165;28,25
1039,369;27,73
1039,573;29,32
1039,778;27,89
1039,982;26,76
1040,186;27,61
1040,39;26,94
1040,594;25,04
1040,798;24,66
1041,002;24,42
1041,206;21,81
1041,41;22,31
1041,614;23,32
1041,818;24,53
1042,022;24,4
1042,226;25,52
1042,43;25,76
1042,634;25,92
1042,838;28,29
1043,042;29,03
1043,246;28,85
1043,45;29,11
1043,653;28,96
1043,857;26,91
1044,061;26,29
1044,265;26,76
1044,468;26,46
1044,672;27,91
1044,876;28,74
1045,079;29,61
1045,283;28,4
1045,487;30,24
1045,69;30,97
1045,894;31,57
1046,097;31,42
1046,301;30,67
1046,504;29,9
1046,708;29,16
1046,911;29,86
1047,115;27,25
1047,318;28,6
1047,522;31,17
1047,725;30,01
1047,928;30,76
1048,132;35,72
1048,335;37,06
1048,538;35,49
1048,741;34,77
1048,945;32,53
1049,148;33,63
1049,351;35,15
1049,554;35,61
1049,757;35,51
1049,96;34,19
1050,163;33,44
1050,367;33,19
1050,57;35,17
1050,773;36,8
1050,976;36,52
1051,179;34,76
1051,382;36,77
1051,585;36,63
1051,787;32,12
1051,99;34,64
1052,193;32,36
1052,396;28,9
1052,599;29,52
1052,802;31,37
1053,005;31,17
1053,207;34,49
1053,41;32,81
1053,613;30,74
1053,815;32,24
1054,018;30,49
1054,221;28,26
1054,423;29,52
1054,626;29,78
1054,829;27,29
1055,031;25,25
1055,234;25,39
1055,436;27,72
1055,639;26,96
1055,841;23,39
1056,044;25,7
1056,246;23,14
