Data from crisocollaWhite_Reflection__1__59.txt Node;
"Date: Fri Sep 12 11:59:01 CEST 2025 User: sycur Spectrometer: SR400348 Trigger mode: 0 Integration Time (sec): 2,000000E-2 Scans to average: 20 Electric dark correction enabled: true Nonlinearity correction enabled: false Boxcar width: 10 XAxis mode: Wavelengths Number of Pixels in Spectrum: 3648 >>>>>Begin Spectral Data<<<<<";
186,01;389,72
186,281;177,94
186,552;56,45
186,822;61,59
187,093;145,45
187,364;50,4
187,635;1577,66
187,905;70,92
188,176;40,71
188,447;36,51
188,717;34,71
188,988;34,54
189,258;33,58
189,529;33,14
189,8;31,2
190,07;27,44
190,341;28,38
190,611;25,15
190,882;22,87
191,152;23,52
191,423;23,08
191,693;22,27
191,964;22,18
192,234;21,85
192,505;20,93
192,775;20,71
193,045;20,54
193,316;19,63
193,586;18,87
193,856;18,25
194,127;17,81
194,397;17,73
194,667;18,22
194,938;18,32
195,208;17,96
195,478;17,67
195,748;17,32
196,019;16,11
196,289;15,52
196,559;15,37
196,829;14,6
197,099;14,47
197,37;14,24
197,64;14,1
197,91;14,19
198,18;13,81
198,45;12,81
198,72;12,69
198,99;12,45
199,26;11,94
199,53;11,83
199,8;11,87
200,07;11,26
200,34;10,82
200,61;10,33
200,88;10,47
201,15;10,23
201,42;10,16
201,69;10,06
201,96;10,33
202,23;9,97
202,499;9,88
202,769;9,75
203,039;9,62
203,309;9,25
203,579;9,07
203,849;9,15
204,118;9,32
204,388;9,06
204,658;8,89
204,927;8,76
205,197;8,65
205,467;8,3
205,736;8,23
206,006;7,99
206,276;7,85
206,545;7,44
206,815;7,34
207,085;7,36
207,354;7,21
207,624;7,11
207,893;6,88
208,163;6,67
208,432;6,7
208,702;6,56
208,971;6,61
209,241;6,53
209,51;6,51
209,78;6,46
210,049;6,36
210,318;6,3
210,588;6,31
210,857;6,22
211,127;6,17
211,396;6,15
211,665;6
211,935;6,07
212,204;6,08
212,473;6
212,742;5,89
213,012;5,93
213,281;5,91
213,55;5,9
213,819;5,88
214,088;5,76
214,358;5,69
214,627;5,55
214,896;5,48
215,165;5,28
215,434;5,16
215,703;5,09
215,972;5,11
216,241;5,09
216,51;5,03
216,779;4,95
217,048;4,91
217,317;4,95
217,586;4,91
217,855;4,87
218,124;4,87
218,393;4,78
218,662;4,72
218,931;4,62
219,2;4,62
219,469;4,61
219,738;4,56
220,006;4,54
220,275;4,59
220,544;4,57
220,813;4,53
221,082;4,55
221,35;4,55
221,619;4,52
221,888;4,46
222,157;4,43
222,425;4,45
222,694;4,39
222,963;4,4
223,231;4,33
223,5;4,34
223,769;4,3
224,037;4,31
224,306;4,3
224,574;4,3
224,843;4,29
225,111;4,26
225,38;4,25
225,648;4,26
225,917;4,22
226,185;4,22
226,454;4,26
226,722;4,26
226,991;4,26
227,259;4,24
227,528;4,21
227,796;4,24
228,064;4,22
228,333;4,21
228,601;4,2
228,869;4,21
229,138;4,2
229,406;4,24
229,674;4,26
229,942;4,28
230,211;4,3
230,479;4,32
230,747;4,34
231,015;4,36
231,283;4,37
231,552;4,4
231,82;4,4
232,088;4,43
232,356;4,44
232,624;4,46
232,892;4,49
233,16;4,53
233,428;4,55
233,696;4,58
233,964;4,61
234,232;4,65
234,5;4,68
234,768;4,69
235,036;4,7
235,304;4,71
235,572;4,73
235,84;4,75
236,108;4,77
236,376;4,8
236,644;4,81
236,912;4,82
237,179;4,85
237,447;4,89
237,715;4,91
237,983;4,95
238,251;4,97
238,518;4,98
238,786;5
239,054;5,03
239,322;5,06
239,589;5,11
239,857;5,12
240,125;5,16
240,392;5,2
240,66;5,23
240,927;5,27
241,195;5,28
241,463;5,3
241,73;5,32
241,998;5,34
242,265;5,37
242,533;5,4
242,8;5,42
243,068;5,44
243,335;5,44
243,603;5,45
243,87;5,46
244,138;5,49
244,405;5,51
244,672;5,52
244,94;5,53
245,207;5,53
245,474;5,55
245,742;5,54
246,009;5,55
246,276;5,55
246,544;5,56
246,811;5,57
247,078;5,58
247,345;5,59
247,613;5,59
247,88;5,58
248,147;5,6
248,414;5,59
248,681;5,59
248,948;5,6
249,215;5,62
249,483;5,62
249,75;5,62
250,017;5,62
250,284;5,63
250,551;5,62
250,818;5,62
251,085;5,61
251,352;5,61
251,619;5,62
251,886;5,62
252,153;5,62
252,42;5,63
252,687;5,64
252,953;5,63
253,22;5,65
253,487;5,66
253,754;5,65
254,021;5,66
254,288;5,65
254,555;5,66
254,821;5,65
255,088;5,66
255,355;5,66
255,622;5,67
255,888;5,64
256,155;5,65
256,422;5,66
256,688;5,66
256,955;5,65
257,222;5,65
257,488;5,66
257,755;5,65
258,022;5,65
258,288;5,64
258,555;5,64
258,821;5,62
259,088;5,62
259,354;5,63
259,621;5,62
259,887;5,63
260,154;5,62
260,42;5,62
260,687;5,62
260,953;5,62
261,219;5,6
261,486;5,63
261,752;5,62
262,019;5,62
262,285;5,62
262,551;5,62
262,818;5,63
263,084;5,62
263,35;5,62
263,616;5,62
263,883;5,63
264,149;5,63
264,415;5,64
264,681;5,65
264,947;5,64
265,214;5,65
265,48;5,67
265,746;5,68
266,012;5,68
266,278;5,68
266,544;5,68
266,81;5,69
267,076;5,69
267,342;5,7
267,608;5,71
267,874;5,73
268,14;5,74
268,406;5,74
268,672;5,76
268,938;5,78
269,204;5,78
269,47;5,78
269,736;5,79
270,002;5,79
270,268;5,79
270,533;5,8
270,799;5,81
271,065;5,81
271,331;5,82
271,597;5,82
271,862;5,84
272,128;5,85
272,394;5,86
272,66;5,87
272,925;5,89
273,191;5,9
273,457;5,91
273,722;5,92
273,988;5,92
274,254;5,92
274,519;5,93
274,785;5,95
275,05;5,96
275,316;5,97
275,582;6
275,847;6,01
276,113;6,03
276,378;6,03
276,644;6,05
276,909;6,05
277,174;6,07
277,44;6,09
277,705;6,1
277,971;6,12
278,236;6,13
278,501;6,14
278,767;6,15
279,032;6,16
279,297;6,18
279,563;6,2
279,828;6,23
280,093;6,25
280,358;6,27
280,624;6,3
280,889;6,32
281,154;6,34
281,419;6,36
281,684;6,39
281,95;6,42
282,215;6,44
282,48;6,47
282,745;6,5
283,01;6,51
283,275;6,55
283,54;6,57
283,805;6,59
284,07;6,63
284,335;6,67
284,6;6,69
284,865;6,71
285,13;6,74
285,395;6,77
285,66;6,8
285,925;6,84
286,19;6,87
286,455;6,91
286,72;6,94
286,985;6,98
287,249;7,01
287,514;7,05
287,779;7,09
288,044;7,13
288,309;7,16
288,573;7,2
288,838;7,25
289,103;7,29
289,367;7,34
289,632;7,38
289,897;7,43
290,161;7,49
290,426;7,53
290,691;7,59
290,955;7,64
291,22;7,69
291,484;7,73
291,749;7,78
292,014;7,84
292,278;7,9
292,543;7,94
292,807;7,99
293,072;8,06
293,336;8,11
293,6;8,17
293,865;8,22
294,129;8,28
294,394;8,34
294,658;8,41
294,922;8,46
295,187;8,52
295,451;8,58
295,715;8,64
295,98;8,7
296,244;8,75
296,508;8,8
296,773;8,86
297,037;8,91
297,301;8,96
297,565;9,01
297,829;9,06
298,094;9,11
298,358;9,16
298,622;9,21
298,886;9,25
299,15;9,3
299,414;9,35
299,678;9,41
299,942;9,44
300,206;9,48
300,47;9,54
300,734;9,58
300,998;9,61
301,262;9,65
301,526;9,69
301,79;9,73
302,054;9,76
302,318;9,8
302,582;9,84
302,846;9,88
303,11;9,92
303,374;9,96
303,637;9,99
303,901;10,03
304,165;10,06
304,429;10,1
304,693;10,12
304,956;10,17
305,22;10,2
305,484;10,24
305,747;10,26
306,011;10,28
306,275;10,31
306,538;10,34
306,802;10,36
307,066;10,4
307,329;10,43
307,593;10,47
307,856;10,5
308,12;10,54
308,384;10,58
308,647;10,6
308,911;10,64
309,174;10,68
309,438;10,7
309,701;10,74
309,964;10,77
310,228;10,81
310,491;10,82
310,755;10,86
311,018;10,89
311,281;10,92
311,545;10,95
311,808;10,98
312,071;11
312,335;11,04
312,598;11,07
312,861;11,1
313,124;11,12
313,388;11,15
313,651;11,18
313,914;11,19
314,177;11,23
314,44;11,26
314,704;11,3
314,967;11,32
315,23;11,35
315,493;11,38
315,756;11,41
316,019;11,44
316,282;11,48
316,545;11,52
316,808;11,56
317,071;11,59
317,334;11,63
317,597;11,67
317,86;11,69
318,123;11,74
318,386;11,77
318,649;11,8
318,912;11,83
319,175;11,86
319,437;11,91
319,7;11,95
319,963;11,98
320,226;12,02
320,489;12,05
320,751;12,08
321,014;12,1
321,277;12,15
321,54;12,18
321,802;12,22
322,065;12,26
322,328;12,28
322,59;12,32
322,853;12,37
323,116;12,41
323,378;12,46
323,641;12,49
323,903;12,54
324,166;12,59
324,428;12,64
324,691;12,68
324,953;12,7
325,216;12,75
325,478;12,8
325,741;12,84
326,003;12,89
326,266;12,93
326,528;12,99
326,791;13,03
327,053;13,07
327,315;13,09
327,578;13,13
327,84;13,17
328,102;13,22
328,365;13,25
328,627;13,29
328,889;13,32
329,151;13,37
329,414;13,41
329,676;13,45
329,938;13,48
330,2;13,52
330,462;13,55
330,725;13,58
330,987;13,62
331,249;13,67
331,511;13,71
331,773;13,76
332,035;13,79
332,297;13,84
332,559;13,9
332,821;13,96
333,083;13,99
333,345;14,06
333,607;14,1
333,869;14,16
334,131;14,21
334,393;14,28
334,655;14,33
334,917;14,4
335,179;14,45
335,44;14,53
335,702;14,59
335,964;14,67
336,226;14,73
336,488;14,79
336,749;14,86
337,011;14,93
337,273;15
337,535;15,07
337,796;15,14
338,058;15,22
338,32;15,29
338,581;15,38
338,843;15,45
339,105;15,54
339,366;15,63
339,628;15,72
339,889;15,79
340,151;15,87
340,412;15,92
340,674;16,01
340,935;16,08
341,197;16,17
341,458;16,24
341,72;16,33
341,981;16,39
342,243;16,47
342,504;16,54
342,766;16,61
343,027;16,67
343,288;16,73
343,55;16,78
343,811;16,85
344,072;16,91
344,334;16,97
344,595;17,01
344,856;17,05
345,117;17,1
345,379;17,17
345,64;17,22
345,901;17,29
346,162;17,33
346,423;17,39
346,684;17,43
346,946;17,5
347,207;17,55
347,468;17,61
347,729;17,68
347,99;17,74
348,251;17,82
348,512;17,88
348,773;17,96
349,034;18,04
349,295;18,1
349,556;18,18
349,817;18,25
350,078;18,34
350,339;18,43
350,6;18,52
350,86;18,59
351,121;18,69
351,382;18,76
351,643;18,86
351,904;18,94
352,165;19,06
352,425;19,15
352,686;19,26
352,947;19,35
353,208;19,45
353,468;19,54
353,729;19,62
353,99;19,7
354,25;19,79
354,511;19,86
354,772;19,98
355,032;20,07
355,293;20,17
355,553;20,28
355,814;20,36
356,074;20,45
356,335;20,55
356,596;20,65
356,856;20,78
357,116;20,89
357,377;21,01
357,637;21,09
357,898;21,2
358,158;21,28
358,419;21,4
358,679;21,49
358,939;21,61
359,2;21,71
359,46;21,84
359,72;21,94
359,981;22,08
360,241;22,15
360,501;22,27
360,761;22,37
361,022;22,46
361,282;22,58
361,542;22,71
361,802;22,81
362,062;22,93
362,323;23,01
362,583;23,12
362,843;23,21
363,103;23,32
363,363;23,4
363,623;23,53
363,883;23,63
364,143;23,76
364,403;23,84
364,663;23,97
364,923;24,07
365,183;24,19
365,443;24,29
365,703;24,42
365,963;24,51
366,223;24,61
366,483;24,71
366,743;24,82
367,002;24,92
367,262;25,04
367,522;25,14
367,782;25,26
368,042;25,35
368,301;25,45
368,561;25,57
368,821;25,68
369,081;25,75
369,34;25,85
369,6;25,94
369,86;26,07
370,119;26,16
370,379;26,27
370,638;26,36
370,898;26,45
371,158;26,53
371,417;26,66
371,677;26,78
371,936;26,9
372,196;27
372,455;27,11
372,715;27,21
372,974;27,33
373,234;27,42
373,493;27,57
373,753;27,67
374,012;27,79
374,271;27,88
374,531;28,02
374,79;28,13
375,049;28,26
375,309;28,36
375,568;28,48
375,827;28,58
376,086;28,72
376,346;28,85
376,605;28,98
376,864;29,09
377,123;29,23
377,383;29,34
377,642;29,45
377,901;29,57
378,16;29,67
378,419;29,77
378,678;29,89
378,937;29,96
379,196;30,09
379,455;30,19
379,714;30,29
379,973;30,39
380,232;30,53
380,491;30,61
380,75;30,72
381,009;30,84
381,268;30,96
381,527;31,04
381,786;31,15
382,045;31,26
382,304;31,36
382,563;31,43
382,821;31,53
383,08;31,64
383,339;31,74
383,598;31,82
383,857;31,91
384,115;32,01
384,374;32,15
384,633;32,24
384,891;32,34
385,15;32,47
385,409;32,58
385,667;32,65
385,926;32,75
386,185;32,86
386,443;32,95
386,702;33,06
386,96;33,17
387,219;33,26
387,477;33,36
387,736;33,44
387,994;33,54
388,253;33,62
388,511;33,71
388,77;33,79
389,028;33,9
389,287;34,01
389,545;34,11
389,803;34,21
390,062;34,31
390,32;34,38
390,578;34,46
390,837;34,54
391,095;34,67
391,353;34,77
391,612;34,86
391,87;34,94
392,128;35,04
392,386;35,13
392,644;35,21
392,903;35,28
393,161;35,34
393,419;35,41
393,677;35,53
393,935;35,61
394,193;35,71
394,451;35,8
394,709;35,88
394,967;35,96
395,225;36,01
395,483;36,09
395,741;36,2
395,999;36,29
396,257;36,38
396,515;36,45
396,773;36,53
397,031;36,58
397,289;36,66
397,547;36,69
397,805;36,74
398,062;36,83
398,32;36,92
398,578;37,01
398,836;37,09
399,094;37,15
399,351;37,22
399,609;37,27
399,867;37,35
400,124;37,4
400,382;37,49
400,64;37,54
400,897;37,63
401,155;37,68
401,413;37,77
401,67;37,85
401,928;37,93
402,185;38
402,443;38,1
402,701;38,16
402,958;38,24
403,216;38,31
403,473;38,37
403,73;38,42
403,988;38,49
404,245;38,55
404,503;38,64
404,76;38,71
405,018;38,79
405,275;38,84
405,532;38,9
405,79;38,93
406,047;39,01
406,304;39,05
406,561;39,12
406,819;39,15
407,076;39,2
407,333;39,23
407,59;39,29
407,848;39,33
408,105;39,42
408,362;39,48
408,619;39,56
408,876;39,62
409,133;39,69
409,39;39,74
409,647;39,8
409,904;39,83
410,161;39,9
410,418;39,96
410,675;40,06
410,932;40,13
411,189;40,22
411,446;40,3
411,703;40,37
411,96;40,44
412,217;40,5
412,474;40,55
412,731;40,61
412,988;40,65
413,245;40,72
413,501;40,75
413,758;40,81
414,015;40,85
414,272;40,88
414,529;40,93
414,785;41
415,042;41,05
415,299;41,07
415,555;41,13
415,812;41,18
416,069;41,15
416,325;41,22
416,582;41,24
416,838;41,28
417,095;41,31
417,352;41,35
417,608;41,41
417,865;41,48
418,121;41,54
418,378;41,65
418,634;41,69
418,891;41,78
419,147;41,87
419,403;41,95
419,66;42,03
419,916;42,11
420,173;42,17
420,429;42,22
420,685;42,31
420,942;42,37
421,198;42,4
421,454;42,52
421,711;42,55
421,967;42,62
422,223;42,66
422,479;42,75
422,735;42,79
422,992;42,83
423,248;42,86
423,504;42,9
423,76;42,92
424,016;42,96
424,272;43
424,528;43,03
424,784;43,07
425,041;43,13
425,297;43,16
425,553;43,2
425,809;43,26
426,065;43,31
426,32;43,39
426,576;43,47
426,832;43,52
427,088;43,6
427,344;43,64
427,6;43,72
427,856;43,77
428,112;43,86
428,368;43,93
428,623;43,98
428,879;44,04
429,135;44,12
429,391;44,15
429,646;44,21
429,902;44,25
430,158;44,31
430,414;44,36
430,669;44,42
430,925;44,48
431,181;44,56
431,436;44,62
431,692;44,65
431,947;44,7
432,203;44,76
432,458;44,79
432,714;44,87
432,97;44,9
433,225;44,95
433,481;44,99
433,736;45,06
433,991;45,11
434,247;45,17
434,502;45,2
434,758;45,29
435,013;45,35
435,268;45,4
435,524;45,44
435,779;45,5
436,034;45,57
436,29;45,64
436,545;45,68
436,8;45,72
437,056;45,76
437,311;45,81
437,566;45,85
437,821;45,93
438,076;46
438,331;46,13
438,587;46,19
438,842;46,28
439,097;46,32
439,352;46,42
439,607;46,49
439,862;46,55
440,117;46,63
440,372;46,7
440,627;46,76
440,882;46,84
441,137;46,86
441,392;46,93
441,647;46,97
441,902;47,04
442,157;47,09
442,412;47,17
442,667;47,21
442,921;47,29
443,176;47,34
443,431;47,37
443,686;47,38
443,941;47,43
444,195;47,45
444,45;47,54
444,705;47,57
444,96;47,63
445,214;47,68
445,469;47,7
445,724;47,73
445,978;47,77
446,233;47,81
446,487;47,89
446,742;47,94
446,997;48
447,251;48,02
447,506;48,1
447,76;48,14
448,015;48,21
448,269;48,23
448,524;48,26
448,778;48,3
449,033;48,35
449,287;48,39
449,541;48,41
449,796;48,42
450,05;48,47
450,305;48,51
450,559;48,57
450,813;48,62
451,067;48,68
451,322;48,74
451,576;48,8
451,83;48,82
452,084;48,85
452,339;48,89
452,593;48,95
452,847;48,98
453,101;49,03
453,355;49,06
453,609;49,12
453,864;49,18
454,118;49,24
454,372;49,27
454,626;49,34
454,88;49,43
455,134;49,5
455,388;49,58
455,642;49,63
455,896;49,69
456,15;49,75
456,404;49,81
456,658;49,86
456,912;49,88
457,165;49,97
457,419;50
457,673;50,06
457,927;50,11
458,181;50,17
458,435;50,22
458,688;50,32
458,942;50,34
459,196;50,39
459,45;50,43
459,703;50,51
459,957;50,56
460,211;50,61
460,464;50,64
460,718;50,67
460,972;50,74
461,225;50,8
461,479;50,85
461,732;50,9
461,986;50,94
462,239;51,05
462,493;51,11
462,746;51,22
463;51,26
463,253;51,35
463,507;51,4
463,76;51,45
464,014;51,49
464,267;51,59
464,52;51,64
464,774;51,71
465,027;51,73
465,28;51,79
465,534;51,84
465,787;51,91
466,04;51,95
466,294;51,99
466,547;52,03
466,8;52,08
467,053;52,12
467,306;52,19
467,56;52,2
467,813;52,28
468,066;52,3
468,319;52,39
468,572;52,44
468,825;52,5
469,078;52,57
469,331;52,64
469,584;52,69
469,837;52,76
470,09;52,85
470,343;52,95
470,596;53,05
470,849;53,14
471,102;53,21
471,355;53,31
471,608;53,4
471,861;53,48
472,114;53,55
472,367;53,65
472,619;53,72
472,872;53,82
473,125;53,89
473,378;53,96
473,631;54,04
473,883;54,12
474,136;54,19
474,389;54,25
474,641;54,31
474,894;54,39
475,147;54,45
475,399;54,52
475,652;54,6
475,905;54,66
476,157;54,71
476,41;54,76
476,662;54,82
476,915;54,9
477,167;54,98
477,42;55,05
477,672;55,11
477,925;55,19
478,177;55,24
478,43;55,3
478,682;55,35
478,934;55,41
479,187;55,47
479,439;55,53
479,691;55,6
479,944;55,66
480,196;55,73
480,448;55,81
480,701;55,86
480,953;55,92
481,205;55,98
481,457;56,05
481,709;56,15
481,962;56,25
482,214;56,32
482,466;56,41
482,718;56,49
482,97;56,57
483,222;56,61
483,474;56,66
483,726;56,69
483,978;56,71
484,23;56,74
484,482;56,77
484,734;56,79
484,986;56,83
485,238;56,86
485,49;56,89
485,742;56,92
485,994;56,95
486,246;56,99
486,498;57,01
486,75;57,05
487,001;57,07
487,253;57,09
487,505;57,12
487,757;57,13
488,009;57,17
488,26;57,2
488,512;57,28
488,764;57,34
489,015;57,41
489,267;57,51
489,519;57,58
489,77;57,69
490,022;57,78
490,274;57,84
490,525;57,91
490,777;57,97
491,028;58,02
491,28;58,08
491,531;58,1
491,783;58,17
492,034;58,25
492,286;58,3
492,537;58,35
492,789;58,38
493,04;58,42
493,291;58,44
493,543;58,5
493,794;58,53
494,045;58,55
494,297;58,6
494,548;58,62
494,799;58,67
495,051;58,69
495,302;58,74
495,553;58,79
495,804;58,83
496,056;58,9
496,307;58,94
496,558;58,98
496,809;59,05
497,06;59,08
497,311;59,12
497,562;59,17
497,813;59,23
498,064;59,28
498,316;59,35
498,567;59,41
498,818;59,45
499,069;59,51
499,319;59,58
499,57;59,62
499,821;59,68
500,072;59,72
500,323;59,79
500,574;59,82
500,825;59,85
501,076;59,89
501,327;59,91
501,577;59,97
501,828;60,01
502,079;60,05
502,33;60,11
502,58;60,16
502,831;60,17
503,082;60,21
503,333;60,25
503,583;60,27
503,834;60,31
504,084;60,37
504,335;60,4
504,586;60,44
504,836;60,5
505,087;60,56
505,337;60,6
505,588;60,62
505,838;60,66
506,089;60,73
506,339;60,79
506,59;60,85
506,84;60,86
507,091;60,92
507,341;60,95
507,591;60,99
507,842;61,02
508,092;61,07
508,343;61,11
508,593;61,15
508,843;61,2
509,093;61,25
509,344;61,29
509,594;61,35
509,844;61,38
510,094;61,41
510,345;61,45
510,595;61,49
510,845;61,54
511,095;61,57
511,345;61,58
511,595;61,61
511,845;61,63
512,095;61,68
512,345;61,71
512,595;61,76
512,845;61,79
513,095;61,85
513,345;61,9
513,595;61,94
513,845;61,99
514,095;62,03
514,345;62,09
514,595;62,15
514,845;62,16
515,095;62,22
515,345;62,28
515,594;62,31
515,844;62,34
516,094;62,37
516,344;62,41
516,593;62,44
516,843;62,48
517,093;62,54
517,343;62,56
517,592;62,6
517,842;62,63
518,092;62,67
518,341;62,69
518,591;62,71
518,84;62,76
519,09;62,78
519,34;62,85
519,589;62,86
519,839;62,87
520,088;62,92
520,338;62,97
520,587;63
520,836;63,04
521,086;63,09
521,335;63,14
521,585;63,17
521,834;63,22
522,083;63,28
522,333;63,31
522,582;63,36
522,831;63,4
523,081;63,44
523,33;63,47
523,579;63,5
523,828;63,55
524,078;63,58
524,327;63,59
524,576;63,6
524,825;63,65
525,074;63,7
525,323;63,71
525,573;63,72
525,822;63,76
526,071;63,78
526,32;63,82
526,569;63,84
526,818;63,88
527,067;63,9
527,316;63,91
527,565;63,93
527,814;63,94
528,063;63,96
528,312;64
528,56;64,01
528,809;64,02
529,058;64,04
529,307;64,06
529,556;64,09
529,805;64,12
530,053;64,15
530,302;64,15
530,551;64,16
530,8;64,18
531,048;64,19
531,297;64,21
531,546;64,23
531,794;64,25
532,043;64,27
532,292;64,3
532,54;64,33
532,789;64,36
533,037;64,4
533,286;64,42
533,535;64,45
533,783;64,47
534,032;64,49
534,28;64,51
534,528;64,52
534,777;64,54
535,025;64,55
535,274;64,57
535,522;64,59
535,771;64,62
536,019;64,64
536,267;64,66
536,516;64,7
536,764;64,71
537,012;64,74
537,26;64,74
537,509;64,77
537,757;64,77
538,005;64,8
538,253;64,82
538,501;64,84
538,75;64,85
538,998;64,88
539,246;64,9
539,494;64,93
539,742;64,95
539,99;64,97
540,238;65
540,486;65,01
540,734;65,02
540,982;65,02
541,23;65,04
541,478;65,06
541,726;65,06
541,974;65,07
542,222;65,07
542,47;65,09
542,718;65,09
542,966;65,11
543,213;65,12
543,461;65,12
543,709;65,12
543,957;65,13
544,205;65,15
544,452;65,15
544,7;65,15
544,948;65,15
545,196;65,16
545,443;65,15
545,691;65,15
545,939;65,18
546,186;65,21
546,434;65,2
546,681;65,2
546,929;65,22
547,176;65,23
547,424;65,24
547,671;65,26
547,919;65,27
548,166;65,28
548,414;65,28
548,661;65,29
548,909;65,3
549,156;65,33
549,404;65,32
549,651;65,33
549,898;65,34
550,146;65,37
550,393;65,39
550,64;65,41
550,888;65,43
551,135;65,44
551,382;65,45
551,629;65,47
551,876;65,48
552,124;65,47
552,371;65,48
552,618;65,48
552,865;65,47
553,112;65,46
553,359;65,47
553,606;65,44
553,854;65,44
554,101;65,47
554,348;65,44
554,595;65,44
554,842;65,45
555,089;65,47
555,336;65,48
555,582;65,48
555,829;65,48
556,076;65,5
556,323;65,5
556,57;65,49
556,817;65,51
557,064;65,52
557,311;65,54
557,557;65,54
557,804;65,56
558,051;65,55
558,298;65,58
558,544;65,59
558,791;65,6
559,038;65,61
559,284;65,6
559,531;65,62
559,778;65,62
560,024;65,62
560,271;65,62
560,517;65,61
560,764;65,62
561,011;65,62
561,257;65,59
561,504;65,58
561,75;65,58
561,997;65,58
562,243;65,57
562,489;65,57
562,736;65,58
562,982;65,58
563,229;65,58
563,475;65,58
563,721;65,58
563,968;65,59
564,214;65,59
564,46;65,57
564,707;65,58
564,953;65,59
565,199;65,57
565,445;65,55
565,691;65,54
565,938;65,5
566,184;65,5
566,43;65,48
566,676;65,47
566,922;65,44
567,168;65,41
567,414;65,37
567,66;65,34
567,906;65,31
568,152;65,27
568,398;65,23
568,644;65,18
568,89;65,11
569,136;65,07
569,382;65,02
569,628;64,98
569,874;64,92
570,12;64,89
570,366;64,87
570,612;64,83
570,857;64,79
571,103;64,77
571,349;64,72
571,595;64,69
571,84;64,65
572,086;64,62
572,332;64,56
572,578;64,55
572,823;64,51
573,069;64,46
573,315;64,45
573,56;64,44
573,806;64,43
574,051;64,43
574,297;64,4
574,542;64,39
574,788;64,37
575,034;64,35
575,279;64,32
575,524;64,28
575,77;64,25
576,015;64,22
576,261;64,19
576,506;64,17
576,752;64,14
576,997;64,11
577,242;64,09
577,488;64,08
577,733;64,05
577,978;64,05
578,223;64,04
578,469;64
578,714;63,97
578,959;63,94
579,204;63,91
579,45;63,86
579,695;63,82
579,94;63,78
580,185;63,75
580,43;63,71
580,675;63,69
580,92;63,67
581,165;63,66
581,41;63,65
581,655;63,63
581,9;63,62
582,145;63,6
582,39;63,59
582,635;63,57
582,88;63,54
583,125;63,5
583,37;63,48
583,615;63,46
583,86;63,45
584,105;63,42
584,349;63,4
584,594;63,39
584,839;63,39
585,084;63,39
585,328;63,39
585,573;63,39
585,818;63,38
586,063;63,36
586,307;63,34
586,552;63,32
586,797;63,3
587,041;63,29
587,286;63,27
587,53;63,25
587,775;63,22
588,019;63,22
588,264;63,19
588,508;63,18
588,753;63,16
588,997;63,14
589,242;63,13
589,486;63,13
589,731;63,12
589,975;63,11
590,22;63,08
590,464;63,05
590,708;63,01
590,953;62,98
591,197;62,95
591,441;62,92
591,685;62,89
591,93;62,86
592,174;62,81
592,418;62,78
592,662;62,75
592,907;62,73
593,151;62,69
593,395;62,66
593,639;62,61
593,883;62,59
594,127;62,55
594,371;62,49
594,615;62,44
594,859;62,4
595,103;62,36
595,347;62,31
595,591;62,28
595,835;62,23
596,079;62,19
596,323;62,16
596,567;62,11
596,811;62,06
597,055;62,03
597,299;62
597,542;61,97
597,786;61,92
598,03;61,88
598,274;61,83
598,518;61,8
598,761;61,78
599,005;61,73
599,249;61,69
599,492;61,67
599,736;61,65
599,98;61,62
600,223;61,58
600,467;61,54
600,711;61,51
600,954;61,5
601,198;61,48
601,441;61,43
601,685;61,41
601,928;61,4
602,172;61,36
602,415;61,31
602,659;61,27
602,902;61,24
603,145;61,22
603,389;61,19
603,632;61,16
603,876;61,13
604,119;61,1
604,362;61,07
604,606;61,02
604,849;60,98
605,092;60,93
605,335;60,89
605,579;60,86
605,822;60,82
606,065;60,78
606,308;60,74
606,551;60,71
606,794;60,68
607,037;60,64
607,281;60,59
607,524;60,57
607,767;60,55
608,01;60,52
608,253;60,48
608,496;60,45
608,739;60,42
608,982;60,37
609,225;60,35
609,468;60,33
609,711;60,33
609,953;60,3
610,196;60,28
610,439;60,25
610,682;60,21
610,925;60,18
611,168;60,14
611,41;60,1
611,653;60,08
611,896;60,05
612,139;60,01
612,381;59,98
612,624;59,94
612,867;59,9
613,109;59,87
613,352;59,84
613,595;59,81
613,837;59,75
614,08;59,72
614,322;59,68
614,565;59,64
614,807;59,6
615,05;59,55
615,292;59,52
615,535;59,48
615,777;59,46
616,02;59,44
616,262;59,42
616,505;59,39
616,747;59,33
616,989;59,3
617,232;59,28
617,474;59,25
617,716;59,22
617,959;59,2
618,201;59,17
618,443;59,14
618,685;59,11
618,927;59,1
619,17;59,08
619,412;59,04
619,654;59,01
619,896;58,98
620,138;58,95
620,38;58,92
620,622;58,88
620,864;58,86
621,107;58,83
621,349;58,77
621,591;58,75
621,833;58,73
622,075;58,69
622,316;58,66
622,558;58,64
622,8;58,6
623,042;58,58
623,284;58,56
623,526;58,51
623,768;58,46
624,01;58,42
624,251;58,37
624,493;58,33
624,735;58,27
624,977;58,23
625,218;58,2
625,46;58,18
625,702;58,17
625,943;58,12
626,185;58,09
626,427;58,06
626,668;58,01
626,91;57,99
627,152;57,97
627,393;57,93
627,635;57,89
627,876;57,86
628,118;57,82
628,359;57,79
628,601;57,76
628,842;57,74
629,084;57,72
629,325;57,69
629,566;57,67
629,808;57,65
630,049;57,62
630,29;57,58
630,532;57,52
630,773;57,45
631,014;57,44
631,256;57,39
631,497;57,38
631,738;57,35
631,979;57,31
632,22;57,28
632,462;57,23
632,703;57,2
632,944;57,15
633,185;57,11
633,426;57,09
633,667;57,06
633,908;56,99
634,149;56,95
634,39;56,91
634,631;56,87
634,872;56,82
635,113;56,79
635,354;56,76
635,595;56,71
635,836;56,69
636,077;56,63
636,318;56,61
636,559;56,54
636,8;56,49
637,04;56,45
637,281;56,42
637,522;56,39
637,763;56,35
638,003;56,31
638,244;56,27
638,485;56,22
638,726;56,18
638,966;56,16
639,207;56,14
639,448;56,11
639,688;56,1
639,929;56,08
640,169;56,05
640,41;56,01
640,65;55,99
640,891;55,96
641,131;55,93
641,372;55,89
641,612;55,88
641,853;55,84
642,093;55,82
642,334;55,77
642,574;55,75
642,814;55,72
643,055;55,68
643,295;55,64
643,535;55,6
643,776;55,56
644,016;55,54
644,256;55,49
644,496;55,46
644,737;55,4
644,977;55,37
645,217;55,32
645,457;55,29
645,697;55,26
645,938;55,23
646,178;55,19
646,418;55,14
646,658;55,1
646,898;55,06
647,138;55
647,378;54,97
647,618;54,91
647,858;54,88
648,098;54,86
648,338;54,81
648,578;54,77
648,818;54,74
649,057;54,7
649,297;54,66
649,537;54,61
649,777;54,58
650,017;54,53
650,257;54,49
650,496;54,45
650,736;54,4
650,976;54,36
661,028;52,5
661,267;52,6
661,506;52,67
661,744;52,71
661,983;52,72
662,222;52,74
662,461;52,73
662,7;52,73
662,939;52,72
663,177;52,69
663,416;52,66
663,655;52,64
663,894;52,63
664,132;52,61
664,371;52,59
664,61;52,59
664,848;52,58
665,087;52,54
665,326;52,54
665,564;52,52
665,803;52,49
666,041;52,46
666,28;52,44
666,518;52,41
666,757;52,39
666,995;52,38
667,234;52,36
667,472;52,35
667,711;52,34
667,949;52,32
668,187;52,32
668,426;52,31
668,664;52,3
668,902;52,24
669,141;52,22
669,379;52,19
669,617;52,17
669,856;52,15
670,094;52,13
670,332;52,11
670,57;52,08
670,808;52,05
671,046;52,04
671,285;52,03
671,523;51,97
671,761;51,95
671,999;51,93
672,237;51,9
672,475;51,9
672,713;51,85
672,951;51,82
673,189;51,78
673,427;51,75
673,665;51,73
673,903;51,74
674,141;51,72
674,379;51,68
674,617;51,65
674,854;51,63
675,092;51,6
675,33;51,6
675,568;51,59
675,806;51,59
676,043;51,57
676,281;51,55
676,519;51,55
676,756;51,53
676,994;51,51
677,232;51,5
677,469;51,46
677,707;51,46
677,945;51,45
678,182;51,44
678,42;51,44
678,657;51,42
678,895;51,39
679,132;51,4
679,37;51,39
679,607;51,38
679,845;51,36
680,082;51,36
680,32;51,34
680,557;51,32
680,794;51,3
681,032;51,3
681,269;51,27
681,507;51,27
681,744;51,26
681,981;51,24
682,218;51,2
682,456;51,2
682,693;51,18
682,93;51,16
683,167;51,13
683,404;51,12
683,642;51,09
683,879;51,08
684,116;51,06
684,353;51,05
684,59;51,02
684,827;50,99
685,064;50,97
685,301;50,94
685,538;50,94
685,775;50,92
686,012;50,9
686,249;50,88
686,486;50,85
686,723;50,84
686,96;50,84
687,197;50,83
687,433;50,82
687,67;50,79
687,907;50,77
688,144;50,78
688,381;50,76
688,617;50,73
688,854;50,71
689,091;50,68
689,327;50,66
689,564;50,65
689,801;50,65
690,037;50,62
690,274;50,61
690,511;50,58
690,747;50,56
690,984;50,55
691,22;50,53
691,457;50,53
691,693;50,52
691,93;50,51
692,166;50,51
692,403;50,48
692,639;50,47
692,876;50,46
693,112;50,43
693,348;50,42
693,585;50,43
693,821;50,43
694,057;50,44
694,294;50,44
694,53;50,43
694,766;50,42
695,002;50,42
695,239;50,39
695,475;50,38
695,711;50,37
695,947;50,33
696,183;50,34
696,419;50,32
696,656;50,3
696,892;50,29
697,128;50,27
697,364;50,27
697,6;50,25
697,836;50,23
698,072;50,23
698,308;50,23
698,544;50,24
698,78;50,23
699,016;50,21
699,251;50,2
699,487;50,2
699,723;50,18
699,959;50,2
700,195;50,2
700,431;50,2
700,666;50,2
700,902;50,22
701,138;50,22
701,374;50,22
701,609;50,22
701,845;50,24
702,081;50,24
702,316;50,24
702,552;50,25
702,788;50,25
703,023;50,24
703,259;50,24
703,494;50,21
703,73;50,2
703,965;50,2
704,201;50,18
704,436;50,17
704,672;50,16
704,907;50,15
705,143;50,14
705,378;50,12
705,613;50,11
705,849;50,09
706,084;50,08
706,319;50,07
706,555;50,06
706,79;50,02
707,025;50,01
707,26;50,01
707,496;49,99
707,731;50
707,966;50
708,201;49,99
708,436;49,98
708,671;49,97
708,907;49,96
709,142;49,96
709,377;49,96
709,612;49,98
709,847;49,96
710,082;49,95
710,317;49,95
710,552;49,95
710,787;49,94
711,022;49,93
711,257;49,92
711,492;49,91
711,726;49,91
711,961;49,88
712,196;49,87
712,431;49,87
712,666;49,84
712,901;49,83
713,135;49,8
713,37;49,81
713,605;49,8
713,839;49,8
714,074;49,79
714,309;49,79
714,543;49,77
714,778;49,79
715,013;49,81
715,247;49,8
715,482;49,81
715,716;49,83
715,951;49,84
716,185;49,85
716,42;49,86
716,654;49,85
716,889;49,86
717,123;49,86
717,358;49,87
717,592;49,87
717,827;49,86
718,061;49,87
718,295;49,86
718,53;49,86
718,764;49,86
718,998;49,87
719,232;49,87
719,467;49,87
719,701;49,86
719,935;49,84
720,169;49,83
720,403;49,8
720,638;49,8
720,872;49,78
721,106;49,78
721,34;49,76
721,574;49,76
721,808;49,76
722,042;49,77
722,276;49,77
722,51;49,78
722,744;49,78
722,978;49,79
723,212;49,81
723,446;49,78
723,68;49,78
723,914;49,77
724,147;49,76
724,381;49,75
724,615;49,74
724,849;49,75
725,083;49,76
725,316;49,77
725,55;49,77
725,784;49,78
726,018;49,79
726,251;49,79
726,485;49,8
726,719;49,78
726,952;49,78
727,186;49,78
727,419;49,78
727,653;49,79
727,887;49,77
728,12;49,77
728,354;49,79
728,587;49,81
728,821;49,81
729,054;49,81
729,287;49,8
729,521;49,81
729,754;49,8
729,988;49,81
730,221;49,8
730,454;49,82
730,688;49,82
730,921;49,81
731,154;49,8
731,387;49,82
731,621;49,85
731,854;49,86
732,087;49,87
732,32;49,88
732,553;49,86
732,787;49,88
733,02;49,87
733,253;49,88
733,486;49,87
733,719;49,88
733,952;49,9
734,185;49,92
734,418;49,93
734,651;49,94
734,884;49,94
735,117;49,95
735,35;49,95
735,583;49,96
735,816;49,98
736,049;50
736,281;49,98
736,514;49,98
736,747;49,97
736,98;49,97
737,213;49,96
737,445;49,98
737,678;49,97
737,911;49,98
738,144;49,97
738,376;49,98
738,609;49,97
738,842;49,96
739,074;49,96
739,307;49,96
739,539;49,93
739,772;49,95
740,004;49,96
740,237;49,95
740,469;49,95
740,702;49,94
740,934;49,92
741,167;49,94
741,399;49,95
741,632;49,98
741,864;50
742,096;50,03
742,329;50,03
742,561;50,06
742,793;50,05
743,026;50,07
743,258;50,08
743,49;50,09
743,723;50,1
743,955;50,12
744,187;50,13
744,419;50,16
744,651;50,13
744,883;50,14
745,115;50,15
745,348;50,13
745,58;50,14
745,812;50,13
746,044;50,13
746,276;50,14
746,508;50,12
746,74;50,13
746,972;50,12
747,204;50,14
747,436;50,12
747,667;50,14
747,899;50,13
748,131;50,14
748,363;50,14
748,595;50,13
748,827;50,12
749,058;50,12
749,29;50,13
749,522;50,16
749,754;50,15
749,985;50,16
750,217;50,17
750,449;50,19
750,68;50,19
750,912;50,18
751,144;50,17
751,375;50,17
751,607;50,15
751,838;50,16
752,07;50,16
752,301;50,17
752,533;50,15
752,764;50,15
752,996;50,15
753,227;50,15
753,459;50,17
753,69;50,18
753,921;50,21
754,153;50,19
754,384;50,2
754,615;50,2
754,847;50,2
755,078;50,21
755,309;50,2
755,54;50,19
755,772;50,19
756,003;50,21
756,234;50,22
756,465;50,21
756,696;50,2
756,927;50,23
757,159;50,23
757,39;50,25
757,621;50,26
757,852;50,25
758,083;50,26
758,314;50,25
758,545;50,27
758,776;50,26
759,007;50,27
759,238;50,25
759,469;50,26
759,699;50,29
759,93;50,3
760,161;50,31
760,392;50,36
760,623;50,39
760,854;50,39
761,084;50,41
761,315;50,43
761,546;50,43
761,776;50,41
762,007;50,43
762,238;50,43
762,468;50,44
762,699;50,46
762,93;50,49
763,16;50,5
763,391;50,5
763,621;50,49
763,852;50,51
764,083;50,5
764,313;50,51
764,543;50,48
764,774;50,48
765,004;50,48
765,235;50,47
765,465;50,48
765,696;50,49
765,926;50,48
766,156;50,49
766,387;50,5
766,617;50,52
766,847;50,51
767,077;50,5
767,308;50,5
767,538;50,51
767,768;50,49
767,998;50,51
768,228;50,53
768,459;50,55
768,689;50,56
768,919;50,6
769,149;50,61
769,379;50,66
769,609;50,66
769,839;50,7
770,069;50,71
770,299;50,7
770,529;50,7
770,759;50,73
770,989;50,72
771,219;50,74
771,449;50,76
771,678;50,77
771,908;50,8
772,138;50,84
772,368;50,86
772,598;50,87
772,827;50,87
773,057;50,88
773,287;50,88
773,517;50,89
773,746;50,9
773,976;50,9
774,206;50,89
774,435;50,92
774,665;50,89
774,894;50,89
775,124;50,91
775,354;50,91
775,583;50,9
775,813;50,93
776,042;50,9
776,272;50,9
776,501;50,93
776,73;50,94
776,96;50,93
777,189;50,92
777,419;50,94
777,648;50,91
777,877;50,88
778,107;50,91
778,336;50,92
778,565;50,9
778,794;50,92
779,024;50,92
779,253;50,93
779,482;50,93
779,711;50,96
779,94;50,96
780,17;50,96
780,399;50,98
780,628;50,97
780,857;51,01
781,086;50,97
781,315;50,96
781,544;50,96
781,773;50,97
782,002;50,98
782,231;51
782,46;51,01
782,689;51,04
782,918;51,03
783,147;51,06
783,375;51,07
783,604;51,08
783,833;51,07
784,062;51,09
784,291;51,12
784,519;51,1
784,748;51,11
784,977;51,15
785,206;51,16
785,434;51,17
785,663;51,18
785,892;51,23
786,12;51,24
786,349;51,24
786,577;51,24
786,806;51,26
787,034;51,26
787,263;51,28
787,492;51,29
787,72;51,28
787,948;51,27
788,177;51,27
788,405;51,27
788,634;51,27
788,862;51,26
789,09;51,24
789,319;51,28
789,547;51,28
789,775;51,24
790,004;51,23
790,232;51,24
790,46;51,23
790,688;51,24
790,917;51,24
791,145;51,25
791,373;51,25
791,601;51,25
791,829;51,24
792,057;51,22
792,286;51,22
792,514;51,25
792,742;51,25
792,97;51,27
793,198;51,28
793,426;51,29
793,654;51,3
793,882;51,32
794,109;51,33
794,337;51,33
794,565;51,37
794,793;51,4
795,021;51,42
795,249;51,43
795,477;51,41
795,704;51,44
795,932;51,45
796,16;51,46
796,388;51,45
796,615;51,45
796,843;51,47
797,071;51,48
797,298;51,49
797,526;51,48
797,754;51,47
797,981;51,47
798,209;51,49
798,436;51,46
798,664;51,49
798,891;51,46
799,119;51,47
799,346;51,46
799,574;51,42
799,801;51,4
800,029;51,4
800,256;51,44
800,483;51,43
800,711;51,41
800,938;51,43
801,165;51,44
801,393;51,44
801,62;51,43
801,847;51,41
802,074;51,39
802,302;51,42
802,529;51,46
802,756;51,46
802,983;51,48
803,21;51,49
803,437;51,49
803,665;51,52
803,892;51,52
804,119;51,56
804,346;51,6
804,573;51,64
804,8;51,67
805,027;51,64
805,254;51,65
805,481;51,67
805,708;51,7
805,934;51,71
806,161;51,75
806,388;51,76
806,615;51,77
806,842;51,79
807,069;51,78
807,295;51,77
807,522;51,79
807,749;51,78
807,976;51,79
808,202;51,77
808,429;51,76
808,656;51,76
808,882;51,73
809,109;51,75
809,335;51,74
809,562;51,72
809,789;51,73
810,015;51,72
810,242;51,72
810,468;51,69
810,695;51,7
810,921;51,71
811,147;51,76
811,374;51,79
811,6;51,8
811,827;51,78
812,053;51,78
812,279;51,78
812,506;51,8
812,732;51,81
812,958;51,83
813,185;51,85
813,411;51,85
813,637;51,87
813,863;51,85
814,089;51,87
814,315;51,89
814,542;51,89
814,768;51,9
814,994;51,89
815,22;51,88
815,446;51,9
815,672;51,87
815,898;51,86
816,124;51,81
816,35;51,77
816,576;51,8
816,802;51,81
817,028;51,83
817,254;51,84
817,48;51,85
817,705;51,84
817,931;51,87
818,157;51,93
818,383;51,9
818,609;51,92
818,834;51,94
819,06;51,95
819,286;51,94
819,512;51,96
819,737;51,96
819,963;51,98
820,189;51,97
820,414;52,01
820,64;51,99
820,865;52,03
821,091;52,06
821,316;52,05
821,542;52,03
821,767;52,01
821,993;52,03
822,218;51,99
822,444;52,04
822,669;52,01
822,895;51,98
823,12;52,02
823,345;52,01
823,571;52,01
823,796;52,03
824,021;52,04
824,247;52,05
824,472;52,08
824,697;52,11
824,922;52,1
825,147;52,11
825,373;52,12
825,598;52,15
825,823;52,14
826,048;52,16
826,273;52,15
826,498;52,14
826,723;52,1
826,948;52,14
827,173;52,09
827,398;52,05
827,623;52,05
827,848;52,03
828,073;52,03
828,298;52,02
828,523;52,01
828,748;51,99
828,973;52
829,197;52
829,422;52
829,647;52,04
829,872;51,99
830,097;52,01
830,321;52,01
830,546;52,03
830,771;52,06
830,995;52,07
831,22;52,1
831,445;52,12
831,669;52,1
831,894;52,15
832,118;52,2
832,343;52,2
832,567;52,22
832,792;52,22
833,016;52,22
833,241;52,23
833,465;52,25
833,69;52,29
833,914;52,28
834,139;52,29
834,363;52,25
834,587;52,29
834,812;52,29
835,036;52,29
835,26;52,31
835,485;52,3
835,709;52,33
835,933;52,35
836,157;52,35
836,381;52,38
836,606;52,35
836,83;52,34
837,054;52,33
837,278;52,32
837,502;52,34
837,726;52,35
837,95;52,33
838,174;52,34
838,398;52,31
838,622;52,29
838,846;52,31
839,07;52,33
839,294;52,33
839,518;52,33
839,742;52,34
839,966;52,31
840,189;52,3
840,413;52,27
840,637;52,31
840,861;52,32
841,085;52,32
841,308;52,38
841,532;52,4
841,756;52,43
841,979;52,46
842,203;52,49
842,427;52,49
842,65;52,51
842,874;52,56
843,098;52,54
843,321;52,58
843,545;52,56
843,768;52,56
843,992;52,58
844,215;52,63
844,439;52,62
844,662;52,64
844,886;52,62
845,109;52,66
845,332;52,64
845,556;52,64
845,779;52,66
846,002;52,6
846,226;52,61
846,449;52,63
846,672;52,63
846,895;52,58
847,119;52,54
847,342;52,57
847,565;52,55
847,788;52,55
848,011;52,58
848,234;52,61
848,457;52,64
848,681;52,63
848,904;52,56
849,127;52,59
849,35;52,59
849,573;52,62
849,796;52,65
850,019;52,64
850,241;52,61
850,464;52,63
850,687;52,7
850,91;52,73
851,133;52,73
851,356;52,78
851,579;52,83
851,801;52,86
852,024;52,89
852,247;52,93
852,47;52,94
852,692;52,91
852,915;52,92
853,138;52,89
853,36;52,9
853,583;52,9
853,806;52,9
854,028;52,89
854,251;52,88
854,473;52,87
854,696;52,88
854,918;52,93
855,141;52,9
855,363;52,88
855,586;52,88
855,808;52,91
856,031;52,83
856,253;52,85
856,475;52,87
856,698;52,77
856,92;52,73
857,142;52,74
857,365;52,76
857,587;52,7
857,809;52,76
858,031;52,78
858,253;52,79
858,476;52,79
858,698;52,85
858,92;52,91
859,142;52,88
859,364;52,89
859,586;52,89
859,808;52,93
860,03;52,96
860,252;52,93
860,474;52,92
860,696;52,95
860,918;52,92
861,14;52,96
861,362;53,01
861,584;53,06
861,806;53,04
862,028;53,06
862,25;53,17
862,471;53,16
862,693;53,16
862,915;53,19
863,137;53,24
863,358;53,2
863,58;53,18
863,802;53,21
864,024;53,21
864,245;53,21
864,467;53,23
864,688;53,24
864,91;53,27
865,132;53,32
865,353;53,28
865,575;53,35
865,796;53,33
866,018;53,32
866,239;53,29
866,461;53,31
866,682;53,29
866,903;53,25
867,125;53,23
867,346;53,25
867,567;53,28
867,789;53,29
868,01;53,3
868,231;53,29
868,453;53,29
868,674;53,31
868,895;53,31
869,116;53,27
869,337;53,25
869,559;53,22
869,78;53,19
870,001;53,24
870,222;53,25
870,443;53,25
870,664;53,3
870,885;53,31
871,106;53,37
871,327;53,37
871,548;53,32
871,769;53,32
871,99;53,32
872,211;53,3
872,432;53,28
872,653;53,27
872,874;53,36
873,094;53,41
873,315;53,41
873,536;53,39
873,757;53,41
873,978;53,41
874,198;53,4
874,419;53,38
874,64;53,43
874,86;53,41
875,081;53,44
875,302;53,46
875,522;53,43
875,743;53,46
875,963;53,49
876,184;53,5
876,404;53,54
876,625;53,53
876,845;53,56
877,066;53,55
877,286;53,59
877,507;53,61
877,727;53,62
877,947;53,59
878,168;53,62
878,388;53,68
878,609;53,65
878,829;53,7
879,049;53,76
879,269;53,74
879,49;53,72
879,71;53,75
879,93;53,75
880,15;53,79
880,37;53,75
880,59;53,72
880,811;53,75
881,031;53,79
881,251;53,79
881,471;53,77
881,691;53,83
881,911;53,83
882,131;53,8
882,351;53,8
882,571;53,88
882,791;53,9
883,011;53,86
883,23;53,91
883,45;53,91
883,67;53,89
883,89;53,9
884,11;53,95
884,33;53,9
884,549;53,89
884,769;53,94
884,989;53,98
885,209;54
885,428;54,05
885,648;53,97
885,868;54,05
886,087;54,08
886,307;54,02
886,526;54,04
886,746;54,04
886,965;53,99
887,185;54,03
887,404;54,02
887,624;54,1
887,843;54,14
888,063;54,16
888,282;54,21
888,502;54,17
888,721;54,16
888,94;54,22
889,16;54,26
889,379;54,31
889,598;54,33
889,818;54,38
890,037;54,35
890,256;54,43
890,475;54,46
890,694;54,53
890,914;54,59
891,133;54,65
891,352;54,63
891,571;54,72
891,79;54,7
892,009;54,71
892,228;54,67
892,447;54,68
892,666;54,69
892,885;54,74
893,104;54,83
893,323;54,87
893,542;54,85
893,761;54,82
893,98;54,8
894,199;54,82
894,417;54,85
894,636;54,93
894,855;54,92
895,074;54,89
895,293;54,86
895,511;54,89
895,73;54,88
895,949;54,9
896,167;54,87
896,386;54,89
896,605;54,98
896,823;55,06
897,042;55,09
897,26;55,13
897,479;55,08
897,697;55,07
897,916;55,14
898,134;55,13
898,353;55,16
898,571;55,21
898,79;55,21
899,008;55,19
899,227;55,11
899,445;55,11
899,663;55,15
899,882;55,17
900,1;55,15
900,318;55,16
900,536;55,25
900,755;55,29
900,973;55,28
901,191;55,31
901,409;55,3
901,627;55,3
901,846;55,29
902,064;55,3
902,282;55,32
902,5;55,29
902,718;55,35
902,936;55,41
903,154;55,4
903,372;55,44
903,59;55,45
903,808;55,54
904,026;55,59
904,244;55,61
904,462;55,63
904,679;55,68
904,897;55,73
905,115;55,76
905,333;55,75
905,551;55,78
905,768;55,75
905,986;55,73
906,204;55,72
906,422;55,84
906,639;55,83
906,857;55,85
907,074;55,91
907,292;55,92
907,51;55,88
907,727;55,9
907,945;55,9
908,162;56,01
908,38;56,01
908,597;56,04
908,815;56,05
909,032;56,2
909,25;56,21
909,467;56,25
909,684;56,23
909,902;56,34
910,119;56,41
910,337;56,48
910,554;56,56
910,771;56,6
910,988;56,57
911,206;56,69
911,423;56,67
911,64;56,72
911,857;56,71
912,074;56,75
912,291;56,74
912,509;56,72
912,726;56,66
912,943;56,67
913,16;56,66
913,377;56,73
913,594;56,63
913,811;56,62
914,028;56,58
914,245;56,58
914,462;56,58
914,679;56,6
914,896;56,6
915,112;56,61
915,329;56,64
915,546;56,63
915,763;56,63
915,98;56,75
916,196;56,71
916,413;56,8
916,63;56,87
916,847;56,94
917,063;57
917,28;57,04
917,497;57,11
917,713;57,25
917,93;57,24
918,146;57,23
918,363;57,27
918,579;57,35
918,796;57,44
919,012;57,42
919,229;57,42
919,445;57,45
919,662;57,5
919,878;57,53
920,095;57,53
920,311;57,5
920,527;57,51
920,744;57,57
920,96;57,63
921,176;57,68
921,392;57,71
921,609;57,78
921,825;57,75
922,041;57,74
922,257;57,62
922,473;57,69
922,69;57,79
922,906;57,88
923,122;57,82
923,338;57,8
923,554;57,8
923,77;57,82
923,986;57,91
924,202;57,86
924,418;57,93
924,634;58,04
924,85;58,18
925,066;58,2
925,282;58,18
925,497;58,2
925,713;58,24
925,929;58,31
926,145;58,31
926,361;58,47
926,576;58,49
926,792;58,63
927,008;58,7
927,224;58,66
927,439;58,67
927,655;58,71
927,871;58,71
928,086;58,69
928,302;58,75
928,517;58,75
928,733;58,82
928,948;58,82
929,164;58,83
929,379;58,82
929,595;58,88
929,81;58,9
930,026;58,91
930,241;58,92
930,456;58,95
930,672;58,96
930,887;58,88
931,102;58,96
931,318;58,9
931,533;58,82
931,748;58,87
931,964;58,86
932,179;58,88
932,394;58,89
932,609;58,86
932,824;58,75
933,039;58,75
933,255;58,77
933,47;58,79
933,685;58,7
933,9;58,71
934,115;58,73
934,33;58,73
934,545;58,76
934,76;58,81
934,975;58,7
935,19;58,81
935,404;58,87
935,619;58,88
935,834;58,94
936,049;58,98
936,264;58,88
936,479;58,99
936,693;58,99
936,908;59,18
937,123;59,5
937,338;59,8
937,552;59,79
937,767;59,81
937,982;59,93
938,196;60,16
938,411;60,24
938,625;60,16
938,84;60,28
939,055;60,29
939,269;60,37
939,484;60,59
939,698;60,59
939,912;60,71
940,127;60,81
940,341;61,03
940,556;61,34
940,77;61,67
940,984;62,02
941,199;62,31
941,413;62,23
941,627;62,42
941,842;62,39
942,056;62,97
942,27;62,99
942,484;63,04
942,699;63,32
942,913;63,26
943,127;63,58
943,341;63,89
943,555;63,99
943,769;64,13
943,983;64,21
944,197;64,33
944,411;64,33
944,625;64,55
944,839;64,46
945,053;64,33
945,267;64,61
945,481;64,62
945,695;64,74
945,909;64,74
946,123;64,72
946,336;64,86
946,55;64,68
946,764;64,69
946,978;64,59
947,192;64,64
947,405;64,72
947,619;64,78
947,833;65
948,046;64,98
948,26;64,48
948,474;64,6
948,687;64,53
948,901;64,33
949,114;64,24
949,328;64,06
949,541;64,34
949,755;64,26
949,968;63,84
950,182;63,91
950,395;63,99
950,609;63,63
950,822;63,66
951,035;63,56
951,249;63,83
951,462;63,9
951,675;63,76
951,889;63,95
952,102;63,92
952,315;63,78
952,528;63,75
952,741;64,02
952,955;64,14
953,168;64,02
953,381;64,46
953,594;64,52
953,807;64,56
954,02;64,36
954,233;64,43
954,446;64,64
954,659;64,56
954,872;64,79
955,085;65,09
955,298;64,97
955,511;65,09
955,724;64,9
955,937;65,08
956,15;65,13
956,362;64,91
956,575;65,07
956,788;65,04
957,001;65,22
957,214;65,26
957,426;65,25
957,639;65,56
957,852;65,4
958,064;65,43
958,277;65,31
958,49;65,4
958,702;65,29
958,915;65,28
959,127;65,35
959,34;65,19
959,552;65,18
959,765;65,36
959,977;65,46
960,19;65,42
960,402;65,2
960,615;65,14
960,827;65,26
961,039;65,16
961,252;65,23
961,464;65
961,676;65
961,889;65,11
962,101;64,98
962,313;64,92
962,525;64,82
962,738;64,95
962,95;65,04
963,162;65,29
963,374;65,2
963,586;65,09
963,798;65,12
964,01;65,21
964,222;65,22
964,434;64,89
964,646;65,1
964,858;65,12
965,07;65,33
965,282;65,25
965,494;65,09
965,706;65,04
965,918;65,27
966,13;65,24
966,342;65,07
966,553;65,28
966,765;65,28
966,977;65,38
967,189;65,5
967,401;65,53
967,612;65,3
967,824;65,29
968,036;65,35
968,247;65,34
968,459;65,32
968,67;65,32
968,882;65,42
969,094;65,41
969,305;65,36
969,517;65,28
969,728;65,53
969,94;65,63
970,151;65,62
970,362;65,77
970,574;65,86
970,785;65,74
970,997;65,53
971,208;65,87
971,419;65,81
971,631;66,05
971,842;65,83
972,053;66,06
972,264;66,45
972,476;66,6
972,687;66,67
972,898;66,59
973,109;66,72
973,32;66,9
973,531;66,93
973,742;67,12
973,954;67,22
974,165;67,02
974,376;67,24
974,587;67,34
974,798;67,26
975,009;67,5
975,22;67,76
975,43;67,98
975,641;67,86
975,852;68,19
976,063;68,09
976,274;68,18
976,485;68,03
976,695;67,99
976,906;67,77
977,117;67,87
977,328;68,09
977,538;67,95
977,749;68,17
977,96;68,46
978,17;68,64
978,381;68,41
978,592;68,64
978,802;68,53
979,013;68,66
979,223;68,58
979,434;68,51
979,644;68,65
979,855;68,82
980,065;68,83
980,276;68,7
980,486;68,77
980,696;68,89
980,907;69,15
981,117;69,17
981,327;69,54
981,538;69,44
981,748;69,58
981,958;69,63
982,169;69,4
982,379;69,49
982,589;69,51
982,799;69,91
983,009;69,87
983,219;70,25
983,43;70,2
983,64;70,6
983,85;70,9
984,06;70,7
984,27;70,85
984,48;71,09
984,69;71,24
984,9;71,11
985,11;71,23
985,32;71,28
985,529;71,17
985,739;70,86
985,949;71,11
986,159;71,08
986,369;71,12
986,579;71,01
986,788;70,92
986,998;71,05
987,208;70,66
987,417;70,84
987,627;70,69
987,837;70,63
988,046;70,38
988,256;70,12
988,466;70,02
988,675;69,57
988,885;69,47
989,094;69,15
989,304;69,19
989,513;69,17
989,723;69,12
989,932;69,27
990,142;69,48
990,351;69,07
990,56;69,02
990,77;68,7
990,979;68,89
991,188;68,51
991,398;68,21
991,607;68,59
991,816;68,42
992,025;68,33
992,235;68,51
992,444;68,54
992,653;68,37
992,862;68,79
993,071;68,82
993,28;68,67
993,489;69,08
993,698;69,33
993,908;69,36
994,117;69,5
994,326;69,6
994,534;69,62
994,743;70,2
994,952;70,14
995,161;70,54
995,37;70,93
995,579;71,29
995,788;71,38
995,997;71,11
996,205;71,2
996,414;71,17
996,623;71,12
996,832;71,05
997,04;71,07
997,249;70,88
997,458;70,93
997,666;71,13
997,875;71,23
998,084;71,24
998,292;71,31
998,501;71,49
998,709;71,33
998,918;71,63
999,126;71,41
999,335;72,23
999,543;72,23
999,752;72,15
999,96;72,44
1000,169;72,67
1000,377;72,96
1000,585;73,53
1000,794;73,78
1001,002;74,19
1001,21;74,61
1001,418;74,92
1001,627;75,01
1001,835;75,59
1002,043;75,91
1002,251;75,59
1002,459;75,84
1002,668;75,56
1002,876;75,08
1003,084;75,43
1003,292;75,19
1003,5;75,47
1003,708;75,03
1003,916;75,07
1004,124;75,07
1004,332;75,17
1004,54;75,44
1004,748;75,36
1004,956;74,74
1005,163;74,62
1005,371;74,84
1005,579;74,34
1005,787;74,13
1005,995;74,48
1006,202;73,97
1006,41;73,6
1006,618;73,74
1006,826;73,53
1007,033;73,7
1007,241;74,2
1007,449;74,17
1007,656;74,36
1007,864;74,05
1008,071;74,28
1008,279;74,46
1008,486;74,63
1008,694;74,05
1008,901;73,78
1009,109;74,12
1009,316;74,93
1009,524;75,42
1009,731;74,88
1009,938;75,09
1010,146;74,88
1010,353;75,07
1010,56;75,52
1010,768;75,81
1010,975;76,16
1011,182;76,18
1011,389;76,18
1011,597;75,7
1011,804;75,98
1012,011;76,09
1012,218;76,58
1012,425;76,1
1012,632;76,09
1012,839;75,99
1013,046;75,77
1013,253;76,34
1013,46;75,98
1013,667;75,25
1013,874;74,63
1014,081;75
1014,288;75,28
1014,495;76,15
1014,702;75,16
1014,909;75,73
1015,116;75,31
1015,323;75,36
1015,529;75,84
1015,736;75,59
1015,943;76,3
1016,15;75,72
1016,356;75,67
1016,563;75,53
1016,77;75,22
1016,976;75,46
1017,183;75,65
1017,389;75,51
1017,596;74,85
1017,803;75,27
1018,009;75,51
1018,216;75,81
1018,422;76,05
1018,629;75,94
1018,835;75,91
1019,041;76,45
1019,248;75,65
1019,454;76,39
1019,661;76,62
1019,867;75,94
1020,073;76,74
1020,279;76,29
1020,486;76,81
1020,692;76,59
1020,898;76,13
1021,104;76,9
1021,311;76,85
1021,517;75,88
1021,723;76,98
1021,929;77,11
1022,135;77,57
1022,341;78,09
1022,547;78,99
1022,753;78,4
1022,959;78,87
1023,165;78,93
1023,371;78,3
1023,577;77,93
1023,783;76,53
1023,989;75,83
1024,195;75,35
1024,401;75,64
1024,607;76,85
1024,812;76,92
1025,018;77,21
1025,224;78,08
1025,43;77,79
1025,635;78,76
1025,841;79,73
1026,047;79,37
1026,252;79,45
1026,458;78,86
1026,664;78,75
1026,869;77,98
1027,075;78,71
1027,28;78,45
1027,486;77,74
1027,691;79
1027,897;79,3
1028,102;81,08
1028,308;80,8
1028,513;81,86
1028,719;82,04
1028,924;80,85
1029,129;80,87
1029,335;81
1029,54;80,6
1029,745;80,07
1029,95;79,2
1030,156;78,95
1030,361;79,3
1030,566;80,19
1030,771;80,1
1030,976;80,34
1031,182;79,59
1031,387;79,45
1031,592;79,7
1031,797;80,89
1032,002;79,71
1032,207;80,28
1032,412;79,5
1032,617;81,28
1032,822;81,47
1033,027;81,48
1033,232;81,05
1033,437;80,98
1033,642;82,03
1033,846;82,47
1034,051;82,54
1034,256;82,19
1034,461;81,81
1034,666;81,63
1034,87;81,75
1035,075;81,51
1035,28;81,22
1035,484;81,37
1035,689;81,13
1035,894;80,95
1036,098;79,66
1036,303;81,29
1036,507;80,91
1036,712;81,07
1036,917;80,74
1037,121;79,94
1037,325;78,86
1037,53;80,02
1037,734;80,11
1037,939;80,43
1038,143;78,89
1038,348;79,26
1038,552;79,24
1038,756;79,76
1038,961;79,59
1039,165;78,74
1039,369;79,42
1039,573;78,27
1039,778;78,9
1039,982;79,69
1040,186;80,79
1040,39;81,62
1040,594;80,77
1040,798;79,9
1041,002;78,86
1041,206;77,78
1041,41;78,78
1041,614;79,47
1041,818;79,54
1042,022;78,69
1042,226;77,87
1042,43;79,5
1042,634;80,29
1042,838;80,98
1043,042;82,11
1043,246;81,09
1043,45;80,54
1043,653;80,22
1043,857;81,21
1044,061;80,11
1044,265;79,43
1044,468;78,22
1044,672;78,72
1044,876;79,43
1045,079;80,16
1045,283;81,39
1045,487;80,73
1045,69;81,06
1045,894;79,25
1046,097;79,58
1046,301;79,81
1046,504;78,82
1046,708;78,89
1046,911;79,42
1047,115;79,33
1047,318;80,3
1047,522;82,5
1047,725;83,1
1047,928;82,27
1048,132;82,76
1048,335;84,9
1048,538;85,4
1048,741;85,83
1048,945;85,32
1049,148;84,09
1049,351;84,53
1049,554;83,86
1049,757;86,07
1049,96;86,39
1050,163;87,59
1050,367;86,2
1050,57;87,36
1050,773;88,12
1050,976;87,87
1051,179;88,59
1051,382;89,69
1051,585;89,73
1051,787;88,75
1051,99;88,35
1052,193;88,51
1052,396;90,74
1052,599;88,55
1052,802;85,93
1053,005;83,28
1053,207;86,25
1053,41;85,46
1053,613;85,93
1053,815;86,07
1054,018;82,61
1054,221;81,8
1054,423;82,89
1054,626;83,35
1054,829;82,24
1055,031;81,3
1055,234;80,85
1055,436;78,17
1055,639;76,09
1055,841;72,4
1056,044;73,28
1056,246;73,17
