3997,70175;1,91644
3995,6506;1,91657
3993,59944;1,91673
3991,54829;1,91698
3989,49713;1,91713
3987,44598;1,91618
3985,39482;1,91585
3983,34367;1,91718
3981,29251;1,91781
3979,24136;1,91714
3977,1902;1,91648
3975,13905;1,91694
3973,08789;1,91865
3971,03673;1,92093
3968,98558;1,92332
3966,93442;1,9255
3964,88327;1,9269
3962,83211;1,92798
3960,78096;1,92996
3958,7298;1,93226
3956,67865;1,934
3954,62749;1,93599
3952,57634;1,93886
3950,52518;1,94068
3948,47403;1,93965
3946,42287;1,93794
3944,37172;1,93598
3942,32056;1,93342
3940,2694;1,93171
3938,21825;1,93085
3936,16709;1,93106
3934,11594;1,93035
3932,06478;1,92709
3930,01363;1,92272
3927,96247;1,91832
3925,91132;1,91366
3923,86016;1,9105
3921,80901;1,90799
3919,75785;1,90297
3917,7067;1,8967
3915,65554;1,89221
3913,60439;1,88858
3911,55323;1,88418
3909,50207;1,88166
3907,45092;1,88133
3905,39976;1,88034
3903,34861;1,87886
3901,29745;1,87573
3899,2463;1,87029
3897,19514;1,86838
3895,14399;1,86894
3893,09283;1,86595
3891,04168;1,86208
3888,99052;1,86299
3886,93937;1,86279
3884,88821;1,86291
3882,83706;1,86415
3880,7859;1,8619
3878,73474;1,86277
3876,68359;1,86407
3874,63243;1,86216
3872,58128;1,86151
3870,53012;1,85906
3868,47897;1,85912
3866,42781;1,86029
3864,37666;1,85807
3862,3255;1,85548
3860,27435;1,85398
3858,22319;1,85422
3856,17204;1,85164
3854,12088;1,84584
3852,06973;1,84779
3850,01857;1,85279
3847,96741;1,85251
3845,91626;1,8496
3843,8651;1,84877
3841,81395;1,85172
3839,76279;1,85311
3837,71164;1,85211
3835,66048;1,8521
3833,60933;1,85008
3831,55817;1,84701
3829,50702;1,84688
3827,45586;1,84739
3825,40471;1,84951
3823,35355;1,85015
3821,3024;1,84926
3819,25124;1,8535
3817,20008;1,85154
3815,14893;1,84755
3813,09777;1,85088
3811,04662;1,85455
3808,99546;1,85454
3806,94431;1,85479
3804,89315;1,85986
3802,842;1,85894
3800,79084;1,85674
3798,73969;1,86097
3796,68853;1,86204
3794,63738;1,86177
3792,58622;1,86209
3790,53506;1,86248
3788,48391;1,86384
3786,43275;1,86542
3784,3816;1,86809
3782,33044;1,87118
3780,27929;1,87083
3778,22813;1,87122
3776,17698;1,87443
3774,12582;1,87726
3772,07467;1,87835
3770,02351;1,87919
3767,97236;1,88268
3765,9212;1,88509
3763,87005;1,88739
3761,81889;1,88895
3759,76773;1,88866
3757,71658;1,89154
3755,66542;1,89796
3753,61427;1,9008
3751,56311;1,89887
3749,51196;1,90201
3747,4608;1,90832
3745,40965;1,90475
3743,35849;1,90611
3741,30734;1,9197
3739,25618;1,92968
3737,20503;1,93231
3735,15387;1,93323
3733,10272;1,93571
3731,05156;1,93955
3729,0004;1,94467
3726,94925;1,9492
3724,89809;1,9551
3722,84694;1,96062
3720,79578;1,96475
3718,74463;1,96857
3716,69347;1,97343
3714,64232;1,97936
3712,59116;1,98603
3710,54001;1,99474
3708,48885;2,00402
3706,4377;2,01367
3704,38654;2,02624
3702,33539;2,04507
3700,28423;2,07171
3698,23307;2,09856
3696,18192;2,11952
3694,13076;2,13335
3692,07961;2,13642
3690,02845;2,13084
3687,9773;2,12883
3685,92614;2,13754
3683,87499;2,14981
3681,82383;2,16082
3679,77268;2,17054
3677,72152;2,18155
3675,67037;2,20082
3673,61921;2,23113
3671,56806;2,25322
3669,5169;2,27004
3667,46574;2,29297
3665,41459;2,31299
3663,36343;2,32804
3661,31228;2,34371
3659,26112;2,3634
3657,20997;2,38764
3655,15881;2,41613
3653,10766;2,44056
3651,0565;2,46465
3649,00535;2,50247
3646,95419;2,53701
3644,90304;2,5552
3642,85188;2,56575
3640,80073;2,57426
3638,74957;2,5816
3636,69841;2,59003
3634,64726;2,6009
3632,5961;2,61608
3630,54495;2,63332
3628,49379;2,65175
3626,44264;2,66846
3624,39148;2,67854
3622,34033;2,68743
3620,28917;2,69939
3618,23802;2,71394
3616,18686;2,72411
3614,13571;2,72898
3612,08455;2,74131
3610,0334;2,75936
3607,98224;2,76907
3605,93108;2,7716
3603,87993;2,77415
3601,82877;2,77798
3599,77762;2,78421
3597,72646;2,79519
3595,67531;2,80774
3593,62415;2,81971
3591,573;2,83367
3589,52184;2,84549
3587,47069;2,84571
3585,41953;2,84036
3583,36838;2,84568
3581,31722;2,85893
3579,26607;2,87239
3577,21491;2,8901
3575,16375;2,90802
3573,1126;2,91263
3571,06144;2,90591
3569,01029;2,89881
3566,95913;2,90277
3564,90798;2,92295
3562,85682;2,94211
3560,80567;2,94221
3558,75451;2,9324
3556,70336;2,93426
3554,6522;2,95085
3552,60105;2,97152
3550,54989;2,97827
3548,49874;2,96332
3546,44758;2,94578
3544,39642;2,93844
3542,34527;2,93716
3540,29411;2,93698
3538,24296;2,93332
3536,1918;2,93114
3534,14065;2,93708
3532,08949;2,94708
3530,03834;2,95546
3527,98718;2,95851
3525,93603;2,95843
3523,88487;2,96164
3521,83372;2,96177
3519,78256;2,95387
3517,73141;2,95342
3515,68025;2,96572
3513,62909;2,97538
3511,57794;2,97387
3509,52678;2,96883
3507,47563;2,96363
3505,42447;2,9558
3503,37332;2,95271
3501,32216;2,96223
3499,27101;2,97911
3497,21985;2,99476
3495,1687;2,99817
3493,11754;2,98643
3491,06639;2,98082
3489,01523;2,99563
3486,96407;3,00782
3484,91292;2,9994
3482,86176;2,98992
3480,81061;2,99046
3478,75945;2,98941
3476,7083;2,98185
3474,65714;2,96899
3472,60599;2,96338
3470,55483;2,9778
3468,50368;2,98848
3466,45252;2,97808
3464,40137;2,9676
3462,35021;2,96769
3460,29906;2,97237
3458,2479;2,97486
3456,19674;2,97524
3454,14559;2,97552
3452,09443;2,97926
3450,04328;2,98253
3447,99212;2,9679
3445,94097;2,94923
3443,88981;2,95121
3441,83866;2,9642
3439,7875;2,97642
3437,73635;2,98707
3435,68519;2,99238
3433,63404;2,99301
3431,58288;2,99152
3429,53173;2,98166
3427,48057;2,96462
3425,42941;2,95354
3423,37826;2,95163
3421,3271;2,95514
3419,27595;2,96369
3417,22479;2,96813
3415,17364;2,95723
3413,12248;2,94578
3411,07133;2,95008
3409,02017;2,95603
3406,96902;2,95579
3404,91786;2,95658
3402,86671;2,95334
3400,81555;2,93852
3398,7644;2,93113
3396,71324;2,94445
3394,66208;2,95461
3392,61093;2,95235
3390,55977;2,95946
3388,50862;2,9571
3386,45746;2,93151
3384,40631;2,92519
3382,35515;2,94462
3380,304;2,95596
3378,25284;2,96206
3376,20169;2,96767
3374,15053;2,95621
3372,09938;2,93852
3370,04822;2,93681
3367,99707;2,94796
3365,94591;2,95564
3363,89475;2,95084
3361,8436;2,94485
3359,79244;2,94835
3357,74129;2,95021
3355,69013;2,93697
3353,63898;2,92102
3351,58782;2,92084
3349,53667;2,93426
3347,48551;2,94409
3345,43436;2,93687
3343,3832;2,92444
3341,33205;2,92551
3339,28089;2,93584
3337,22974;2,93907
3335,17858;2,93487
3333,12742;2,93409
3331,07627;2,93889
3329,02511;2,94411
3326,97396;2,94334
3324,9228;2,93902
3322,87165;2,93522
3320,82049;2,93068
3318,76934;2,93088
3316,71818;2,93497
3314,66703;2,93133
3312,61587;2,92146
3310,56472;2,92304
3308,51356;2,94596
3306,46241;2,96959
3304,41125;2,97342
3302,36009;2,97391
3300,30894;2,97598
3298,25778;2,96278
3296,20663;2,94089
3294,15547;2,92896
3292,10432;2,93015
3290,05316;2,93642
3288,00201;2,94007
3285,95085;2,94085
3283,8997;2,94502
3281,84854;2,95055
3279,79739;2,95139
3277,74623;2,94449
3275,69508;2,93278
3273,64392;2,92979
3271,59276;2,93538
3269,54161;2,93602
3267,49045;2,93767
3265,4393;2,93997
3263,38814;2,92787
3261,33699;2,91637
3259,28583;2,91897
3257,23468;2,92108
3255,18352;2,91473
3253,13237;2,91376
3251,08121;2,92534
3249,03006;2,941
3246,9789;2,95131
3244,92775;2,94458
3242,87659;2,92737
3240,82543;2,92551
3238,77428;2,93903
3236,72312;2,94367
3234,67197;2,92824
3232,62081;2,90595
3230,56966;2,89294
3228,5185;2,89193
3226,46735;2,90176
3224,41619;2,91188
3222,36504;2,90648
3220,31388;2,89954
3218,26273;2,91084
3216,21157;2,92471
3214,16041;2,92434
3212,10926;2,9205
3210,0581;2,92196
3208,00695;2,92286
3205,95579;2,92062
3203,90464;2,92111
3201,85348;2,92135
3199,80233;2,91423
3197,75117;2,90148
3195,70002;2,88875
3193,64886;2,88384
3191,59771;2,89194
3189,54655;2,9029
3187,4954;2,90594
3185,44424;2,90695
3183,39308;2,91461
3181,34193;2,92549
3179,29077;2,927
3177,23962;2,91534
3175,18846;2,90288
3173,13731;2,89953
3171,08615;2,89905
3169,035;2,89264
3166,98384;2,88258
3164,93269;2,87033
3162,88153;2,86281
3160,83038;2,86922
3158,77922;2,87974
3156,72807;2,88062
3154,67691;2,87333
3152,62575;2,86878
3150,5746;2,86713
3148,52344;2,86583
3146,47229;2,8772
3144,42113;2,90153
3142,36998;2,91433
3140,31882;2,90448
3138,26767;2,8827
3136,21651;2,85727
3134,16536;2,84394
3132,1142;2,85586
3130,06305;2,87134
3128,01189;2,86876
3125,96074;2,86367
3123,90958;2,86406
3121,85842;2,86412
3119,80727;2,86924
3117,75611;2,87577
3115,70496;2,87435
3113,6538;2,87341
3111,60265;2,881
3109,55149;2,88483
3107,50034;2,86925
3105,44918;2,84659
3103,39803;2,83516
3101,34687;2,83263
3099,29572;2,83774
3097,24456;2,84546
3095,19341;2,84405
3093,14225;2,83406
3091,09109;2,82111
3089,03994;2,81443
3086,98878;2,81894
3084,93763;2,82365
3082,88647;2,81652
3080,83532;2,80713
3078,78416;2,80686
3076,73301;2,80962
3074,68185;2,80865
3072,6307;2,80199
3070,57954;2,79453
3068,52839;2,79204
3066,47723;2,7904
3064,42608;2,79155
3062,37492;2,79795
3060,32376;2,79784
3058,27261;2,79016
3056,22145;2,78728
3054,1703;2,78712
3052,11914;2,78532
3050,06799;2,78379
3048,01683;2,77854
3045,96568;2,77209
3043,91452;2,77256
3041,86337;2,77637
3039,81221;2,77399
3037,76106;2,76343
3035,7099;2,75563
3033,65875;2,75855
3031,60759;2,76596
3029,55643;2,76998
3027,50528;2,76599
3025,45412;2,75517
3023,40297;2,74598
3021,35181;2,74245
3019,30066;2,74475
3017,2495;2,74782
3015,19835;2,74553
3013,14719;2,74222
3011,09604;2,7449
3009,04488;2,75401
3006,99373;2,75798
3004,94257;2,75112
3002,89142;2,7494
3000,84026;2,75662
2998,7891;2,75696
2996,73795;2,74723
2994,68679;2,74305
2992,63564;2,75169
2990,58448;2,76454
2988,53333;2,77322
2986,48217;2,77585
2984,43102;2,77595
2982,37986;2,77879
2980,32871;2,78043
2978,27755;2,77779
2976,2264;2,7756
2974,17524;2,77902
2972,12409;2,78618
2970,07293;2,79419
2968,02177;2,80104
2965,97062;2,80392
2963,91946;2,80729
2961,86831;2,81263
2959,81715;2,81596
2957,766;2,81775
2955,71484;2,82104
2953,66369;2,82096
2951,61253;2,81775
2949,56138;2,82879
2947,51022;2,85312
2945,45907;2,86157
2943,40791;2,84416
2941,35675;2,82778
2939,3056;2,83161
2937,25444;2,84297
2935,20329;2,84945
2933,15213;2,85149
2931,10098;2,84738
2929,04982;2,83943
2926,99867;2,8308
2924,94751;2,82474
2922,89636;2,82507
2920,8452;2,8237
2918,79405;2,81813
2916,74289;2,81614
2914,69174;2,81792
2912,64058;2,81912
2910,58942;2,81236
2908,53827;2,80417
2906,48711;2,81173
2904,43596;2,82809
2902,3848;2,83082
2900,33365;2,81991
2898,28249;2,81064
2896,23134;2,81084
2894,18018;2,82028
2892,12903;2,8249
2890,07787;2,81482
2888,02672;2,80591
2885,97556;2,80614
2883,92441;2,80663
2881,87325;2,80624
2879,82209;2,8054
2877,77094;2,80251
2875,71978;2,7992
2873,66863;2,79762
2871,61747;2,7974
2869,56632;2,79046
2867,51516;2,7799
2865,46401;2,77559
2863,41285;2,77328
2861,3617;2,76806
2859,31054;2,76084
2857,25939;2,75451
2855,20823;2,75131
2853,15708;2,74629
2851,10592;2,74047
2849,05476;2,74349
2847,00361;2,74812
2844,95245;2,74139
2842,9013;2,72837
2840,85014;2,71644
2838,79899;2,70754
2836,74783;2,70383
2834,69668;2,70291
2832,64552;2,69815
2830,59437;2,68916
2828,54321;2,68371
2826,49206;2,68336
2824,4409;2,68038
2822,38975;2,67564
2820,33859;2,67115
2818,28743;2,66042
2816,23628;2,64607
2814,18512;2,6376
2812,13397;2,63628
2810,08281;2,63438
2808,03166;2,63034
2805,9805;2,62958
2803,92935;2,62716
2801,87819;2,61768
2799,82704;2,6116
2797,77588;2,61441
2795,72473;2,61785
2793,67357;2,61606
2791,62242;2,61277
2789,57126;2,61014
2787,5201;2,60384
2785,46895;2,59598
2783,41779;2,59068
2781,36664;2,58334
2779,31548;2,57428
2777,26433;2,57413
2775,21317;2,58146
2773,16202;2,58232
2771,11086;2,57311
2769,05971;2,56384
2767,00855;2,56343
2764,9574;2,56651
2762,90624;2,56429
2760,85509;2,55878
2758,80393;2,5556
2756,75277;2,55528
2754,70162;2,5557
2752,65046;2,55513
2750,59931;2,55112
2748,54815;2,54581
2746,497;2,54531
2744,44584;2,54934
2742,39469;2,55191
2740,34353;2,54905
2738,29238;2,54236
2736,24122;2,53579
2734,19007;2,53005
2732,13891;2,52586
2730,08776;2,52535
2728,0366;2,52804
2725,98544;2,53137
2723,93429;2,53212
2721,88313;2,52934
2719,83198;2,52439
2717,78082;2,51861
2715,72967;2,51515
2713,67851;2,51723
2711,62736;2,51975
2709,5762;2,51595
2707,52505;2,5108
2705,47389;2,50874
2703,42274;2,50752
2701,37158;2,50768
2699,32043;2,50852
2697,26927;2,50696
2695,21811;2,50255
2693,16696;2,49643
2691,1158;2,49103
2689,06465;2,48702
2687,01349;2,48326
2684,96234;2,48215
2682,91118;2,48529
2680,86003;2,49031
2678,80887;2,49313
2676,75772;2,48943
2674,70656;2,48266
2672,65541;2,4797
2670,60425;2,48037
2668,55309;2,47962
2666,50194;2,47517
2664,45078;2,46931
2662,39963;2,46399
2660,34847;2,46031
2658,29732;2,45693
2656,24616;2,45228
2654,19501;2,44937
2652,14385;2,44921
2650,0927;2,44966
2648,04154;2,45031
2645,99039;2,45021
2643,93923;2,44871
2641,88808;2,44797
2639,83692;2,45006
2637,78576;2,45395
2635,73461;2,45779
2633,68345;2,46045
2631,6323;2,46209
2629,58114;2,46465
2627,52999;2,46725
2625,47883;2,46949
2623,42768;2,47281
2621,37652;2,47497
2619,32537;2,47579
2617,27421;2,4768
2615,22306;2,47692
2613,1719;2,47758
2611,12075;2,4821
2609,06959;2,48982
2607,01843;2,49508
2604,96728;2,49367
2602,91612;2,48875
2600,86497;2,4863
2598,81381;2,48799
2596,76266;2,49113
2594,7115;2,49253
2592,66035;2,49126
2590,60919;2,48997
2588,55804;2,49056
2586,50688;2,4912
2584,45573;2,49141
2582,40457;2,49184
2580,35342;2,49233
2578,30226;2,49338
2576,2511;2,49262
2574,19995;2,48861
2572,14879;2,48834
2570,09764;2,49272
2568,04648;2,49252
2565,99533;2,48717
2563,94417;2,48357
2561,89302;2,48404
2559,84186;2,48842
2557,79071;2,49439
2555,73955;2,49707
2553,6884;2,49739
2551,63724;2,49828
2549,58609;2,49973
2547,53493;2,49814
2545,48377;2,4921
2543,43262;2,49107
2541,38146;2,49807
2539,33031;2,50491
2537,27915;2,50832
2535,228;2,51037
2533,17684;2,51509
2531,12569;2,52519
2529,07453;2,53692
2527,02338;2,54442
2524,97222;2,54695
2522,92107;2,54617
2520,86991;2,54395
2518,81876;2,54336
2516,7676;2,5453
2514,71644;2,5503
2512,66529;2,55521
2510,61413;2,55343
2508,56298;2,5472
2506,51182;2,54055
2504,46067;2,53477
2502,40951;2,53011
2500,35836;2,5244
2498,3072;2,51979
2496,25605;2,51582
2494,20489;2,50734
2492,15374;2,49448
2490,10258;2,48125
2488,05143;2,47002
2486,00027;2,45947
2483,94911;2,44781
2481,89796;2,43652
2479,8468;2,42785
2477,79565;2,42015
2475,74449;2,41101
2473,69334;2,40093
2471,64218;2,39196
2469,59103;2,38382
2467,53987;2,3746
2465,48872;2,36566
2463,43756;2,36065
2461,38641;2,35811
2459,33525;2,35319
2457,2841;2,34639
2455,23294;2,34056
2453,18178;2,33677
2451,13063;2,33387
2449,07947;2,33047
2447,02832;2,32733
2444,97716;2,32397
2442,92601;2,32028
2440,87485;2,31692
2438,8237;2,31319
2436,77254;2,3096
2434,72139;2,30653
2432,67023;2,3037
2430,61908;2,29992
2428,56792;2,29417
2426,51677;2,2889
2424,46561;2,2852
2422,41445;2,28271
2420,3633;2,28143
2418,31214;2,27897
2416,26099;2,27532
2414,20983;2,27262
2412,15868;2,27043
2410,10752;2,26862
2408,05637;2,26661
2406,00521;2,26295
2403,95406;2,25943
2401,9029;2,25816
2399,85175;2,2585
2397,80059;2,2587
2395,74944;2,2586
2393,69828;2,25885
2391,64712;2,25832
2389,59597;2,2567
2387,54481;2,25545
2385,49366;2,25498
2383,4425;2,25524
2381,39135;2,25669
2379,34019;2,25877
2377,28904;2,26037
2375,23788;2,26169
2373,18673;2,26298
2371,13557;2,26387
2369,08442;2,26366
2367,03326;2,26251
2364,9821;2,26314
2362,93095;2,26772
2360,87979;2,27252
2358,82864;2,26962
2356,77748;2,25953
2354,72633;2,25173
2352,67517;2,25353
2350,62402;2,26213
2348,57286;2,26833
2346,52171;2,26913
2344,47055;2,26869
2342,4194;2,26891
2340,36824;2,26919
2338,31709;2,27022
2336,26593;2,27122
2334,21477;2,27134
2332,16362;2,27071
2330,11246;2,27005
2328,06131;2,27208
2326,01015;2,27608
2323,959;2,276
2321,90784;2,26976
2319,85669;2,26301
2317,80553;2,26082
2315,75438;2,26294
2313,70322;2,2668
2311,65207;2,26937
2309,60091;2,26926
2307,54976;2,26807
2305,4986;2,26706
2303,44744;2,26578
2301,39629;2,26459
2299,34513;2,26471
2297,29398;2,26562
2295,24282;2,2656
2293,19167;2,26423
2291,14051;2,26345
2289,08936;2,26478
2287,0382;2,26661
2284,98705;2,26766
2282,93589;2,26925
2280,88474;2,27147
2278,83358;2,27243
2276,78243;2,27174
2274,73127;2,27117
2272,68011;2,27204
2270,62896;2,27403
2268,5778;2,27627
2266,52665;2,27813
2264,47549;2,27975
2262,42434;2,28177
2260,37318;2,28359
2258,32203;2,28431
2256,27087;2,28516
2254,21972;2,28762
2252,16856;2,29104
2250,11741;2,29339
2248,06625;2,2946
2246,0151;2,29686
2243,96394;2,30082
2241,91278;2,30399
2239,86163;2,30598
2237,81047;2,30823
2235,75932;2,30984
2233,70816;2,30997
2231,65701;2,31041
2229,60585;2,31268
2227,5547;2,31602
2225,50354;2,3196
2223,45239;2,32128
2221,40123;2,32132
2219,35008;2,32371
2217,29892;2,32729
2215,24777;2,32909
2213,19661;2,33034
2211,14545;2,33225
2209,0943;2,33596
2207,04314;2,34061
2204,99199;2,34184
2202,94083;2,34064
2200,88968;2,34153
2198,83852;2,34398
2196,78737;2,34666
2194,73621;2,34925
2192,68506;2,35095
2190,6339;2,35415
2188,58275;2,35891
2186,53159;2,36097
2184,48044;2,3611
2182,42928;2,36294
2180,37812;2,36657
2178,32697;2,37133
2176,27581;2,37588
2174,22466;2,37701
2172,1735;2,37596
2170,12235;2,37717
2168,07119;2,38187
2166,02004;2,38836
2163,96888;2,39404
2161,91773;2,39885
2159,86657;2,40414
2157,81542;2,41023
2155,76426;2,41678
2153,71311;2,42025
2151,66195;2,42038
2149,61079;2,42359
2147,55964;2,43047
2145,50848;2,43537
2143,45733;2,43612
2141,40617;2,43501
2139,35502;2,4354
2137,30386;2,43589
2135,25271;2,43263
2133,20155;2,42794
2131,1504;2,42569
2129,09924;2,42421
2127,04809;2,42078
2124,99693;2,41679
2122,94578;2,41426
2120,89462;2,41223
2118,84346;2,40958
2116,79231;2,40546
2114,74115;2,40122
2112,69;2,40045
2110,63884;2,4014
2108,58769;2,39955
2106,53653;2,39606
2104,48538;2,39533
2102,43422;2,39687
2100,38307;2,39646
2098,33191;2,39448
2096,28076;2,3941
2094,2296;2,39516
2092,17844;2,39677
2090,12729;2,3984
2088,07613;2,39878
2086,02498;2,39889
2083,97382;2,39948
2081,92267;2,39938
2079,87151;2,39775
2077,82036;2,39576
2075,7692;2,39657
2073,71805;2,39921
2071,66689;2,40069
2069,61574;2,402
2067,56458;2,40438
2065,51343;2,40692
2063,46227;2,40879
2061,41111;2,41058
2059,35996;2,41216
2057,3088;2,41355
2055,25765;2,41715
2053,20649;2,42191
2051,15534;2,42538
2049,10418;2,42836
2047,05303;2,42995
2045,00187;2,43032
2042,95072;2,43264
2040,89956;2,43719
2038,84841;2,44209
2036,79725;2,44618
2034,7461;2,44848
2032,69494;2,44947
2030,64378;2,45209
2028,59263;2,45691
2026,54147;2,4604
2024,49032;2,46016
2022,43916;2,45886
2020,38801;2,46068
2018,33685;2,46486
2016,2857;2,46787
2014,23454;2,46929
2012,18339;2,47063
2010,13223;2,47292
2008,08108;2,47644
2006,02992;2,47981
2003,97877;2,48058
2001,92761;2,47928
1999,87645;2,47955
1997,8253;2,48315
1995,77414;2,48718
1993,72299;2,48785
1991,67183;2,48658
1989,62068;2,48595
1987,56952;2,48526
1985,51837;2,48603
1983,46721;2,48825
1981,41606;2,4903
1979,3649;2,49209
1977,31375;2,4919
1975,26259;2,48774
1973,21144;2,48336
1971,16028;2,48353
1969,10912;2,48652
1967,05797;2,48682
1965,00681;2,48537
1962,95566;2,48654
1960,9045;2,48958
1958,85335;2,48956
1956,80219;2,48348
1954,75104;2,47555
1952,69988;2,47114
1950,64873;2,46902
1948,59757;2,46685
1946,54642;2,46663
1944,49526;2,46959
1942,44411;2,47252
1940,39295;2,47491
1938,34179;2,47642
1936,29064;2,47754
1934,23948;2,47989
1932,18833;2,48211
1930,13717;2,48263
1928,08602;2,48512
1926,03486;2,49171
1923,98371;2,49666
1921,93255;2,50001
1919,8814;2,50445
1917,83024;2,50797
1915,77909;2,51226
1913,72793;2,51754
1911,67678;2,52431
1909,62562;2,53197
1907,57446;2,53945
1905,52331;2,54604
1903,47215;2,5514
1901,421;2,55722
1899,36984;2,5644
1897,31869;2,57066
1895,26753;2,57584
1893,21638;2,58387
1891,16522;2,59373
1889,11407;2,60269
1887,06291;2,60979
1885,01176;2,61335
1882,9606;2,61518
1880,90945;2,61605
1878,85829;2,61539
1876,80713;2,6151
1874,75598;2,61672
1872,70482;2,62025
1870,65367;2,62235
1868,60251;2,62025
1866,55136;2,61676
1864,5002;2,61264
1862,44905;2,60653
1860,39789;2,60007
1858,34674;2,59555
1856,29558;2,59169
1854,24443;2,58716
1852,19327;2,58457
1850,14212;2,58435
1848,09096;2,58375
1846,0398;2,58241
1843,98865;2,58476
1841,93749;2,59338
1839,88634;2,60045
1837,83518;2,60504
1835,78403;2,61339
1833,73287;2,62496
1831,68172;2,63213
1829,63056;2,63569
1827,57941;2,64179
1825,52825;2,64679
1823,4771;2,65166
1821,42594;2,65862
1819,37478;2,66776
1817,32363;2,67779
1815,27247;2,68602
1813,22132;2,69539
1811,17016;2,71073
1809,11901;2,72852
1807,06785;2,74361
1805,0167;2,75809
1802,96554;2,77361
1800,91439;2,78978
1798,86323;2,80368
1796,81208;2,81259
1794,76092;2,82005
1792,70977;2,82665
1790,65861;2,82694
1788,60745;2,81537
1786,5563;2,79534
1784,50514;2,78045
1782,45399;2,77545
1780,40283;2,77119
1778,35168;2,76404
1776,30052;2,75511
1774,24937;2,74591
1772,19821;2,74445
1770,14706;2,75262
1768,0959;2,75774
1766,04475;2,76218
1763,99359;2,76747
1761,94244;2,77048
1759,89128;2,77133
1757,84012;2,76505
1755,78897;2,75892
1753,73781;2,75869
1751,68666;2,75693
1749,6355;2,75751
1747,58435;2,76622
1745,53319;2,77615
1743,48204;2,78165
1741,43088;2,78374
1739,37973;2,78377
1737,32857;2,78156
1735,27742;2,77623
1733,22626;2,78297
1731,17511;2,79768
1729,12395;2,80418
1727,07279;2,8087
1725,02164;2,8111
1722,97048;2,80712
1720,91933;2,79872
1718,86817;2,79152
1716,81702;2,79809
1714,76586;2,8182
1712,71471;2,83883
1710,66355;2,85209
1708,6124;2,85574
1706,56124;2,85436
1704,51009;2,86041
1702,45893;2,87355
1700,40778;2,88887
1698,35662;2,90829
1696,30546;2,91973
1694,25431;2,93374
1692,20315;2,94835
1690,152;2,95308
1688,10084;2,95572
1686,04969;2,961
1683,99853;2,97451
1681,94738;3,00124
1679,89622;3,02706
1677,84507;3,03907
1675,79391;3,03565
1673,74276;3,03674
1671,6916;3,0422
1669,64045;3,03935
1667,58929;3,0398
1665,53813;3,04801
1663,48698;3,05357
1661,43582;3,05503
1659,38467;3,05751
1657,33351;3,06048
1655,28236;3,05427
1653,2312;3,04372
1651,18005;3,05136
1649,12889;3,06013
1647,07774;3,0651
1645,02658;3,07949
1642,97543;3,09095
1640,92427;3,0932
1638,87312;3,09271
1636,82196;3,08797
1634,7708;3,08676
1632,71965;3,09164
1630,66849;3,08446
1628,61734;3,07474
1626,56618;3,08597
1624,51503;3,10303
1622,46387;3,10338
1620,41272;3,09337
1618,36156;3,0822
1616,31041;3,08181
1614,25925;3,09135
1612,2081;3,09514
1610,15694;3,09406
1608,10579;3,09003
1606,05463;3,08218
1604,00347;3,07641
1601,95232;3,07643
1599,90116;3,07516
1597,85001;3,06738
1595,79885;3,05777
1593,7477;3,0487
1591,69654;3,03405
1589,64539;3,00923
1587,59423;2,9815
1585,54308;2,95788
1583,49192;2,94015
1581,44077;2,93461
1579,38961;2,93854
1577,33846;2,9272
1575,2873;2,89471
1573,23614;2,86844
1571,18499;2,84979
1569,13383;2,83249
1567,08268;2,81834
1565,03152;2,80528
1562,98037;2,78997
1560,92921;2,75443
1558,87806;2,70546
1556,8269;2,68708
1554,77575;2,68106
1552,72459;2,66885
1550,67344;2,65374
1548,62228;2,64099
1546,57113;2,6312
1544,51997;2,62576
1542,46881;2,63096
1540,41766;2,64052
1538,3665;2,6467
1536,31535;2,64561
1534,26419;2,63776
1532,21304;2,63821
1530,16188;2,64649
1528,11073;2,65092
1526,05957;2,65234
1524,00842;2,65049
1521,95726;2,64548
1519,90611;2,64884
1517,85495;2,65418
1515,80379;2,65723
1513,75264;2,66339
1511,70148;2,67095
1509,65033;2,67185
1507,59917;2,65957
1505,54802;2,65616
1503,49686;2,66646
1501,44571;2,67195
1499,39455;2,67754
1497,3434;2,69044
1495,29224;2,7055
1493,24109;2,71454
1491,18993;2,71593
1489,13878;2,72177
1487,08762;2,73472
1485,03646;2,74512
1482,98531;2,75067
1480,93415;2,75623
1478,883;2,7645
1476,83184;2,77385
1474,78069;2,78496
1472,72953;2,7966
1470,67838;2,80766
1468,62722;2,81509
1466,57607;2,81956
1464,52491;2,82778
1462,47376;2,83925
1460,4226;2,84576
1458,37145;2,84607
1456,32029;2,84758
1454,26913;2,85401
1452,21798;2,85879
1450,16682;2,85754
1448,11567;2,85418
1446,06451;2,85748
1444,01336;2,86309
1441,9622;2,86549
1439,91105;2,86967
1437,85989;2,87497
1435,80874;2,87707
1433,75758;2,87227
1431,70643;2,86229
1429,65527;2,85479
1427,60412;2,85223
1425,55296;2,84888
1423,5018;2,8422
1421,45065;2,8345
1419,39949;2,8274
1417,34834;2,81984
1415,29718;2,80245
1413,24603;2,77848
1411,19487;2,75924
1409,14372;2,74939
1407,09256;2,74714
1405,04141;2,74975
1402,99025;2,75663
1400,9391;2,76474
1398,88794;2,7727
1396,83679;2,77963
1394,78563;2,78523
1392,73447;2,79506
1390,68332;2,80883
1388,63216;2,82356
1386,58101;2,83708
1384,52985;2,84611
1382,4787;2,8523
1380,42754;2,8609
1378,37639;2,87382
1376,32523;2,88796
1374,27408;2,89703
1372,22292;2,89842
1370,17177;2,89451
1368,12061;2,89286
1366,06946;2,89465
1364,0183;2,89426
1361,96714;2,89702
1359,91599;2,90528
1357,86483;2,909
1355,81368;2,91054
1353,76252;2,92111
1351,71137;2,93465
1349,66021;2,93536
1347,60906;2,92506
1345,5579;2,91667
1343,50675;2,91522
1341,45559;2,91789
1339,40444;2,91745
1337,35328;2,90731
1335,30213;2,89434
1333,25097;2,89133
1331,19981;2,89993
1329,14866;2,90897
1327,0975;2,90941
1325,04635;2,90592
1322,99519;2,90366
1320,94404;2,90084
1318,89288;2,89868
1316,84173;2,89873
1314,79057;2,89809
1312,73942;2,89555
1310,68826;2,88998
1308,63711;2,87877
1306,58595;2,86428
1304,5348;2,85309
1302,48364;2,84809
1300,43248;2,84494
1298,38133;2,83811
1296,33017;2,82874
1294,27902;2,82056
1292,22786;2,81265
1290,17671;2,80159
1288,12555;2,78628
1286,0744;2,77055
1284,02324;2,75936
1281,97209;2,75463
1279,92093;2,75541
1277,86978;2,7578
1275,81862;2,75805
1273,76747;2,75395
1271,71631;2,74775
1269,66515;2,74817
1267,614;2,75354
1265,56284;2,74986
1263,51169;2,73664
1261,46053;2,72581
1259,40938;2,723
1257,35822;2,72549
1255,30707;2,73063
1253,25591;2,73862
1251,20476;2,74382
1249,1536;2,74154
1247,10245;2,74128
1245,05129;2,75064
1243,00013;2,76041
1240,94898;2,7649
1238,89782;2,7719
1236,84667;2,78056
1234,79551;2,78333
1232,74436;2,77888
1230,6932;2,77021
1228,64205;2,76955
1226,59089;2,77895
1224,53974;2,78097
1222,48858;2,7744
1220,43743;2,77171
1218,38627;2,76961
1216,33512;2,76532
1214,28396;2,76317
1212,2328;2,75624
1210,18165;2,73974
1208,13049;2,72911
1206,07934;2,7296
1204,02818;2,72097
1201,97703;2,70148
1199,92587;2,69034
1197,87472;2,68626
1195,82356;2,67598
1193,77241;2,66046
1191,72125;2,64438
1189,6701;2,62592
1187,61894;2,60417
1185,56779;2,5847
1183,51663;2,56761
1181,46547;2,54516
1179,41432;2,5163
1177,36316;2,48795
1175,31201;2,46594
1173,26085;2,45099
1171,2097;2,44222
1169,15854;2,43616
1167,10739;2,43008
1165,05623;2,42911
1163,00508;2,44377
1160,95392;2,48134
1158,90277;2,5367
1156,85161;2,59978
1154,80046;2,65989
1152,7493;2,69658
1150,69814;2,69773
1148,64699;2,67972
1146,59583;2,65804
1144,54468;2,62711
1142,49352;2,58631
1140,44237;2,54238
1138,39121;2,49963
1136,34006;2,4635
1134,2889;2,4334
1132,23775;2,40529
1130,18659;2,38121
1128,13544;2,36091
1126,08428;2,34069
1124,03313;2,32324
1121,98197;2,30949
1119,93081;2,29527
1117,87966;2,28173
1115,8285;2,27096
1113,77735;2,26011
1111,72619;2,24981
1109,67504;2,24314
1107,62388;2,23942
1105,57273;2,23672
1103,52157;2,2344
1101,47042;2,23419
1099,41926;2,23705
1097,36811;2,24159
1095,31695;2,24539
1093,2658;2,24751
1091,21464;2,2495
1089,16348;2,24955
1087,11233;2,24425
1085,06117;2,2364
1083,01002;2,23061
1080,95886;2,22767
1078,90771;2,22544
1076,85655;2,22204
1074,8054;2,21904
1072,75424;2,21812
1070,70309;2,21785
1068,65193;2,21798
1066,60078;2,22035
1064,54962;2,22545
1062,49847;2,23325
1060,44731;2,24234
1058,39615;2,25208
1056,345;2,26538
1054,29384;2,28242
1052,24269;2,3033
1050,19153;2,33129
1048,14038;2,36464
1046,08922;2,39913
1044,03807;2,43484
1041,98691;2,46958
1039,93576;2,50332
1037,8846;2,53962
1035,83345;2,57082
1033,78229;2,58935
1031,73114;2,59743
1029,67998;2,59365
1027,62882;2,57445
1025,57767;2,53767
1023,52651;2,48619
1021,47536;2,43818
1019,4242;2,40621
1017,37305;2,38284
1015,32189;2,36068
1013,27074;2,3439
1011,21958;2,33851
1009,16843;2,34166
1007,11727;2,34684
1005,06612;2,35342
1003,01496;2,36396
1000,96381;2,38168
998,91265;2,405
996,86149;2,42506
994,81034;2,43899
992,75918;2,45287
990,70803;2,46809
988,65687;2,48001
986,60572;2,49089
984,55456;2,50599
982,50341;2,52093
980,45225;2,53006
978,4011;2,53408
976,34994;2,53582
974,29879;2,53544
972,24763;2,53539
970,19647;2,54212
968,14532;2,55276
966,09416;2,55939
964,04301;2,56086
961,99185;2,56051
959,9407;2,56463
957,88954;2,57424
955,83839;2,58178
953,78723;2,58469
951,73608;2,5875
949,68492;2,59089
947,63377;2,59387
945,58261;2,59886
943,53146;2,60273
941,4803;2,59978
939,42914;2,59888
937,37799;2,60542
935,32683;2,61024
933,27568;2,61564
931,22452;2,6266
929,17337;2,63348
927,12221;2,63376
925,07106;2,6375
923,0199;2,64234
920,96875;2,64006
918,91759;2,64125
916,86644;2,65479
914,81528;2,66783
912,76413;2,67326
910,71297;2,67761
908,66181;2,67944
906,61066;2,6731
904,5595;2,66117
902,50835;2,65346
900,45719;2,65462
898,40604;2,66121
896,35488;2,67043
894,30373;2,6785
892,25257;2,68035
890,20142;2,67822
888,15026;2,68095
886,09911;2,69414
884,04795;2,70696
881,9968;2,70832
879,94564;2,70773
877,89448;2,70816
875,84333;2,70366
873,79217;2,69628
871,74102;2,69154
869,68986;2,69899
867,63871;2,71666
865,58755;2,72896
863,5364;2,72905
861,48524;2,72306
859,43409;2,72355
857,38293;2,7358
855,33178;2,74994
853,28062;2,75708
851,22947;2,76143
849,17831;2,76578
847,12715;2,77243
845,076;2,78412
843,02484;2,79617
840,97369;2,80382
838,92253;2,80565
836,87138;2,80711
834,82022;2,80996
832,76907;2,81178
830,71791;2,81787
828,66676;2,8343
826,6156;2,85638
824,56445;2,87601
822,51329;2,88903
820,46214;2,88856
818,41098;2,88315
816,35982;2,87965
814,30867;2,87238
812,25751;2,87173
810,20636;2,88583
808,1552;2,89445
806,10405;2,89193
804,05289;2,89733
802,00174;2,90366
799,95058;2,90273
797,89943;2,90565
795,84827;2,90162
793,79712;2,9046
791,74596;2,92916
789,69481;2,94482
787,64365;2,94382
785,59249;2,94328
783,54134;2,93682
781,49018;2,93791
779,43903;2,9455
777,38787;2,93602
775,33672;2,93142
773,28556;2,93856
771,23441;2,94176
769,18325;2,94721
767,1321;2,95701
765,08094;2,98234
763,02979;3,01049
760,97863;3,00776
758,92748;2,97424
756,87632;2,93886
754,82516;2,92118
752,77401;2,91266
750,72285;2,91598
748,6717;2,92961
746,62054;2,93752
744,56939;2,94677
742,51823;2,96625
740,46708;2,98242
738,41592;2,98213
736,36477;2,97612
734,31361;2,97033
732,26246;2,97459
730,2113;2,99497
728,16015;3,00617
726,10899;3,00014
724,05783;3,00167
722,00668;3,03041
719,95552;3,06686
717,90437;3,07434
715,85321;3,06186
713,80206;3,05518
711,7509;3,05871
709,69975;3,06238
707,64859;3,06402
705,59744;3,08374
703,54628;3,11403
701,49513;3,12587
699,44397;3,12991
697,39281;3,13435
695,34166;3,12893
693,2905;3,11151
691,23935;3,08096
689,18819;3,03344
687,13704;2,97871
685,08588;2,93584
683,03473;2,9024
680,98357;2,84622
678,93242;2,75896
676,88126;2,68012
674,83011;2,63078
672,77895;2,59599
670,7278;2,55829
668,67664;2,52819
666,62548;2,53369
664,57433;2,56068
662,52317;2,58447
660,47202;2,6073
658,42086;2,63634
656,36971;2,67029
654,31855;2,70996
652,2674;2,75739
650,21624;2,80053
648,16509;2,81423
646,11393;2,79465
644,06278;2,77877
642,01162;2,79118
639,96047;2,81236
637,90931;2,82028
635,85815;2,82598
633,807;2,84204
631,75584;2,86195
629,70469;2,87554
627,65353;2,87771
625,60238;2,88085
623,55122;2,8957
621,50007;2,88573
619,44891;2,84523
617,39776;2,83102
615,3466;2,86547
613,29545;2,89586
611,24429;2,89463
609,19314;2,89253
607,14198;2,9194
605,09082;2,97391
603,03967;2,99687
600,98851;2,96397
598,93736;2,92233
596,8862;2,89014
594,83505;2,87952
592,78389;2,89614
590,73274;2,93667
588,68158;2,988
586,63043;3,04129
584,57927;3,0635
582,52812;3,04217
580,47696;3,01972
578,42581;3,02397
576,37465;3,07281
574,32349;3,11702
572,27234;3,11639
570,22118;3,09135
568,17003;3,07165
566,11887;3,0473
564,06772;3,02228
562,01656;3,09626
559,96541;3,24216
557,91425;3,262
555,8631;3,17477
553,81194;3,14277
551,76079;3,09612
549,70963;2,99943
547,65848;2,9792
545,60732;3,02156
543,55616;2,97054
541,50501;2,82436
539,45385;2,72729
537,4027;2,72043
535,35154;2,70135
533,30039;2,63599
531,24923;2,60718
529,19808;2,62491
527,14692;2,6145
525,09577;2,55862
523,04461;2,5199
520,99346;2,51674
518,9423;2,52724
516,89115;2,55107
514,83999;2,59271
512,78883;2,63793
510,73768;2,66007
508,68652;2,64099
506,63537;2,61154
504,58421;2,59549
502,53306;2,56827
500,4819;2,51636
498,43075;2,44272
496,37959;2,36216
494,32844;2,30287
492,27728;2,27558
490,22613;2,26646
488,17497;2,2624
486,12382;2,26094
484,07266;2,26338
482,0215;2,26911
479,97035;2,27593
477,91919;2,29458
475,86804;2,33806
473,81688;2,38702
471,76573;2,41679
469,71457;2,43758
467,66342;2,46601
465,61226;2,49794
463,56111;2,51595
461,50995;2,51905
459,4588;2,523
457,40764;2,54194
455,35649;2,56607
453,30533;2,58064
451,25417;2,5874
449,20302;2,5621
447,15186;2,52082
445,10071;2,51553
443,04955;2,54331
440,9984;2,57835
438,94724;2,60992
436,89609;2,62844
434,84493;2,61057
432,79378;2,53757
430,74262;2,45132
428,69147;2,41228
426,64031;2,43442
424,58916;2,51047
422,538;2,59285
420,48684;2,60481
418,43569;2,54924
416,38453;2,48055
414,33338;2,44685
412,28222;2,48812
410,23107;2,57037
408,17991;2,60138
406,12876;2,59361
404,0776;2,61358
402,02645;2,63559
399,97529;2,61151
