3997,70175;1,76389
3995,6506;1,76346
3993,59944;1,76464
3991,54829;1,76706
3989,49713;1,76832
3987,44598;1,76821
3985,39482;1,76788
3983,34367;1,76746
3981,29251;1,76743
3979,24136;1,76893
3977,1902;1,77156
3975,13905;1,77329
3973,08789;1,77358
3971,03673;1,77375
3968,98558;1,7746
3966,93442;1,77601
3964,88327;1,77743
3962,83211;1,77901
3960,78096;1,78171
3958,7298;1,7849
3956,67865;1,78684
3954,62749;1,78748
3952,57634;1,78753
3950,52518;1,78686
3948,47403;1,78587
3946,42287;1,78639
3944,37172;1,78827
3942,32056;1,78875
3940,2694;1,78786
3938,21825;1,78734
3936,16709;1,78748
3934,11594;1,78787
3932,06478;1,78691
3930,01363;1,78394
3927,96247;1,78032
3925,91132;1,77666
3923,86016;1,77317
3921,80901;1,77074
3919,75785;1,76911
3917,7067;1,76677
3915,65554;1,76341
3913,60439;1,75988
3911,55323;1,75633
3909,50207;1,75324
3907,45092;1,75104
3905,39976;1,7482
3903,34861;1,74442
3901,29745;1,74177
3899,2463;1,73973
3897,19514;1,73855
3895,14399;1,74022
3893,09283;1,74191
3891,04168;1,74005
3888,99052;1,73901
3886,93937;1,7405
3884,88821;1,73955
3882,83706;1,73719
3880,7859;1,73529
3878,73474;1,7334
3876,68359;1,73401
3874,63243;1,7357
3872,58128;1,73607
3870,53012;1,73487
3868,47897;1,73346
3866,42781;1,73467
3864,37666;1,73544
3862,3255;1,73293
3860,27435;1,73063
3858,22319;1,73166
3856,17204;1,7355
3854,12088;1,73631
3852,06973;1,73093
3850,01857;1,72705
3847,96741;1,72745
3845,91626;1,72915
3843,8651;1,72987
3841,81395;1,72979
3839,76279;1,72979
3837,71164;1,72879
3835,66048;1,72716
3833,60933;1,72695
3831,55817;1,72839
3829,50702;1,7307
3827,45586;1,73184
3825,40471;1,73105
3823,35355;1,73046
3821,3024;1,72893
3819,25124;1,72741
3817,20008;1,72881
3815,14893;1,72923
3813,09777;1,72856
3811,04662;1,72972
3808,99546;1,7312
3806,94431;1,73042
3804,89315;1,7295
3802,842;1,73024
3800,79084;1,73017
3798,73969;1,73104
3796,68853;1,73357
3794,63738;1,7359
3792,58622;1,73802
3790,53506;1,73919
3788,48391;1,73915
3786,43275;1,73854
3784,3816;1,73762
3782,33044;1,73783
3780,27929;1,73904
3778,22813;1,74007
3776,17698;1,74176
3774,12582;1,74362
3772,07467;1,74419
3770,02351;1,74339
3767,97236;1,74325
3765,9212;1,74464
3763,87005;1,74624
3761,81889;1,7476
3759,76773;1,74738
3757,71658;1,74601
3755,66542;1,74744
3753,61427;1,75119
3751,56311;1,75147
3749,51196;1,74883
3747,4608;1,75211
3745,40965;1,75831
3743,35849;1,75748
3741,30734;1,75404
3739,25618;1,75499
3737,20503;1,75839
3735,15387;1,76079
3733,10272;1,76223
3731,05156;1,7649
3729,0004;1,76905
3726,94925;1,77247
3724,89809;1,77438
3722,84694;1,77678
3720,79578;1,78011
3718,74463;1,78332
3716,69347;1,78573
3714,64232;1,78796
3712,59116;1,79042
3710,54001;1,79312
3708,48885;1,79734
3706,4377;1,80426
3704,38654;1,81497
3702,33539;1,828
3700,28423;1,84062
3698,23307;1,85265
3696,18192;1,86334
3694,13076;1,87085
3692,07961;1,87474
3690,02845;1,87452
3687,9773;1,87083
3685,92614;1,86778
3683,87499;1,86711
3681,82383;1,86759
3679,77268;1,86995
3677,72152;1,87703
3675,67037;1,88646
3673,61921;1,8951
3671,56806;1,90492
3669,5169;1,9131
3667,46574;1,91965
3665,41459;1,92884
3663,36343;1,93919
3661,31228;1,94811
3659,26112;1,95636
3657,20997;1,96368
3655,15881;1,96897
3653,10766;1,97564
3651,0565;1,98521
3649,00535;1,99407
3646,95419;2,00176
3644,90304;2,01063
3642,85188;2,01982
3640,80073;2,02774
3638,74957;2,03386
3636,69841;2,03802
3634,64726;2,04047
3632,5961;2,04405
3630,54495;2,05202
3628,49379;2,06085
3626,44264;2,06655
3624,39148;2,07288
3622,34033;2,07995
3620,28917;2,08379
3618,23802;2,08617
3616,18686;2,09185
3614,13571;2,09704
3612,08455;2,09928
3610,0334;2,10352
3607,98224;2,11109
3605,93108;2,12029
3603,87993;2,1284
3601,82877;2,13113
3599,77762;2,12991
3597,72646;2,12999
3595,67531;2,13259
3593,62415;2,13769
3591,573;2,14565
3589,52184;2,15428
3587,47069;2,16021
3585,41953;2,16323
3583,36838;2,16455
3581,31722;2,165
3579,26607;2,16735
3577,21491;2,17239
3575,16375;2,1775
3573,1126;2,18178
3571,06144;2,18594
3569,01029;2,18984
3566,95913;2,19367
3564,90798;2,19772
3562,85682;2,20153
3560,80567;2,20428
3558,75451;2,20624
3556,70336;2,20838
3554,6522;2,21127
3552,60105;2,21544
3550,54989;2,22067
3548,49874;2,22607
3546,44758;2,23058
3544,39642;2,23367
3542,34527;2,23559
3540,29411;2,23705
3538,24296;2,23952
3536,1918;2,24288
3534,14065;2,24524
3532,08949;2,24757
3530,03834;2,25165
3527,98718;2,256
3525,93603;2,25953
3523,88487;2,26163
3521,83372;2,26097
3519,78256;2,25999
3517,73141;2,26216
3515,68025;2,26567
3513,62909;2,2675
3511,57794;2,2688
3509,52678;2,27171
3507,47563;2,27576
3505,42447;2,27955
3503,37332;2,28374
3501,32216;2,2884
3499,27101;2,29082
3497,21985;2,29136
3495,1687;2,29294
3493,11754;2,29481
3491,06639;2,2962
3489,01523;2,29775
3486,96407;2,29758
3484,91292;2,29632
3482,86176;2,29789
3480,81061;2,3016
3478,75945;2,30368
3476,7083;2,30437
3474,65714;2,30602
3472,60599;2,30743
3470,55483;2,30804
3468,50368;2,31067
3466,45252;2,3131
3464,40137;2,31322
3462,35021;2,31472
3460,29906;2,31685
3458,2479;2,31674
3456,19674;2,31725
3454,14559;2,32067
3452,09443;2,32465
3450,04328;2,32635
3447,99212;2,32636
3445,94097;2,32876
3443,88981;2,33333
3441,83866;2,33446
3439,7875;2,33366
3437,73635;2,33634
3435,68519;2,34041
3433,63404;2,34187
3431,58288;2,33881
3429,53173;2,33443
3427,48057;2,33596
3425,42941;2,34234
3423,37826;2,34597
3421,3271;2,34476
3419,27595;2,34483
3417,22479;2,34872
3415,17364;2,35017
3413,12248;2,34703
3411,07133;2,34607
3409,02017;2,35104
3406,96902;2,35694
3404,91786;2,35904
3402,86671;2,35698
3400,81555;2,35465
3398,7644;2,35655
3396,71324;2,35838
3394,66208;2,35869
3392,61093;2,36027
3390,55977;2,3601
3388,50862;2,35732
3386,45746;2,35758
3384,40631;2,36212
3382,35515;2,36543
3380,304;2,36635
3378,25284;2,36911
3376,20169;2,37381
3374,15053;2,37687
3372,09938;2,37482
3370,04822;2,37062
3367,99707;2,37055
3365,94591;2,37463
3363,89475;2,38049
3361,8436;2,38523
3359,79244;2,38707
3357,74129;2,38826
3355,69013;2,38989
3353,63898;2,39091
3351,58782;2,39154
3349,53667;2,39255
3347,48551;2,39461
3345,43436;2,39726
3343,3832;2,39747
3341,33205;2,39773
3339,28089;2,40119
3337,22974;2,40317
3335,17858;2,40345
3333,12742;2,40605
3331,07627;2,40885
3329,02511;2,40835
3326,97396;2,40719
3324,9228;2,40821
3322,87165;2,40934
3320,82049;2,41031
3318,76934;2,41278
3316,71818;2,41651
3314,66703;2,42026
3312,61587;2,42306
3310,56472;2,42516
3308,51356;2,42403
3306,46241;2,41957
3304,41125;2,42
3302,36009;2,42713
3300,30894;2,43157
3298,25778;2,42855
3296,20663;2,42389
3294,15547;2,42362
3292,10432;2,42749
3290,05316;2,43119
3288,00201;2,4304
3285,95085;2,4258
3283,8997;2,42186
3281,84854;2,42034
3279,79739;2,42008
3277,74623;2,42196
3275,69508;2,42405
3273,64392;2,42
3271,59276;2,40987
3269,54161;2,40141
3267,49045;2,4012
3265,4393;2,40674
3263,38814;2,40815
3261,33699;2,40178
3259,28583;2,3932
3257,23468;2,38665
3255,18352;2,38387
3253,13237;2,38398
3251,08121;2,38075
3249,03006;2,37424
3246,9789;2,37093
3244,92775;2,36996
3242,87659;2,36829
3240,82543;2,36556
3238,77428;2,36025
3236,72312;2,35592
3234,67197;2,3575
3232,62081;2,35929
3230,56966;2,35477
3228,5185;2,34899
3226,46735;2,34759
3224,41619;2,34747
3222,36504;2,34545
3220,31388;2,34205
3218,26273;2,33933
3216,21157;2,33806
3214,16041;2,33569
3212,10926;2,33228
3210,0581;2,33011
3208,00695;2,32998
3205,95579;2,33089
3203,90464;2,32909
3201,85348;2,32457
3199,80233;2,32152
3197,75117;2,32021
3195,70002;2,31795
3193,64886;2,31353
3191,59771;2,30777
3189,54655;2,3027
3187,4954;2,30007
3185,44424;2,29848
3183,39308;2,29646
3181,34193;2,2947
3179,29077;2,29426
3177,23962;2,29549
3175,18846;2,29482
3173,13731;2,29066
3171,08615;2,28662
3169,035;2,28475
3166,98384;2,28373
3164,93269;2,28115
3162,88153;2,27683
3160,83038;2,27176
3158,77922;2,2675
3156,72807;2,26569
3154,67691;2,26511
3152,62575;2,26414
3150,5746;2,2626
3148,52344;2,25892
3146,47229;2,25322
3144,42113;2,2499
3142,36998;2,24928
3140,31882;2,2462
3138,26767;2,23939
3136,21651;2,2336
3134,16536;2,23216
3132,1142;2,23275
3130,06305;2,23292
3128,01189;2,23329
3125,96074;2,23417
3123,90958;2,23475
3121,85842;2,23421
3119,80727;2,23234
3117,75611;2,23051
3115,70496;2,23057
3113,6538;2,23206
3111,60265;2,23331
3109,55149;2,23308
3107,50034;2,23088
3105,44918;2,22859
3103,39803;2,22696
3101,34687;2,22498
3099,29572;2,22323
3097,24456;2,2225
3095,19341;2,22253
3093,14225;2,22308
3091,09109;2,22409
3089,03994;2,22491
3086,98878;2,22623
3084,93763;2,22888
3082,88647;2,23043
3080,83532;2,22984
3078,78416;2,22847
3076,73301;2,22647
3074,68185;2,22445
3072,6307;2,22374
3070,57954;2,22367
3068,52839;2,22264
3066,47723;2,22024
3064,42608;2,21849
3062,37492;2,21853
3060,32376;2,21704
3058,27261;2,21248
3056,22145;2,20799
3054,1703;2,20543
3052,11914;2,20479
3050,06799;2,2047
3048,01683;2,20313
3045,96568;2,20031
3043,91452;2,19784
3041,86337;2,19649
3039,81221;2,19443
3037,76106;2,19101
3035,7099;2,18933
3033,65875;2,19002
3031,60759;2,19001
3029,55643;2,18732
3027,50528;2,1834
3025,45412;2,18071
3023,40297;2,17939
3021,35181;2,17848
3019,30066;2,1785
3017,2495;2,1791
3015,19835;2,17886
3013,14719;2,17769
3011,09604;2,17514
3009,04488;2,17225
3006,99373;2,17133
3004,94257;2,17189
3002,89142;2,1726
3000,84026;2,1726
2998,7891;2,17323
2996,73795;2,17771
2994,68679;2,18454
2992,63564;2,18831
2990,58448;2,18929
2988,53333;2,19243
2986,48217;2,19725
2984,43102;2,20256
2982,37986;2,20847
2980,32871;2,21277
2978,27755;2,21659
2976,2264;2,22062
2974,17524;2,22328
2972,12409;2,22625
2970,07293;2,23011
2968,02177;2,23335
2965,97062;2,23712
2963,91946;2,24129
2961,86831;2,2439
2959,81715;2,24362
2957,766;2,23948
2955,71484;2,2335
2953,66369;2,22816
2951,61253;2,22318
2949,56138;2,21889
2947,51022;2,21784
2945,45907;2,21866
2943,40791;2,21875
2941,35675;2,21926
2939,3056;2,21981
2937,25444;2,21948
2935,20329;2,21873
2933,15213;2,21723
2931,10098;2,2159
2929,04982;2,21641
2926,99867;2,21582
2924,94751;2,21103
2922,89636;2,20557
2920,8452;2,20297
2918,79405;2,20184
2916,74289;2,20053
2914,69174;2,19751
2912,64058;2,19136
2910,58942;2,18414
2908,53827;2,17923
2906,48711;2,17813
2904,43596;2,17728
2902,3848;2,17367
2900,33365;2,17073
2898,28249;2,1696
2896,23134;2,16842
2894,18018;2,16691
2892,12903;2,16541
2890,07787;2,16483
2888,02672;2,16548
2885,97556;2,16685
2883,92441;2,16854
2881,87325;2,17039
2879,82209;2,17298
2877,77094;2,17728
2875,71978;2,18125
2873,66863;2,18135
2871,61747;2,17853
2869,56632;2,17489
2867,51516;2,16956
2865,46401;2,1624
2863,41285;2,15556
2861,3617;2,1501
2859,31054;2,14633
2857,25939;2,14369
2855,20823;2,13996
2853,15708;2,13529
2851,10592;2,13237
2849,05476;2,13116
2847,00361;2,1293
2844,95245;2,12637
2842,9013;2,12314
2840,85014;2,11939
2838,79899;2,11468
2836,74783;2,10957
2834,69668;2,10521
2832,64552;2,10124
2830,59437;2,09666
2828,54321;2,09313
2826,49206;2,09147
2824,4409;2,08951
2822,38975;2,08678
2820,33859;2,0847
2818,28743;2,08358
2816,23628;2,08197
2814,18512;2,07828
2812,13397;2,07419
2810,08281;2,07226
2808,03166;2,07088
2805,9805;2,06881
2803,92935;2,06729
2801,87819;2,06635
2799,82704;2,06524
2797,77588;2,06331
2795,72473;2,06138
2793,67357;2,06103
2791,62242;2,06084
2789,57126;2,05912
2787,5201;2,05704
2785,46895;2,05445
2783,41779;2,05156
2781,36664;2,05001
2779,31548;2,04855
2777,26433;2,04628
2775,21317;2,04451
2773,16202;2,04369
2771,11086;2,04287
2769,05971;2,0409
2767,00855;2,03847
2764,9574;2,03658
2762,90624;2,03504
2760,85509;2,03416
2758,80393;2,0335
2756,75277;2,03226
2754,70162;2,03123
2752,65046;2,03029
2750,59931;2,02866
2748,54815;2,02725
2746,497;2,02667
2744,44584;2,02603
2742,39469;2,02456
2740,34353;2,02228
2738,29238;2,02054
2736,24122;2,01977
2734,19007;2,01922
2732,13891;2,01892
2730,08776;2,01898
2728,0366;2,01907
2725,98544;2,01858
2723,93429;2,01788
2721,88313;2,01753
2719,83198;2,01654
2717,78082;2,01426
2715,72967;2,01184
2713,67851;2,01006
2711,62736;2,00838
2709,5762;2,00684
2707,52505;2,0062
2705,47389;2,00654
2703,42274;2,00669
2701,37158;2,00555
2699,32043;2,00412
2697,26927;2,00346
2695,21811;2,00282
2693,16696;2,00249
2691,1158;2,00307
2689,06465;2,00367
2687,01349;2,00413
2684,96234;2,00431
2682,91118;2,00355
2680,86003;2,00239
2678,80887;2,00251
2676,75772;2,004
2674,70656;2,00418
2672,65541;2,00265
2670,60425;2,00122
2668,55309;1,99987
2666,50194;1,99876
2664,45078;1,99905
2662,39963;2,00038
2660,34847;2,0014
2658,29732;2,0018
2656,24616;2,00204
2654,19501;2,00257
2652,14385;2,00312
2650,0927;2,0032
2648,04154;2,00306
2645,99039;2,00355
2643,93923;2,00552
2641,88808;2,00832
2639,83692;2,01044
2637,78576;2,01154
2635,73461;2,01297
2633,68345;2,01604
2631,6323;2,02085
2629,58114;2,02596
2627,52999;2,02913
2625,47883;2,031
2623,42768;2,03376
2621,37652;2,03665
2619,32537;2,03789
2617,27421;2,03821
2615,22306;2,03893
2613,1719;2,04
2611,12075;2,04118
2609,06959;2,04252
2607,01843;2,04426
2604,96728;2,04606
2602,91612;2,0475
2600,86497;2,04824
2598,81381;2,04749
2596,76266;2,04604
2594,7115;2,04594
2592,66035;2,04716
2590,60919;2,04777
2588,55804;2,04669
2586,50688;2,04608
2584,45573;2,04781
2582,40457;2,04914
2580,35342;2,04843
2578,30226;2,04743
2576,2511;2,04729
2574,19995;2,04824
2572,14879;2,0496
2570,09764;2,0503
2568,04648;2,04956
2565,99533;2,04757
2563,94417;2,04649
2561,89302;2,04766
2559,84186;2,04942
2557,79071;2,04996
2555,73955;2,0501
2553,6884;2,05016
2551,63724;2,04959
2549,58609;2,05021
2547,53493;2,05185
2545,48377;2,05266
2543,43262;2,05349
2541,38146;2,05469
2539,33031;2,05547
2537,27915;2,05595
2535,228;2,05687
2533,17684;2,0586
2531,12569;2,06042
2529,07453;2,06244
2527,02338;2,06482
2524,97222;2,06611
2522,92107;2,06674
2520,86991;2,06756
2518,81876;2,06798
2516,7676;2,06834
2514,71644;2,06896
2512,66529;2,06993
2510,61413;2,07094
2508,56298;2,07103
2506,51182;2,07008
2504,46067;2,06871
2502,40951;2,06717
2500,35836;2,06594
2498,3072;2,06461
2496,25605;2,06152
2494,20489;2,05707
2492,15374;2,0527
2490,10258;2,049
2488,05143;2,04622
2486,00027;2,04454
2483,94911;2,04325
2481,89796;2,04032
2479,8468;2,03613
2477,79565;2,03241
2475,74449;2,02791
2473,69334;2,02224
2471,64218;2,01779
2469,59103;2,01501
2467,53987;2,01271
2465,48872;2,01042
2463,43756;2,00752
2461,38641;2,00406
2459,33525;2,001
2457,2841;1,99846
2455,23294;1,99589
2453,18178;1,99391
2451,13063;1,99329
2449,07947;1,99263
2447,02832;1,99027
2444,97716;1,987
2442,92601;1,98526
2440,87485;1,98521
2438,8237;1,98467
2436,77254;1,98305
2434,72139;1,98136
2432,67023;1,97989
2430,61908;1,97844
2428,56792;1,97738
2426,51677;1,9764
2424,46561;1,97492
2422,41445;1,9736
2420,3633;1,97272
2418,31214;1,97179
2416,26099;1,9712
2414,20983;1,97092
2412,15868;1,96994
2410,10752;1,96856
2408,05637;1,96752
2406,00521;1,96662
2403,95406;1,96556
2401,9029;1,96432
2399,85175;1,9642
2397,80059;1,96503
2395,74944;1,96478
2393,69828;1,96306
2391,64712;1,96222
2389,59597;1,96303
2387,54481;1,96412
2385,49366;1,96452
2383,4425;1,96402
2381,39135;1,96307
2379,34019;1,96259
2377,28904;1,96346
2375,23788;1,96575
2373,18673;1,96882
2371,13557;1,97117
2369,08442;1,97041
2367,03326;1,96713
2364,9821;1,9664
2362,93095;1,97025
2360,87979;1,97444
2358,82864;1,97442
2356,77748;1,97062
2354,72633;1,96759
2352,67517;1,96852
2350,62402;1,97228
2348,57286;1,97558
2346,52171;1,97592
2344,47055;1,97384
2342,4194;1,97181
2340,36824;1,97133
2338,31709;1,97281
2336,26593;1,97529
2334,21477;1,97678
2332,16362;1,97628
2330,11246;1,97552
2328,06131;1,97691
2326,01015;1,97855
2323,959;1,97794
2321,90784;1,97658
2319,85669;1,97642
2317,80553;1,97762
2315,75438;1,97941
2313,70322;1,98029
2311,65207;1,97941
2309,60091;1,97838
2307,54976;1,97937
2305,4986;1,98156
2303,44744;1,98247
2301,39629;1,9816
2299,34513;1,98024
2297,29398;1,97947
2295,24282;1,97982
2293,19167;1,98102
2291,14051;1,98194
2289,08936;1,98235
2287,0382;1,983
2284,98705;1,98378
2282,93589;1,98447
2280,88474;1,98537
2278,83358;1,98635
2276,78243;1,98707
2274,73127;1,98765
2272,68011;1,98851
2270,62896;1,98996
2268,5778;1,99109
2266,52665;1,99131
2264,47549;1,99196
2262,42434;1,99323
2260,37318;1,99396
2258,32203;1,99458
2256,27087;1,99512
2254,21972;1,99467
2252,16856;1,99376
2250,11741;1,99348
2248,06625;1,99434
2246,0151;1,9958
2243,96394;1,99729
2241,91278;1,99825
2239,86163;1,9987
2237,81047;1,99965
2235,75932;2,0017
2233,70816;2,00353
2231,65701;2,00384
2229,60585;2,00381
2227,5547;2,0045
2225,50354;2,00556
2223,45239;2,00703
2221,40123;2,00869
2219,35008;2,01002
2217,29892;2,01085
2215,24777;2,01162
2213,19661;2,01317
2211,14545;2,01523
2209,0943;2,01623
2207,04314;2,01623
2204,99199;2,01695
2202,94083;2,01786
2200,88968;2,01828
2198,83852;2,01914
2196,78737;2,02093
2194,73621;2,0232
2192,68506;2,02448
2190,6339;2,02529
2188,58275;2,02706
2186,53159;2,02914
2184,48044;2,03102
2182,42928;2,03281
2180,37812;2,03447
2178,32697;2,03591
2176,27581;2,03776
2174,22466;2,04058
2172,1735;2,04307
2170,12235;2,04491
2168,07119;2,04813
2166,02004;2,05279
2163,96888;2,05617
2161,91773;2,05805
2159,86657;2,06072
2157,81542;2,06479
2155,76426;2,06939
2153,71311;2,07384
2151,66195;2,07783
2149,61079;2,08016
2147,55964;2,07989
2145,50848;2,07923
2143,45733;2,0803
2141,40617;2,08141
2139,35502;2,08168
2137,30386;2,082
2135,25271;2,08127
2133,20155;2,0791
2131,1504;2,07641
2129,09924;2,07416
2127,04809;2,07305
2124,99693;2,07237
2122,94578;2,07144
2120,89462;2,06981
2118,84346;2,06738
2116,79231;2,06536
2114,74115;2,06444
2112,69;2,06436
2110,63884;2,06443
2108,58769;2,06482
2106,53653;2,06639
2104,48538;2,06826
2102,43422;2,06905
2100,38307;2,06869
2098,33191;2,06806
2096,28076;2,06812
2094,2296;2,06953
2092,17844;2,07158
2090,12729;2,07204
2088,07613;2,07055
2086,02498;2,06942
2083,97382;2,07085
2081,92267;2,0739
2079,87151;2,07605
2077,82036;2,07746
2075,7692;2,07999
2073,71805;2,08331
2071,66689;2,08626
2069,61574;2,08917
2067,56458;2,09223
2065,51343;2,09495
2063,46227;2,09742
2061,41111;2,1
2059,35996;2,10207
2057,3088;2,10343
2055,25765;2,10555
2053,20649;2,10951
2051,15534;2,11455
2049,10418;2,11956
2047,05303;2,12444
2045,00187;2,12956
2042,95072;2,13555
2040,89956;2,14198
2038,84841;2,14713
2036,79725;2,1515
2034,7461;2,15627
2032,69494;2,15976
2030,64378;2,16198
2028,59263;2,1655
2026,54147;2,16955
2024,49032;2,17257
2022,43916;2,17605
2020,38801;2,17973
2018,33685;2,18191
2016,2857;2,18441
2014,23454;2,18845
2012,18339;2,19221
2010,13223;2,19534
2008,08108;2,19842
2006,02992;2,20271
2003,97877;2,20797
2001,92761;2,21077
1999,87645;2,21189
1997,8253;2,21457
1995,77414;2,2182
1993,72299;2,22097
1991,67183;2,22224
1989,62068;2,22357
1987,56952;2,22658
1985,51837;2,22867
1983,46721;2,22715
1981,41606;2,22421
1979,3649;2,22228
1977,31375;2,22086
1975,26259;2,21853
1973,21144;2,21487
1971,16028;2,21094
1969,10912;2,20788
1967,05797;2,2069
1965,00681;2,2089
1962,95566;2,21111
1960,9045;2,20902
1958,85335;2,20334
1956,80219;2,19761
1954,75104;2,19363
1952,69988;2,19246
1950,64873;2,19318
1948,59757;2,19373
1946,54642;2,19347
1944,49526;2,19298
1942,44411;2,19379
1940,39295;2,19696
1938,34179;2,20002
1936,29064;2,2015
1934,23948;2,20428
1932,18833;2,20949
1930,13717;2,21451
1928,08602;2,21811
1926,03486;2,22195
1923,98371;2,22686
1921,93255;2,23207
1919,8814;2,23708
1917,83024;2,24244
1915,77909;2,25035
1913,72793;2,25992
1911,67678;2,26705
1909,62562;2,27222
1907,57446;2,2789
1905,52331;2,28773
1903,47215;2,29777
1901,421;2,30719
1899,36984;2,31568
1897,31869;2,32415
1895,26753;2,33136
1893,21638;2,33736
1891,16522;2,34404
1889,11407;2,35087
1887,06291;2,35702
1885,01176;2,36221
1882,9606;2,36598
1880,90945;2,36984
1878,85829;2,37422
1876,80713;2,37711
1874,75598;2,37847
1872,70482;2,37877
1870,65367;2,375
1868,60251;2,36633
1866,55136;2,35833
1864,5002;2,35338
1862,44905;2,3486
1860,39789;2,34217
1858,34674;2,33392
1856,29558;2,32496
1854,24443;2,31721
1852,19327;2,31151
1850,14212;2,30725
1848,09096;2,30369
1846,0398;2,3013
1843,98865;2,30108
1841,93749;2,30391
1839,88634;2,30896
1837,83518;2,31394
1835,78403;2,31839
1833,73287;2,32354
1831,68172;2,32838
1829,63056;2,33137
1827,57941;2,33524
1825,52825;2,34238
1823,4771;2,3512
1821,42594;2,35957
1819,37478;2,36604
1817,32363;2,37075
1815,27247;2,37697
1813,22132;2,38663
1811,17016;2,39643
1809,11901;2,4045
1807,06785;2,41368
1805,0167;2,42423
1802,96554;2,43223
1800,91439;2,43518
1798,86323;2,43569
1796,81208;2,43773
1794,76092;2,44144
1792,70977;2,44503
1790,65861;2,44844
1788,60745;2,45166
1786,5563;2,45242
1784,50514;2,45029
1782,45399;2,44805
1780,40283;2,44786
1778,35168;2,4501
1776,30052;2,45299
1774,24937;2,45495
1772,19821;2,45586
1770,14706;2,45733
1768,0959;2,46064
1766,04475;2,46327
1763,99359;2,46263
1761,94244;2,45989
1759,89128;2,45943
1757,84012;2,46053
1755,78897;2,45865
1753,73781;2,45426
1751,68666;2,44909
1749,6355;2,44486
1747,58435;2,44392
1745,53319;2,44583
1743,48204;2,44903
1741,43088;2,45131
1739,37973;2,45179
1737,32857;2,45348
1735,27742;2,45553
1733,22626;2,45526
1731,17511;2,4568
1729,12395;2,46052
1727,07279;2,46327
1725,02164;2,4652
1722,97048;2,46796
1720,91933;2,47258
1718,86817;2,47821
1716,81702;2,48271
1714,76586;2,48647
1712,71471;2,49212
1710,66355;2,50068
1708,6124;2,51206
1706,56124;2,52563
1704,51009;2,53982
1702,45893;2,55382
1700,40778;2,56873
1698,35662;2,5892
1696,30546;2,62224
1694,25431;2,66151
1692,20315;2,69178
1690,152;2,71109
1688,10084;2,72714
1686,04969;2,74792
1683,99853;2,7707
1681,94738;2,78469
1679,89622;2,79403
1677,84507;2,80796
1675,79391;2,82927
1673,74276;2,85384
1671,6916;2,87258
1669,64045;2,88258
1667,58929;2,88934
1665,53813;2,8975
1663,48698;2,90656
1661,43582;2,91597
1659,38467;2,92682
1657,33351;2,93697
1655,28236;2,94723
1653,2312;2,95985
1651,18005;2,96568
1649,12889;2,96127
1647,07774;2,95253
1645,02658;2,95056
1642,97543;2,95511
1640,92427;2,95072
1638,87312;2,93719
1636,82196;2,93105
1634,7708;2,93327
1632,71965;2,92701
1630,66849;2,91234
1628,61734;2,89825
1626,56618;2,88599
1624,51503;2,87242
1622,46387;2,85947
1620,41272;2,85283
1618,36156;2,84762
1616,31041;2,83172
1614,25925;2,81043
1612,2081;2,79757
1610,15694;2,79278
1608,10579;2,7887
1606,05463;2,78033
1604,00347;2,76931
1601,95232;2,76048
1599,90116;2,75405
1597,85001;2,74589
1595,79885;2,73811
1593,7477;2,74073
1591,69654;2,75295
1589,64539;2,76037
1587,59423;2,7594
1585,54308;2,75852
1583,49192;2,75881
1581,44077;2,75647
1579,38961;2,75505
1577,33846;2,75804
1575,2873;2,76007
1573,23614;2,75819
1571,18499;2,75772
1569,13383;2,76236
1567,08268;2,76736
1565,03152;2,76541
1562,98037;2,75956
1560,92921;2,75608
1558,87806;2,7533
1556,8269;2,75065
1554,77575;2,74871
1552,72459;2,74294
1550,67344;2,73234
1548,62228;2,72127
1546,57113;2,71306
1544,51997;2,70557
1542,46881;2,6978
1540,41766;2,68969
1538,3665;2,68339
1536,31535;2,68261
1534,26419;2,67963
1532,21304;2,66917
1530,16188;2,65808
1528,11073;2,64949
1526,05957;2,64282
1524,00842;2,63955
1521,95726;2,63624
1519,90611;2,63072
1517,85495;2,62541
1515,80379;2,61879
1513,75264;2,61131
1511,70148;2,60591
1509,65033;2,60359
1507,59917;2,60091
1505,54802;2,59246
1503,49686;2,58344
1501,44571;2,57837
1499,39455;2,57492
1497,3434;2,57159
1495,29224;2,56997
1493,24109;2,5691
1491,18993;2,56602
1489,13878;2,56083
1487,08762;2,55736
1485,03646;2,55663
1482,98531;2,55631
1480,93415;2,55599
1478,883;2,55847
1476,83184;2,56462
1474,78069;2,57031
1472,72953;2,57349
1470,67838;2,57787
1468,62722;2,58419
1466,57607;2,58864
1464,52491;2,5898
1462,47376;2,58957
1460,4226;2,58727
1458,37145;2,58427
1456,32029;2,58773
1454,26913;2,59412
1452,21798;2,59421
1450,16682;2,59095
1448,11567;2,5907
1446,06451;2,59299
1444,01336;2,5941
1441,9622;2,59393
1439,91105;2,59224
1437,85989;2,5851
1435,80874;2,57376
1433,75758;2,56704
1431,70643;2,56506
1429,65527;2,56142
1427,60412;2,55488
1425,55296;2,54658
1423,5018;2,53656
1421,45065;2,52514
1419,39949;2,51151
1417,34834;2,49972
1415,29718;2,49323
1413,24603;2,48644
1411,19487;2,47569
1409,14372;2,46604
1407,09256;2,46596
1405,04141;2,4777
1402,99025;2,49407
1400,9391;2,50584
1398,88794;2,50974
1396,83679;2,5115
1394,78563;2,52144
1392,73447;2,53991
1390,68332;2,55773
1388,63216;2,57101
1386,58101;2,58305
1384,52985;2,59488
1382,4787;2,60405
1380,42754;2,61242
1378,37639;2,62185
1376,32523;2,62835
1374,27408;2,6312
1372,22292;2,6366
1370,17177;2,64475
1368,12061;2,64894
1366,06946;2,64945
1364,0183;2,6533
1361,96714;2,66165
1359,91599;2,66972
1357,86483;2,67489
1355,81368;2,6781
1353,76252;2,68216
1351,71137;2,68758
1349,66021;2,69223
1347,60906;2,69862
1345,5579;2,70867
1343,50675;2,71631
1341,45559;2,71989
1339,40444;2,72481
1337,35328;2,73065
1335,30213;2,73398
1333,25097;2,73697
1331,19981;2,74483
1329,14866;2,75871
1327,0975;2,77227
1325,04635;2,77945
1322,99519;2,77926
1320,94404;2,77242
1318,89288;2,76359
1316,84173;2,7612
1314,79057;2,76584
1312,73942;2,7679
1310,68826;2,76377
1308,63711;2,76193
1306,58595;2,76543
1304,5348;2,76604
1302,48364;2,764
1300,43248;2,76583
1298,38133;2,76888
1296,33017;2,77069
1294,27902;2,77015
1292,22786;2,76524
1290,17671;2,759
1288,12555;2,75452
1286,0744;2,75057
1284,02324;2,7479
1281,97209;2,7503
1279,92093;2,75735
1277,86978;2,76323
1275,81862;2,76337
1273,76747;2,76346
1271,71631;2,77065
1269,66515;2,77864
1267,614;2,78148
1265,56284;2,78185
1263,51169;2,77684
1261,46053;2,7691
1259,40938;2,76655
1257,35822;2,76647
1255,30707;2,76976
1253,25591;2,7802
1251,20476;2,79012
1249,1536;2,79162
1247,10245;2,79251
1245,05129;2,79932
1243,00013;2,80564
1240,94898;2,81014
1238,89782;2,81678
1236,84667;2,82687
1234,79551;2,83764
1232,74436;2,83898
1230,6932;2,82889
1228,64205;2,82426
1226,59089;2,82853
1224,53974;2,83006
1222,48858;2,82929
1220,43743;2,8269
1218,38627;2,82229
1216,33512;2,81834
1214,28396;2,80989
1212,2328;2,79703
1210,18165;2,78991
1208,13049;2,78892
1206,07934;2,7882
1204,02818;2,78541
1201,97703;2,77706
1199,92587;2,76447
1197,87472;2,75194
1195,82356;2,742
1193,77241;2,73716
1191,72125;2,73021
1189,6701;2,71198
1187,61894;2,68224
1185,56779;2,65079
1183,51663;2,62819
1181,46547;2,6101
1179,41432;2,59246
1177,36316;2,57591
1175,31201;2,55667
1173,26085;2,53963
1171,2097;2,52967
1169,15854;2,52024
1167,10739;2,51168
1165,05623;2,51352
1163,00508;2,53021
1160,95392;2,56383
1158,90277;2,61657
1156,85161;2,67559
1154,80046;2,71777
1152,7493;2,73645
1150,69814;2,73452
1148,64699;2,71567
1146,59583;2,68928
1144,54468;2,65713
1142,49352;2,61971
1140,44237;2,58375
1138,39121;2,55209
1136,34006;2,52277
1134,2889;2,49139
1132,23775;2,46067
1130,18659;2,43932
1128,13544;2,42701
1126,08428;2,4161
1124,03313;2,4038
1121,98197;2,39269
1119,93081;2,38177
1117,87966;2,37025
1115,8285;2,36258
1113,77735;2,35783
1111,72619;2,35123
1109,67504;2,3446
1107,62388;2,34036
1105,57273;2,33664
1103,52157;2,33441
1101,47042;2,33612
1099,41926;2,33992
1097,36811;2,3432
1095,31695;2,34582
1093,2658;2,34936
1091,21464;2,35399
1089,16348;2,35603
1087,11233;2,35485
1085,06117;2,35354
1083,01002;2,3505
1080,95886;2,34486
1078,90771;2,34005
1076,85655;2,33813
1074,8054;2,33803
1072,75424;2,33678
1070,70309;2,33603
1068,65193;2,3407
1066,60078;2,34988
1064,54962;2,35774
1062,49847;2,36314
1060,44731;2,37001
1058,39615;2,37978
1056,345;2,39454
1054,29384;2,4174
1052,24269;2,4463
1050,19153;2,47904
1048,14038;2,51538
1046,08922;2,55371
1044,03807;2,59066
1041,98691;2,62193
1039,93576;2,65445
1037,8846;2,69586
1035,83345;2,72835
1033,78229;2,73657
1031,73114;2,73231
1029,67998;2,72105
1027,62882;2,69244
1025,57767;2,64824
1023,52651;2,60365
1021,47536;2,56388
1019,4242;2,52985
1017,37305;2,50746
1015,32189;2,49481
1013,27074;2,48453
1011,21958;2,47605
1009,16843;2,47347
1007,11727;2,47936
1005,06612;2,49185
1003,01496;2,50521
1000,96381;2,51549
998,91265;2,52883
996,86149;2,54821
994,81034;2,56424
992,75918;2,57422
990,70803;2,58549
988,65687;2,60201
986,60572;2,61665
984,55456;2,62409
982,50341;2,62908
980,45225;2,63294
978,4011;2,63401
976,34994;2,63452
974,29879;2,6367
972,24763;2,63947
970,19647;2,64253
968,14532;2,647
966,09416;2,65065
964,04301;2,65311
961,99185;2,6576
959,9407;2,66089
957,88954;2,65964
955,83839;2,65756
953,78723;2,65286
951,73608;2,64619
949,68492;2,64325
947,63377;2,64278
945,58261;2,64292
943,53146;2,64558
941,4803;2,65301
939,42914;2,65753
937,37799;2,65071
935,32683;2,64458
933,27568;2,64998
931,22452;2,65936
929,17337;2,66657
927,12221;2,6714
925,07106;2,67474
923,0199;2,67929
920,96875;2,6803
918,91759;2,67668
916,86644;2,67061
914,81528;2,6666
912,76413;2,67616
910,71297;2,69061
908,66181;2,69184
906,61066;2,68135
904,5595;2,66999
902,50835;2,66451
900,45719;2,66217
898,40604;2,66069
896,35488;2,66199
894,30373;2,66182
892,25257;2,65449
890,20142;2,635
888,15026;2,61088
886,09911;2,60399
884,04795;2,61673
881,9968;2,62105
879,94564;2,60052
877,89448;2,57689
875,84333;2,56516
873,79217;2,55914
871,74102;2,55625
869,68986;2,56088
867,63871;2,56969
865,58755;2,57318
863,5364;2,56941
861,48524;2,56459
859,43409;2,56031
857,38293;2,55712
855,33178;2,56081
853,28062;2,56493
851,22947;2,56387
849,17831;2,56566
847,12715;2,57331
845,076;2,58587
843,02484;2,59828
840,97369;2,60382
838,92253;2,61256
836,87138;2,63269
834,82022;2,64872
832,76907;2,65725
830,71791;2,67279
828,66676;2,69065
826,6156;2,70094
824,56445;2,70668
822,51329;2,71915
820,46214;2,74689
818,41098;2,7813
816,35982;2,81008
814,30867;2,83256
812,25751;2,84652
810,20636;2,86231
808,1552;2,87332
806,10405;2,86702
804,05289;2,8711
802,00174;2,90004
799,95058;2,93313
797,89943;2,95336
795,84827;2,96554
793,79712;2,9686
791,74596;2,96458
789,69481;2,96868
787,64365;2,96296
785,59249;2,93727
783,54134;2,92531
781,49018;2,934
779,43903;2,9365
777,38787;2,92502
775,33672;2,91539
773,28556;2,91049
771,23441;2,89983
769,18325;2,89464
767,1321;2,91615
765,08094;2,94991
763,02979;2,98793
760,97863;3,02677
758,92748;3,02347
756,87632;2,9731
754,82516;2,92538
752,77401;2,91423
750,72285;2,91605
748,6717;2,90237
746,62054;2,88341
744,56939;2,87977
742,51823;2,89717
740,46708;2,91293
738,41592;2,90847
736,36477;2,89556
734,31361;2,90291
732,26246;2,93709
730,2113;2,9507
728,16015;2,91642
726,10899;2,88816
724,05783;2,88901
722,00668;2,91289
719,95552;2,9614
717,90437;3,0143
715,85321;3,03965
713,80206;3,03347
711,7509;3,01037
709,69975;2,99475
707,64859;3,00513
705,59744;3,03242
703,54628;3,04303
701,49513;3,03703
699,44397;3,04769
697,39281;3,08549
695,34166;3,13177
693,2905;3,14119
691,23935;3,10861
689,18819;3,07951
687,13704;3,04749
685,08588;2,98458
683,03473;2,90469
680,98357;2,84108
678,93242;2,80245
676,88126;2,76858
674,83011;2,7274
672,77895;2,6955
670,7278;2,68645
668,67664;2,68982
666,62548;2,68764
664,57433;2,68491
662,52317;2,69737
660,47202;2,73145
658,42086;2,77715
656,36971;2,80849
654,31855;2,80491
652,2674;2,78111
650,21624;2,76434
648,16509;2,76683
646,11393;2,79064
644,06278;2,81808
642,01162;2,8282
639,96047;2,8269
637,90931;2,82329
635,85815;2,82129
633,807;2,8291
631,75584;2,84475
629,70469;2,85234
627,65353;2,84457
625,60238;2,83271
623,55122;2,83912
621,50007;2,86901
619,44891;2,91018
617,39776;2,95313
615,3466;2,95872
613,29545;2,92954
611,24429;2,92702
609,19314;2,97749
607,14198;3,04764
605,09082;3,08413
603,03967;3,01528
600,98851;2,93287
598,93736;2,94037
596,8862;2,99252
594,83505;3,00917
592,78389;3,00518
590,73274;3,00985
588,68158;3,00555
586,63043;3,00076
584,57927;3,03568
582,52812;3,08751
580,47696;3,09022
578,42581;3,07567
576,37465;3,07341
574,32349;3,04668
572,27234;3,04276
570,22118;3,12631
568,17003;3,22734
566,11887;3,25145
564,06772;3,24418
562,01656;3,23104
559,96541;3,23761
557,91425;3,36775
555,8631;3,5641
553,81194;3,42714
551,76079;3,17698
549,70963;3,0215
547,65848;2,98918
545,60732;2,98146
543,55616;2,96102
541,50501;2,9278
539,45385;2,86408
537,4027;2,79513
535,35154;2,75814
533,30039;2,73333
531,24923;2,71416
529,19808;2,70937
527,14692;2,70766
525,09577;2,70818
523,04461;2,69466
520,99346;2,67527
518,9423;2,68711
516,89115;2,71759
514,83999;2,73991
512,78883;2,77265
510,73768;2,83486
508,68652;2,88387
506,63537;2,86418
504,58421;2,77749
502,53306;2,66003
500,4819;2,57381
498,43075;2,51593
496,37959;2,4693
494,32844;2,44503
492,27728;2,43333
490,22613;2,42467
488,17497;2,41936
486,12382;2,40664
484,07266;2,39873
482,0215;2,40902
479,97035;2,42498
477,91919;2,44722
475,86804;2,48949
473,81688;2,53534
471,76573;2,54999
469,71457;2,54698
467,66342;2,56513
465,61226;2,60381
463,56111;2,63753
461,50995;2,64611
459,4588;2,65665
457,40764;2,71837
455,35649;2,80959
453,30533;2,85957
451,25417;2,86506
449,20302;2,85305
447,15186;2,79783
445,10071;2,7051
443,04955;2,64798
440,9984;2,64436
438,94724;2,65793
436,89609;2,66003
434,84493;2,6664
432,79378;2,68309
430,74262;2,69565
428,69147;2,71553
426,64031;2,70071
424,58916;2,62581
422,538;2,56069
420,48684;2,52628
418,43569;2,51394
416,38453;2,54238
414,33338;2,61812
412,28222;2,66128
410,23107;2,59092
408,17991;2,47698
406,12876;2,41214
404,0776;2,42085
402,02645;2,49936
399,97529;2,61153
