3997,70175;1,95496
3995,6506;1,95618
3993,59944;1,95791
3991,54829;1,95812
3989,49713;1,95753
3987,44598;1,95762
3985,39482;1,95725
3983,34367;1,95667
3981,29251;1,95777
3979,24136;1,95957
3977,1902;1,96004
3975,13905;1,96042
3973,08789;1,96165
3971,03673;1,9629
3968,98558;1,96403
3966,93442;1,96578
3964,88327;1,96803
3962,83211;1,96966
3960,78096;1,97088
3958,7298;1,97237
3956,67865;1,9748
3954,62749;1,97839
3952,57634;1,98134
3950,52518;1,98262
3948,47403;1,98395
3946,42287;1,98653
3944,37172;1,98719
3942,32056;1,98463
3940,2694;1,98194
3938,21825;1,98045
3936,16709;1,97897
3934,11594;1,97523
3932,06478;1,97086
3930,01363;1,96804
3927,96247;1,96442
3925,91132;1,95743
3923,86016;1,95013
3921,80901;1,94563
3919,75785;1,94204
3917,7067;1,93715
3915,65554;1,93175
3913,60439;1,92729
3911,55323;1,92388
3909,50207;1,9228
3907,45092;1,92304
3905,39976;1,92158
3903,34861;1,9191
3901,29745;1,91569
3899,2463;1,9106
3897,19514;1,9079
3895,14399;1,90676
3893,09283;1,90337
3891,04168;1,90076
3888,99052;1,90307
3886,93937;1,90379
3884,88821;1,90407
3882,83706;1,90453
3880,7859;1,90021
3878,73474;1,89815
3876,68359;1,89852
3874,63243;1,89804
3872,58128;1,89895
3870,53012;1,89756
3868,47897;1,89772
3866,42781;1,89727
3864,37666;1,89302
3862,3255;1,89008
3860,27435;1,8904
3858,22319;1,89349
3856,17204;1,89244
3854,12088;1,88417
3852,06973;1,88162
3850,01857;1,88442
3847,96741;1,88422
3845,91626;1,88285
3843,8651;1,8835
3841,81395;1,88541
3839,76279;1,88415
3837,71164;1,88242
3835,66048;1,88358
3833,60933;1,88231
3831,55817;1,87927
3829,50702;1,87915
3827,45586;1,87929
3825,40471;1,88047
3823,35355;1,88045
3821,3024;1,87932
3819,25124;1,8842
3817,20008;1,88369
3815,14893;1,87925
3813,09777;1,87985
3811,04662;1,88132
3808,99546;1,88046
3806,94431;1,88005
3804,89315;1,88536
3802,842;1,88658
3800,79084;1,88544
3798,73969;1,8866
3796,68853;1,88297
3794,63738;1,88039
3792,58622;1,88102
3790,53506;1,88189
3788,48391;1,88269
3786,43275;1,88312
3784,3816;1,88427
3782,33044;1,88592
3780,27929;1,88524
3778,22813;1,88554
3776,17698;1,88794
3774,12582;1,89083
3772,07467;1,89294
3770,02351;1,893
3767,97236;1,89344
3765,9212;1,89347
3763,87005;1,89559
3761,81889;1,89801
3759,76773;1,89866
3757,71658;1,90167
3755,66542;1,90675
3753,61427;1,90878
3751,56311;1,90883
3749,51196;1,91511
3747,4608;1,92311
3745,40965;1,91928
3743,35849;1,91618
3741,30734;1,92216
3739,25618;1,927
3737,20503;1,92962
3735,15387;1,93218
3733,10272;1,9328
3731,05156;1,93257
3729,0004;1,93391
3726,94925;1,93514
3724,89809;1,9388
3722,84694;1,94246
3720,79578;1,94511
3718,74463;1,94933
3716,69347;1,95548
3714,64232;1,9614
3712,59116;1,96574
3710,54001;1,96988
3708,48885;1,97378
3706,4377;1,97909
3704,38654;1,98828
3702,33539;2,003
3700,28423;2,02406
3698,23307;2,04491
3696,18192;2,06113
3694,13076;2,07351
3692,07961;2,08041
3690,02845;2,08176
3687,9773;2,0823
3685,92614;2,0863
3683,87499;2,09092
3681,82383;2,09687
3679,77268;2,10767
3677,72152;2,12101
3675,67037;2,13348
3673,61921;2,15113
3671,56806;2,16532
3669,5169;2,17575
3667,46574;2,18932
3665,41459;2,20077
3663,36343;2,21167
3661,31228;2,22691
3659,26112;2,24503
3657,20997;2,2615
3655,15881;2,2796
3653,10766;2,2979
3651,0565;2,31394
3649,00535;2,33709
3646,95419;2,36298
3644,90304;2,37946
3642,85188;2,38723
3640,80073;2,39368
3638,74957;2,40118
3636,69841;2,412
3634,64726;2,42857
3632,5961;2,44754
3630,54495;2,45871
3628,49379;2,46247
3626,44264;2,4706
3624,39148;2,48318
3622,34033;2,49726
3620,28917;2,50757
3618,23802;2,51494
3616,18686;2,52673
3614,13571;2,54379
3612,08455;2,56051
3610,0334;2,56442
3607,98224;2,55428
3605,93108;2,54662
3603,87993;2,55049
3601,82877;2,56506
3599,77762;2,58466
3597,72646;2,60031
3595,67531;2,6114
3593,62415;2,62325
3591,573;2,63475
3589,52184;2,64516
3587,47069;2,65839
3585,41953;2,6701
3583,36838;2,67332
3581,31722;2,67621
3579,26607;2,68448
3577,21491;2,69231
3575,16375;2,69802
3573,1126;2,70646
3571,06144;2,71965
3569,01029;2,72819
3566,95913;2,72166
3564,90798;2,71006
3562,85682;2,70854
3560,80567;2,71545
3558,75451;2,72231
3556,70336;2,73167
3554,6522;2,75205
3552,60105;2,77638
3550,54989;2,78809
3548,49874;2,78482
3546,44758;2,77628
3544,39642;2,7678
3542,34527;2,76168
3540,29411;2,76226
3538,24296;2,76723
3536,1918;2,77191
3534,14065;2,77741
3532,08949;2,78133
3530,03834;2,7821
3527,98718;2,79004
3525,93603;2,8084
3523,88487;2,82047
3521,83372;2,82109
3519,78256;2,81975
3517,73141;2,81399
3515,68025;2,80355
3513,62909;2,80351
3511,57794;2,81983
3509,52678;2,83458
3507,47563;2,83792
3505,42447;2,84255
3503,37332;2,85026
3501,32216;2,85373
3499,27101;2,85742
3497,21985;2,86139
3495,1687;2,86002
3493,11754;2,8564
3491,06639;2,85516
3489,01523;2,85953
3486,96407;2,87232
3484,91292;2,8787
3482,86176;2,86777
3480,81061;2,86296
3478,75945;2,87518
3476,7083;2,88012
3474,65714;2,87196
3472,60599;2,86977
3470,55483;2,87358
3468,50368;2,87582
3466,45252;2,87693
3464,40137;2,878
3462,35021;2,87758
3460,29906;2,87681
3458,2479;2,88246
3456,19674;2,88439
3454,14559;2,88232
3452,09443;2,89121
3450,04328;2,89588
3447,99212;2,89323
3445,94097;2,90679
3443,88981;2,92841
3441,83866;2,93948
3439,7875;2,93487
3437,73635;2,9142
3435,68519;2,89896
3433,63404;2,91294
3431,58288;2,94259
3429,53173;2,95915
3427,48057;2,96085
3425,42941;2,94935
3423,37826;2,92968
3421,3271;2,91654
3419,27595;2,90948
3417,22479;2,90267
3415,17364;2,90803
3413,12248;2,93524
3411,07133;2,95823
3409,02017;2,95267
3406,96902;2,94327
3404,91786;2,94402
3402,86671;2,94103
3400,81555;2,94089
3398,7644;2,95324
3396,71324;2,95901
3394,66208;2,9455
3392,61093;2,92468
3390,55977;2,90877
3388,50862;2,90419
3386,45746;2,9099
3384,40631;2,91744
3382,35515;2,9271
3380,304;2,94182
3378,25284;2,95824
3376,20169;2,97463
3374,15053;2,98283
3372,09938;2,9738
3370,04822;2,95925
3367,99707;2,95158
3365,94591;2,95309
3363,89475;2,96147
3361,8436;2,96208
3359,79244;2,9519
3357,74129;2,9465
3355,69013;2,94978
3353,63898;2,9529
3351,58782;2,95883
3349,53667;2,96715
3347,48551;2,96345
3345,43436;2,95884
3343,3832;2,9656
3341,33205;2,97127
3339,28089;2,96863
3337,22974;2,9669
3335,17858;2,97024
3333,12742;2,97399
3331,07627;2,97735
3329,02511;2,98314
3326,97396;2,99378
3324,9228;2,99875
3322,87165;2,99181
3320,82049;2,99421
3318,76934;3,0052
3316,71818;2,99913
3314,66703;2,98339
3312,61587;2,96868
3310,56472;2,94554
3308,51356;2,93138
3306,46241;2,94854
3304,41125;2,97787
3302,36009;2,9905
3300,30894;2,99301
3298,25778;2,99566
3296,20663;2,99427
3294,15547;2,99002
3292,10432;2,98192
3290,05316;2,9712
3288,00201;2,95943
3285,95085;2,95004
3283,8997;2,95502
3281,84854;2,96676
3279,79739;2,96705
3277,74623;2,96143
3275,69508;2,96263
3273,64392;2,97218
3271,59276;2,98852
3269,54161;3,001
3267,49045;3,00161
3265,4393;2,99828
3263,38814;2,98637
3261,33699;2,9603
3259,28583;2,94094
3257,23468;2,93703
3255,18352;2,93103
3253,13237;2,92406
3251,08121;2,92016
3249,03006;2,92059
3246,9789;2,93216
3244,92775;2,93614
3242,87659;2,92224
3240,82543;2,91481
3238,77428;2,92324
3236,72312;2,93676
3234,67197;2,94961
3232,62081;2,95712
3230,56966;2,95075
3228,5185;2,93057
3226,46735;2,91281
3224,41619;2,90727
3222,36504;2,90814
3220,31388;2,90651
3218,26273;2,89899
3216,21157;2,89001
3214,16041;2,88389
3212,10926;2,88517
3210,0581;2,88892
3208,00695;2,8814
3205,95579;2,87058
3203,90464;2,87256
3201,85348;2,88046
3199,80233;2,88217
3197,75117;2,87687
3195,70002;2,86975
3193,64886;2,86739
3191,59771;2,87295
3189,54655;2,88222
3187,4954;2,88197
3185,44424;2,86704
3183,39308;2,85936
3181,34193;2,86798
3179,29077;2,87061
3177,23962;2,85882
3175,18846;2,84681
3173,13731;2,84662
3171,08615;2,85496
3169,035;2,85586
3166,98384;2,84312
3164,93269;2,83762
3162,88153;2,85033
3160,83038;2,86121
3158,77922;2,8548
3156,72807;2,84153
3154,67691;2,84028
3152,62575;2,84933
3150,5746;2,85029
3148,52344;2,84039
3146,47229;2,82815
3144,42113;2,8156
3142,36998;2,80856
3140,31882;2,81501
3138,26767;2,82929
3136,21651;2,83464
3134,16536;2,8214
3132,1142;2,80281
3130,06305;2,79664
3128,01189;2,8016
3125,96074;2,80765
3123,90958;2,80937
3121,85842;2,80796
3119,80727;2,80774
3117,75611;2,80806
3115,70496;2,80197
3113,6538;2,79385
3111,60265;2,78979
3109,55149;2,78678
3107,50034;2,7864
3105,44918;2,79124
3103,39803;2,79506
3101,34687;2,79343
3099,29572;2,79191
3097,24456;2,79389
3095,19341;2,79601
3093,14225;2,79359
3091,09109;2,79034
3089,03994;2,79258
3086,98878;2,79138
3084,93763;2,78772
3082,88647;2,79478
3080,83532;2,80733
3078,78416;2,81458
3076,73301;2,813
3074,68185;2,80215
3072,6307;2,78819
3070,57954;2,78332
3068,52839;2,79527
3066,47723;2,81261
3064,42608;2,81489
3062,37492;2,80307
3060,32376;2,79116
3058,27261;2,78075
3056,22145;2,77278
3054,1703;2,7703
3052,11914;2,77314
3050,06799;2,77991
3048,01683;2,78424
3045,96568;2,78819
3043,91452;2,79566
3041,86337;2,79641
3039,81221;2,78534
3037,76106;2,77522
3035,7099;2,77556
3033,65875;2,78152
3031,60759;2,78466
3029,55643;2,77926
3027,50528;2,77004
3025,45412;2,77084
3023,40297;2,78024
3021,35181;2,79014
3019,30066;2,79519
3017,2495;2,78766
3015,19835;2,78277
3013,14719;2,79272
3011,09604;2,79982
3009,04488;2,79848
3006,99373;2,79802
3004,94257;2,80418
3002,89142;2,81953
3000,84026;2,83229
2998,7891;2,82815
2996,73795;2,81416
2994,68679;2,80703
2992,63564;2,81342
2990,58448;2,83304
2988,53333;2,85071
2986,48217;2,8586
2984,43102;2,8698
2982,37986;2,88568
2980,32871;2,89927
2978,27755;2,91001
2976,2264;2,91877
2974,17524;2,93156
2972,12409;2,95304
2970,07293;2,97058
2968,02177;2,97514
2965,97062;2,97791
2963,91946;2,98983
2961,86831;3,009
2959,81715;3,01938
2957,766;3,01764
2955,71484;3,01406
2953,66369;3,00577
2951,61253;2,98997
2949,56138;2,99006
2947,51022;3,015
2945,45907;3,03358
2943,40791;3,03574
2941,35675;3,03839
2939,3056;3,03912
2937,25444;3,03033
2935,20329;3,02036
2933,15213;3,02573
2931,10098;3,03686
2929,04982;3,03142
2926,99867;3,01459
2924,94751;3,00127
2922,89636;2,99623
2920,8452;2,99079
2918,79405;2,98082
2916,74289;2,98243
2914,69174;2,99081
2912,64058;2,98618
2910,58942;2,97394
2908,53827;2,96519
2906,48711;2,95951
2904,43596;2,95547
2902,3848;2,95019
2900,33365;2,9379
2898,28249;2,93261
2896,23134;2,94141
2894,18018;2,95134
2892,12903;2,95524
2890,07787;2,95023
2888,02672;2,93243
2885,97556;2,91332
2883,92441;2,90635
2881,87325;2,90273
2879,82209;2,89773
2877,77094;2,90383
2875,71978;2,9254
2873,66863;2,94261
2871,61747;2,93982
2869,56632;2,93932
2867,51516;2,9525
2865,46401;2,96637
2863,41285;2,97532
2861,3617;2,97828
2859,31054;2,98336
2857,25939;2,99086
2855,20823;2,99053
2853,15708;2,97995
2851,10592;2,96522
2849,05476;2,95261
2847,00361;2,93703
2844,95245;2,9115
2842,9013;2,88567
2840,85014;2,87075
2838,79899;2,85599
2836,74783;2,82962
2834,69668;2,79827
2832,64552;2,77181
2830,59437;2,7546
2828,54321;2,74025
2826,49206;2,72097
2824,4409;2,69962
2822,38975;2,68338
2820,33859;2,67516
2818,28743;2,6731
2816,23628;2,66867
2814,18512;2,65704
2812,13397;2,64753
2810,08281;2,64503
2808,03166;2,63798
2805,9805;2,62279
2803,92935;2,61183
2801,87819;2,60821
2799,82704;2,60431
2797,77588;2,59724
2795,72473;2,59061
2793,67357;2,58462
2791,62242;2,57744
2789,57126;2,57206
2787,5201;2,56755
2785,46895;2,56106
2783,41779;2,55509
2781,36664;2,54719
2779,31548;2,53643
2777,26433;2,53088
2775,21317;2,52906
2773,16202;2,5244
2771,11086;2,51948
2769,05971;2,51593
2767,00855;2,51248
2764,9574;2,51068
2762,90624;2,51178
2760,85509;2,51104
2758,80393;2,50428
2756,75277;2,49749
2754,70162;2,49339
2752,65046;2,48694
2750,59931;2,47939
2748,54815;2,47449
2746,497;2,47398
2744,44584;2,47583
2742,39469;2,47445
2740,34353;2,47223
2738,29238;2,47386
2736,24122;2,4747
2734,19007;2,47123
2732,13891;2,46808
2730,08776;2,46701
2728,0366;2,46484
2725,98544;2,46073
2723,93429;2,45667
2721,88313;2,45465
2719,83198;2,4548
2717,78082;2,45565
2715,72967;2,45344
2713,67851;2,44739
2711,62736;2,44148
2709,5762;2,43785
2707,52505;2,43724
2705,47389;2,43919
2703,42274;2,44073
2701,37158;2,43945
2699,32043;2,43668
2697,26927;2,43499
2695,21811;2,43353
2693,16696;2,43262
2691,1158;2,43237
2689,06465;2,43083
2687,01349;2,43122
2684,96234;2,43436
2682,91118;2,43463
2680,86003;2,4314
2678,80887;2,42966
2676,75772;2,43236
2674,70656;2,43591
2672,65541;2,43497
2670,60425;2,43138
2668,55309;2,4268
2666,50194;2,42104
2664,45078;2,41814
2662,39963;2,41795
2660,34847;2,4172
2658,29732;2,4172
2656,24616;2,41903
2654,19501;2,41982
2652,14385;2,41929
2650,0927;2,41875
2648,04154;2,41682
2645,99039;2,41523
2643,93923;2,4155
2641,88808;2,41746
2639,83692;2,42245
2637,78576;2,42913
2635,73461;2,4356
2633,68345;2,4411
2631,6323;2,44604
2629,58114;2,45184
2627,52999;2,45788
2625,47883;2,46309
2623,42768;2,4671
2621,37652;2,46866
2619,32537;2,46793
2617,27421;2,46786
2615,22306;2,47037
2613,1719;2,47392
2611,12075;2,47536
2609,06959;2,47509
2607,01843;2,47516
2604,96728;2,47632
2602,91612;2,4806
2600,86497;2,48479
2598,81381;2,48324
2596,76266;2,47971
2594,7115;2,47909
2592,66035;2,47855
2590,60919;2,47877
2588,55804;2,48361
2586,50688;2,48683
2584,45573;2,48355
2582,40457;2,47996
2580,35342;2,47966
2578,30226;2,47948
2576,2511;2,47785
2574,19995;2,47551
2572,14879;2,47466
2570,09764;2,47697
2568,04648;2,47954
2565,99533;2,48085
2563,94417;2,48127
2561,89302;2,47889
2559,84186;2,47503
2557,79071;2,47429
2555,73955;2,47582
2553,6884;2,47607
2551,63724;2,4751
2549,58609;2,47506
2547,53493;2,47705
2545,48377;2,47951
2543,43262;2,48147
2541,38146;2,48378
2539,33031;2,48621
2537,27915;2,48722
2535,228;2,4891
2533,17684;2,49534
2531,12569;2,50391
2529,07453;2,51084
2527,02338;2,51426
2524,97222;2,51735
2522,92107;2,5218
2520,86991;2,52205
2518,81876;2,51758
2516,7676;2,51556
2514,71644;2,51965
2512,66529;2,52478
2510,61413;2,5245
2508,56298;2,52064
2506,51182;2,51752
2504,46067;2,51568
2502,40951;2,51037
2500,35836;2,49918
2498,3072;2,4892
2496,25605;2,48344
2494,20489;2,47765
2492,15374;2,47107
2490,10258;2,46481
2488,05143;2,45752
2486,00027;2,44867
2483,94911;2,43953
2481,89796;2,4314
2479,8468;2,42419
2477,79565;2,41598
2475,74449;2,40577
2473,69334;2,39491
2471,64218;2,38449
2469,59103;2,37445
2467,53987;2,36681
2465,48872;2,36105
2463,43756;2,35444
2461,38641;2,34834
2459,33525;2,34338
2457,2841;2,33913
2455,23294;2,33479
2453,18178;2,32856
2451,13063;2,32283
2449,07947;2,3193
2447,02832;2,31528
2444,97716;2,31242
2442,92601;2,31202
2440,87485;2,30905
2438,8237;2,30172
2436,77254;2,29511
2434,72139;2,29379
2432,67023;2,29385
2430,61908;2,29017
2428,56792;2,28542
2426,51677;2,28252
2424,46561;2,28018
2422,41445;2,2767
2420,3633;2,27331
2418,31214;2,27154
2416,26099;2,27026
2414,20983;2,26854
2412,15868;2,26805
2410,10752;2,26971
2408,05637;2,26991
2406,00521;2,26594
2403,95406;2,26259
2401,9029;2,26249
2399,85175;2,26096
2397,80059;2,25809
2395,74944;2,25671
2393,69828;2,25705
2391,64712;2,25686
2389,59597;2,25599
2387,54481;2,25549
2385,49366;2,25516
2383,4425;2,25562
2381,39135;2,25634
2379,34019;2,25524
2377,28904;2,25433
2375,23788;2,25678
2373,18673;2,25927
2371,13557;2,25678
2369,08442;2,25385
2367,03326;2,2596
2364,9821;2,26892
2362,93095;2,26849
2360,87979;2,25942
2358,82864;2,2513
2356,77748;2,24935
2354,72633;2,25233
2352,67517;2,25591
2350,62402;2,25849
2348,57286;2,25991
2346,52171;2,25959
2344,47055;2,2594
2342,4194;2,26147
2340,36824;2,26289
2338,31709;2,26093
2336,26593;2,25699
2334,21477;2,25396
2332,16362;2,25459
2330,11246;2,25845
2328,06131;2,26283
2326,01015;2,26653
2323,959;2,26968
2321,90784;2,27185
2319,85669;2,27138
2317,80553;2,26924
2315,75438;2,26719
2313,70322;2,26477
2311,65207;2,26349
2309,60091;2,26476
2307,54976;2,26672
2305,4986;2,26776
2303,44744;2,26776
2301,39629;2,26713
2299,34513;2,26678
2297,29398;2,26651
2295,24282;2,26488
2293,19167;2,26199
2291,14051;2,25921
2289,08936;2,25751
2287,0382;2,2576
2284,98705;2,25934
2282,93589;2,26152
2280,88474;2,2628
2278,83358;2,26292
2276,78243;2,26359
2274,73127;2,26581
2272,68011;2,26772
2270,62896;2,26709
2268,5778;2,26472
2266,52665;2,26315
2264,47549;2,26373
2262,42434;2,2657
2260,37318;2,26713
2258,32203;2,26842
2256,27087;2,27037
2254,21972;2,2717
2252,16856;2,27232
2250,11741;2,27368
2248,06625;2,27499
2246,0151;2,27414
2243,96394;2,27366
2241,91278;2,27506
2239,86163;2,2761
2237,81047;2,27667
2235,75932;2,27879
2233,70816;2,28193
2231,65701;2,28456
2229,60585;2,28611
2227,5547;2,28741
2225,50354;2,28919
2223,45239;2,29027
2221,40123;2,29168
2219,35008;2,29461
2217,29892;2,29719
2215,24777;2,29929
2213,19661;2,30117
2211,14545;2,30174
2209,0943;2,30191
2207,04314;2,30307
2204,99199;2,30467
2202,94083;2,30472
2200,88968;2,30311
2198,83852;2,30284
2196,78737;2,3049
2194,73621;2,30799
2192,68506;2,31145
2190,6339;2,31458
2188,58275;2,31574
2186,53159;2,31508
2184,48044;2,31627
2182,42928;2,32068
2180,37812;2,32582
2178,32697;2,32925
2176,27581;2,33116
2174,22466;2,33335
2172,1735;2,33504
2170,12235;2,33611
2168,07119;2,33802
2166,02004;2,3418
2163,96888;2,34823
2161,91773;2,35513
2159,86657;2,36119
2157,81542;2,36784
2155,76426;2,37554
2153,71311;2,38321
2151,66195;2,38951
2149,61079;2,39301
2147,55964;2,39389
2145,50848;2,39513
2143,45733;2,39756
2141,40617;2,39971
2139,35502;2,39993
2137,30386;2,39756
2135,25271;2,39397
2133,20155;2,39029
2131,1504;2,38646
2129,09924;2,38202
2127,04809;2,37699
2124,99693;2,37228
2122,94578;2,36812
2120,89462;2,36304
2118,84346;2,35775
2116,79231;2,3547
2114,74115;2,35311
2112,69;2,3511
2110,63884;2,34869
2108,58769;2,34598
2106,53653;2,34341
2104,48538;2,34313
2102,43422;2,34506
2100,38307;2,34555
2098,33191;2,34464
2096,28076;2,34586
2094,2296;2,34787
2092,17844;2,3473
2090,12729;2,34538
2088,07613;2,34542
2086,02498;2,34699
2083,97382;2,34737
2081,92267;2,34702
2079,87151;2,34823
2077,82036;2,35089
2075,7692;2,35392
2073,71805;2,35815
2071,66689;2,36326
2069,61574;2,36676
2067,56458;2,36851
2065,51343;2,36925
2063,46227;2,37008
2061,41111;2,37309
2059,35996;2,37798
2057,3088;2,38265
2055,25765;2,38654
2053,20649;2,39015
2051,15534;2,39332
2049,10418;2,39674
2047,05303;2,40127
2045,00187;2,40633
2042,95072;2,41255
2040,89956;2,41913
2038,84841;2,42282
2036,79725;2,42519
2034,7461;2,42851
2032,69494;2,43118
2030,64378;2,43288
2028,59263;2,43468
2026,54147;2,43756
2024,49032;2,44193
2022,43916;2,44686
2020,38801;2,44957
2018,33685;2,44944
2016,2857;2,45126
2014,23454;2,45666
2012,18339;2,46136
2010,13223;2,46337
2008,08108;2,46426
2006,02992;2,46644
2003,97877;2,47074
2001,92761;2,4748
1999,87645;2,47597
1997,8253;2,4771
1995,77414;2,48191
1993,72299;2,4877
1991,67183;2,49246
1989,62068;2,49556
1987,56952;2,49322
1985,51837;2,48765
1983,46721;2,4844
1981,41606;2,48411
1979,3649;2,48411
1977,31375;2,48302
1975,26259;2,48074
1973,21144;2,47862
1971,16028;2,47684
1969,10912;2,47349
1967,05797;2,47149
1965,00681;2,47556
1962,95566;2,4824
1960,9045;2,48617
1958,85335;2,48351
1956,80219;2,47505
1954,75104;2,4653
1952,69988;2,45861
1950,64873;2,45608
1948,59757;2,45667
1946,54642;2,4601
1944,49526;2,46478
1942,44411;2,46663
1940,39295;2,46594
1938,34179;2,46622
1936,29064;2,47042
1934,23948;2,4756
1932,18833;2,47839
1930,13717;2,48212
1928,08602;2,48866
1926,03486;2,4946
1923,98371;2,4985
1921,93255;2,50469
1919,8814;2,51203
1917,83024;2,51593
1915,77909;2,51975
1913,72793;2,52572
1911,67678;2,53434
1909,62562;2,54496
1907,57446;2,55514
1905,52331;2,56329
1903,47215;2,57098
1901,421;2,57876
1899,36984;2,5868
1897,31869;2,59535
1895,26753;2,60391
1893,21638;2,61293
1891,16522;2,62101
1889,11407;2,62854
1887,06291;2,63718
1885,01176;2,6445
1882,9606;2,649
1880,90945;2,6508
1878,85829;2,65194
1876,80713;2,65458
1874,75598;2,65795
1872,70482;2,65921
1870,65367;2,65511
1868,60251;2,64889
1866,55136;2,64659
1864,5002;2,6454
1862,44905;2,64174
1860,39789;2,63539
1858,34674;2,62748
1856,29558;2,62133
1854,24443;2,6183
1852,19327;2,61595
1850,14212;2,61358
1848,09096;2,61189
1846,0398;2,6087
1843,98865;2,60707
1841,93749;2,61464
1839,88634;2,62499
1837,83518;2,63274
1835,78403;2,64059
1833,73287;2,64896
1831,68172;2,65408
1829,63056;2,65883
1827,57941;2,67007
1825,52825;2,68445
1823,4771;2,69863
1821,42594;2,70941
1819,37478;2,7168
1817,32363;2,72428
1815,27247;2,73508
1813,22132;2,74903
1811,17016;2,7646
1809,11901;2,78349
1807,06785;2,80271
1805,0167;2,81811
1802,96554;2,83225
1800,91439;2,84899
1798,86323;2,86628
1796,81208;2,87846
1794,76092;2,88511
1792,70977;2,89034
1790,65861;2,89642
1788,60745;2,89364
1786,5563;2,87914
1784,50514;2,86976
1782,45399;2,87417
1780,40283;2,88355
1778,35168;2,89202
1776,30052;2,89826
1774,24937;2,9043
1772,19821;2,91649
1770,14706;2,93259
1768,0959;2,945
1766,04475;2,96577
1763,99359;3,00191
1761,94244;3,04448
1759,89128;3,07625
1757,84012;3,09508
1755,78897;3,12657
1753,73781;3,17177
1751,68666;3,20385
1749,6355;3,21048
1747,58435;3,19848
1745,53319;3,18324
1743,48204;3,16532
1741,43088;3,14355
1739,37973;3,1361
1737,32857;3,14102
1735,27742;3,1274
1733,22626;3,10632
1731,17511;3,10289
1729,12395;3,10074
1727,07279;3,09151
1725,02164;3,08064
1722,97048;3,07695
1720,91933;3,08091
1718,86817;3,08382
1716,81702;3,08128
1714,76586;3,06452
1712,71471;3,04061
1710,66355;3,02834
1708,6124;3,03505
1706,56124;3,05149
1704,51009;3,06549
1702,45893;3,07164
1700,40778;3,08599
1698,35662;3,12602
1696,30546;3,153
1694,25431;3,14885
1692,20315;3,13661
1690,152;3,13734
1688,10084;3,1617
1686,04969;3,19046
1683,99853;3,2014
1681,94738;3,1982
1679,89622;3,191
1677,84507;3,19426
1675,79391;3,20934
1673,74276;3,2145
1671,6916;3,19132
1669,64045;3,16044
1667,58929;3,15218
1665,53813;3,15876
1663,48698;3,161
1661,43582;3,15535
1659,38467;3,14683
1657,33351;3,13827
1655,28236;3,12035
1653,2312;3,09549
1651,18005;3,0869
1649,12889;3,07284
1647,07774;3,05722
1645,02658;3,06684
1642,97543;3,07803
1640,92427;3,07483
1638,87312;3,07174
1636,82196;3,07294
1634,7708;3,07551
1632,71965;3,07768
1630,66849;3,06978
1628,61734;3,05171
1626,56618;3,03511
1624,51503;3,02229
1622,46387;3,01106
1620,41272;3,00263
1618,36156;2,9963
1616,31041;3,00128
1614,25925;3,01565
1612,2081;3,02036
1610,15694;3,01442
1608,10579;3,00516
1606,05463;2,99943
1604,00347;3,00199
1601,95232;3,00509
1599,90116;2,99857
1597,85001;2,98646
1595,79885;2,97912
1593,7477;2,98128
1591,69654;2,99079
1589,64539;3,00297
1587,59423;3,01467
1585,54308;3,02459
1583,49192;3,02939
1581,44077;3,02735
1579,38961;3,02486
1577,33846;3,02662
1575,2873;3,03564
1573,23614;3,04481
1571,18499;3,03974
1569,13383;3,02739
1567,08268;3,02026
1565,03152;3,01754
1562,98037;3,01829
1560,92921;3,00861
1558,87806;2,99288
1556,8269;2,99796
1554,77575;3,00375
1552,72459;3,00185
1550,67344;2,99699
1548,62228;2,99501
1546,57113;2,99888
1544,51997;3,00176
1542,46881;2,99434
1540,41766;2,98032
1538,3665;2,97866
1536,31535;2,97497
1534,26419;2,95734
1532,21304;2,95042
1530,16188;2,9582
1528,11073;2,9575
1526,05957;2,94965
1524,00842;2,95121
1521,95726;2,95656
1519,90611;2,95437
1517,85495;2,94517
1515,80379;2,93707
1513,75264;2,92875
1511,70148;2,91167
1509,65033;2,88325
1507,59917;2,85144
1505,54802;2,85039
1503,49686;2,87402
1501,44571;2,88502
1499,39455;2,87881
1497,3434;2,87265
1495,29224;2,88134
1493,24109;2,89202
1491,18993;2,8884
1489,13878;2,88081
1487,08762;2,8799
1485,03646;2,88355
1482,98531;2,89174
1480,93415;2,90832
1478,883;2,93025
1476,83184;2,94765
1474,78069;2,95822
1472,72953;2,96871
1470,67838;2,98904
1468,62722;3,00941
1466,57607;3,01476
1464,52491;3,00912
1462,47376;3,00743
1460,4226;3,01027
1458,37145;3,00787
1456,32029;2,9983
1454,26913;2,9926
1452,21798;2,98907
1450,16682;2,97904
1448,11567;2,96509
1446,06451;2,96161
1444,01336;2,965
1441,9622;2,96679
1439,91105;2,96926
1437,85989;2,96742
1435,80874;2,96237
1433,75758;2,9587
1431,70643;2,9506
1429,65527;2,94276
1427,60412;2,94139
1425,55296;2,94245
1423,5018;2,9517
1421,45065;2,96982
1419,39949;2,97886
1417,34834;2,97406
1415,29718;2,96134
1413,24603;2,94544
1411,19487;2,93366
1409,14372;2,92881
1407,09256;2,92748
1405,04141;2,93085
1402,99025;2,93794
1400,9391;2,94075
1398,88794;2,94356
1396,83679;2,95194
1394,78563;2,95942
1392,73447;2,9654
1390,68332;2,96742
1388,63216;2,96272
1386,58101;2,96001
1384,52985;2,96706
1382,4787;2,97735
1380,42754;2,98305
1378,37639;2,98267
1376,32523;2,97594
1374,27408;2,96461
1372,22292;2,95734
1370,17177;2,95436
1368,12061;2,94861
1366,06946;2,9401
1364,0183;2,93386
1361,96714;2,9348
1359,91599;2,93948
1357,86483;2,93798
1355,81368;2,9284
1353,76252;2,92286
1351,71137;2,92957
1349,66021;2,93622
1347,60906;2,93165
1345,5579;2,92428
1343,50675;2,92238
1341,45559;2,92003
1339,40444;2,91363
1337,35328;2,908
1335,30213;2,90285
1333,25097;2,89817
1331,19981;2,89698
1329,14866;2,89868
1327,0975;2,89982
1325,04635;2,89999
1322,99519;2,89744
1320,94404;2,89236
1318,89288;2,88802
1316,84173;2,88495
1314,79057;2,88741
1312,73942;2,89322
1310,68826;2,89004
1308,63711;2,87634
1306,58595;2,86222
1304,5348;2,85569
1302,48364;2,85376
1300,43248;2,84696
1298,38133;2,8393
1296,33017;2,83656
1294,27902;2,83144
1292,22786;2,82031
1290,17671;2,80705
1288,12555;2,79804
1286,0744;2,79292
1284,02324;2,78175
1281,97209;2,76806
1279,92093;2,76712
1277,86978;2,77938
1275,81862;2,7918
1273,76747;2,79544
1271,71631;2,7878
1269,66515;2,7786
1267,614;2,78291
1265,56284;2,79655
1263,51169;2,8054
1261,46053;2,81066
1259,40938;2,81828
1257,35822;2,82886
1255,30707;2,83987
1253,25591;2,8438
1251,20476;2,84059
1249,1536;2,83631
1247,10245;2,83677
1245,05129;2,84819
1243,00013;2,86406
1240,94898;2,87516
1238,89782;2,87567
1236,84667;2,86446
1234,79551;2,85455
1232,74436;2,84946
1230,6932;2,84206
1228,64205;2,83822
1226,59089;2,84062
1224,53974;2,84094
1222,48858;2,8355
1220,43743;2,82548
1218,38627;2,818
1216,33512;2,82095
1214,28396;2,82612
1212,2328;2,82024
1210,18165;2,80651
1208,13049;2,7962
1206,07934;2,79106
1204,02818;2,79102
1201,97703;2,79654
1199,92587;2,79764
1197,87472;2,78743
1195,82356;2,77565
1193,77241;2,76557
1191,72125;2,75748
1189,6701;2,75853
1187,61894;2,76161
1185,56779;2,75526
1183,51663;2,74294
1181,46547;2,73252
1179,41432;2,72412
1177,36316;2,71565
1175,31201;2,7104
1173,26085;2,71325
1171,2097;2,71918
1169,15854;2,72201
1167,10739;2,72651
1165,05623;2,73925
1163,00508;2,76301
1160,95392;2,79821
1158,90277;2,84612
1156,85161;2,89474
1154,80046;2,91691
1152,7493;2,90706
1150,69814;2,87882
1148,64699;2,84749
1146,59583;2,8203
1144,54468;2,79343
1142,49352;2,76487
1140,44237;2,73719
1138,39121;2,70971
1136,34006;2,68029
1134,2889;2,65439
1132,23775;2,63868
1130,18659;2,63313
1128,13544;2,63132
1126,08428;2,6273
1124,03313;2,62117
1121,98197;2,61431
1119,93081;2,60945
1117,87966;2,60797
1115,8285;2,60629
1113,77735;2,60019
1111,72619;2,59093
1109,67504;2,5821
1107,62388;2,57764
1105,57273;2,58014
1103,52157;2,58412
1101,47042;2,58569
1099,41926;2,58857
1097,36811;2,59311
1095,31695;2,59773
1093,2658;2,60139
1091,21464;2,60269
1089,16348;2,60264
1087,11233;2,60099
1085,06117;2,59441
1083,01002;2,5819
1080,95886;2,57184
1078,90771;2,5692
1076,85655;2,56632
1074,8054;2,56299
1072,75424;2,56578
1070,70309;2,56752
1068,65193;2,56093
1066,60078;2,55541
1064,54962;2,55846
1062,49847;2,56491
1060,44731;2,56746
1058,39615;2,56603
1056,345;2,57002
1054,29384;2,58839
1052,24269;2,61761
1050,19153;2,64561
1048,14038;2,66778
1046,08922;2,69132
1044,03807;2,72361
1041,98691;2,75996
1039,93576;2,78734
1037,8846;2,80523
1035,83345;2,8249
1033,78229;2,84889
1031,73114;2,86435
1029,67998;2,85223
1027,62882;2,81714
1025,57767;2,78396
1023,52651;2,7542
1021,47536;2,71922
1019,4242;2,68679
1017,37305;2,66443
1015,32189;2,64995
1013,27074;2,63542
1011,21958;2,62126
1009,16843;2,61726
1007,11727;2,62247
1005,06612;2,62785
1003,01496;2,63296
1000,96381;2,63952
998,91265;2,64782
996,86149;2,66093
994,81034;2,67922
992,75918;2,69636
990,70803;2,70543
988,65687;2,71144
986,60572;2,72245
984,55456;2,73479
982,50341;2,74302
980,45225;2,74803
978,4011;2,74797
976,34994;2,74517
974,29879;2,75059
972,24763;2,75555
970,19647;2,74642
968,14532;2,73624
966,09416;2,73927
964,04301;2,74967
961,99185;2,75117
959,9407;2,74352
957,88954;2,73992
955,83839;2,74241
953,78723;2,74641
951,73608;2,74958
949,68492;2,75161
947,63377;2,75289
945,58261;2,7565
943,53146;2,7648
941,4803;2,76874
939,42914;2,76136
937,37799;2,75341
935,32683;2,75985
933,27568;2,77365
931,22452;2,77504
929,17337;2,76649
927,12221;2,76247
925,07106;2,76936
923,0199;2,77785
920,96875;2,77876
918,91759;2,77904
916,86644;2,78354
914,81528;2,79363
912,76413;2,80445
910,71297;2,80292
908,66181;2,79167
906,61066;2,78436
904,5595;2,7885
902,50835;2,80101
900,45719;2,80939
898,40604;2,80991
896,35488;2,81146
894,30373;2,80994
892,25257;2,79794
890,20142;2,78615
888,15026;2,77732
886,09911;2,76938
884,04795;2,77534
881,9968;2,78844
879,94564;2,78891
877,89448;2,78791
875,84333;2,79239
873,79217;2,79488
871,74102;2,80264
869,68986;2,81607
867,63871;2,82467
865,58755;2,82875
863,5364;2,82844
861,48524;2,81725
859,43409;2,80787
857,38293;2,81828
855,33178;2,83635
853,28062;2,8449
851,22947;2,8493
849,17831;2,85859
847,12715;2,86883
845,076;2,8747
843,02484;2,87237
840,97369;2,8712
838,92253;2,88284
836,87138;2,89445
834,82022;2,89931
832,76907;2,90888
830,71791;2,92739
828,66676;2,94684
826,6156;2,95275
824,56445;2,94317
822,51329;2,94018
820,46214;2,95007
818,41098;2,95021
816,35982;2,95147
814,30867;2,97407
812,25751;2,99742
810,20636;3,00707
808,1552;3,01299
806,10405;3,02564
804,05289;3,03838
802,00174;3,02542
799,95058;3,01135
797,89943;3,03308
795,84827;3,053
793,79712;3,05014
791,74596;3,04853
789,69481;3,0482
787,64365;3,04169
785,59249;3,03116
783,54134;3,01618
781,49018;2,99582
779,43903;2,98674
777,38787;2,99372
775,33672;3,00395
773,28556;3,02176
771,23441;3,05354
769,18325;3,0836
767,1321;3,08855
765,08094;3,0779
763,02979;3,07845
760,97863;3,07539
758,92748;3,05746
756,87632;3,05027
754,82516;3,0636
752,77401;3,07015
750,72285;3,0576
748,6717;3,03259
746,62054;3,00755
744,56939;3,00316
742,51823;3,02179
740,46708;3,01516
738,41592;2,98324
736,36477;2,97832
734,31361;3,00531
732,26246;3,04391
730,2113;3,04981
728,16015;3,00691
726,10899;2,97857
724,05783;2,9833
722,00668;2,99186
719,95552;3,00992
717,90437;3,05518
715,85321;3,09128
713,80206;3,09051
711,7509;3,07911
709,69975;3,06839
707,64859;3,05766
705,59744;3,04848
703,54628;3,02726
701,49513;2,99691
699,44397;2,98568
697,39281;3,02006
695,34166;3,08879
693,2905;3,12752
691,23935;3,11405
689,18819;3,09125
687,13704;3,07741
685,08588;3,06417
683,03473;3,04006
680,98357;3,00528
678,93242;2,97457
676,88126;2,94164
674,83011;2,89275
672,77895;2,83991
670,7278;2,80805
668,67664;2,80122
666,62548;2,79747
664,57433;2,78678
662,52317;2,78142
660,47202;2,7983
658,42086;2,82903
656,36971;2,86192
654,31855;2,89751
652,2674;2,90819
650,21624;2,88012
648,16509;2,85557
646,11393;2,87222
644,06278;2,91394
642,01162;2,93806
639,96047;2,93699
637,90931;2,93379
635,85815;2,95113
633,807;2,99375
631,75584;3,0152
629,70469;2,98219
627,65353;2,93121
625,60238;2,90775
623,55122;2,90985
621,50007;2,92545
619,44891;2,93628
617,39776;2,93738
615,3466;2,93901
613,29545;2,95696
611,24429;2,97399
609,19314;3,00254
607,14198;3,02143
605,09082;2,96917
603,03967;2,93947
600,98851;3,01137
598,93736;3,11685
596,8862;3,13911
594,83505;3,11654
592,78389;3,11914
590,73274;3,10413
588,68158;3,02228
586,63043;2,94334
584,57927;2,93436
582,52812;2,97143
580,47696;3,02335
578,42581;3,05194
576,37465;3,07209
574,32349;3,14191
572,27234;3,21183
570,22118;3,20922
568,17003;3,17353
566,11887;3,2464
564,06772;3,32359
562,01656;3,19873
559,96541;3,08588
557,91425;3,03617
555,8631;3,02453
553,81194;3,03778
551,76079;3,02536
549,70963;3,00491
547,65848;3,00193
545,60732;2,97684
543,55616;2,94343
541,50501;2,94528
539,45385;2,99931
537,4027;3,03925
535,35154;3,01744
533,30039;2,97223
531,24923;2,93029
529,19808;2,87867
527,14692;2,82913
525,09577;2,79585
523,04461;2,78061
520,99346;2,76894
518,9423;2,75143
516,89115;2,75801
514,83999;2,81512
512,78883;2,88892
510,73768;2,9156
508,68652;2,89327
506,63537;2,88328
504,58421;2,86522
502,53306;2,78884
500,4819;2,70922
498,43075;2,66639
496,37959;2,62854
494,32844;2,58691
492,27728;2,55754
490,22613;2,53293
488,17497;2,50721
486,12382;2,49374
484,07266;2,49712
482,0215;2,50945
479,97035;2,53343
477,91919;2,57697
475,86804;2,61664
473,81688;2,6158
471,76573;2,60846
469,71457;2,64377
467,66342;2,67708
465,61226;2,66011
463,56111;2,63358
461,50995;2,63081
459,4588;2,63073
457,40764;2,62242
455,35649;2,64599
453,30533;2,70582
451,25417;2,7497
449,20302;2,7284
447,15186;2,69064
445,10071;2,7209
443,04955;2,78385
440,9984;2,80096
438,94724;2,79419
436,89609;2,75873
434,84493;2,683
432,79378;2,61846
430,74262;2,59272
428,69147;2,58968
426,64031;2,57394
424,58916;2,55313
422,538;2,55935
420,48684;2,59922
418,43569;2,65704
416,38453;2,67885
414,33338;2,68077
412,28222;2,70262
410,23107;2,73532
408,17991;2,76585
406,12876;2,7186
404,0776;2,63552
402,02645;2,62773
399,97529;2,6721
