3997,70175;1,69923
3995,6506;1,69943
3993,59944;1,70016
3991,54829;1,70138
3989,49713;1,70233
3987,44598;1,70243
3985,39482;1,7025
3983,34367;1,70329
3981,29251;1,70437
3979,24136;1,70521
3977,1902;1,70583
3975,13905;1,70698
3973,08789;1,70904
3971,03673;1,71102
3968,98558;1,7124
3966,93442;1,71392
3964,88327;1,71597
3962,83211;1,71802
3960,78096;1,71955
3958,7298;1,72106
3956,67865;1,72313
3954,62749;1,72546
3952,57634;1,72727
3950,52518;1,7281
3948,47403;1,72793
3946,42287;1,72734
3944,37172;1,72734
3942,32056;1,72763
3940,2694;1,72757
3938,21825;1,72741
3936,16709;1,72742
3934,11594;1,72709
3932,06478;1,72487
3930,01363;1,72059
3927,96247;1,71648
3925,91132;1,71306
3923,86016;1,70949
3921,80901;1,70678
3919,75785;1,70521
3917,7067;1,70267
3915,65554;1,69879
3913,60439;1,69578
3911,55323;1,69403
3909,50207;1,69288
3907,45092;1,692
3905,39976;1,6894
3903,34861;1,68504
3901,29745;1,68267
3899,2463;1,68282
3897,19514;1,68361
3895,14399;1,68405
3893,09283;1,68269
3891,04168;1,67986
3888,99052;1,67897
3886,93937;1,6792
3884,88821;1,67751
3882,83706;1,67636
3880,7859;1,67662
3878,73474;1,67674
3876,68359;1,67785
3874,63243;1,67926
3872,58128;1,68007
3870,53012;1,67954
3868,47897;1,67703
3866,42781;1,67526
3864,37666;1,67414
3862,3255;1,672
3860,27435;1,67022
3858,22319;1,67056
3856,17204;1,67197
3854,12088;1,67006
3852,06973;1,66556
3850,01857;1,66524
3847,96741;1,66798
3845,91626;1,66961
3843,8651;1,66924
3841,81395;1,66777
3839,76279;1,66572
3837,71164;1,66387
3835,66048;1,66401
3833,60933;1,66539
3831,55817;1,66578
3829,50702;1,66527
3827,45586;1,66435
3825,40471;1,66338
3823,35355;1,66331
3821,3024;1,66319
3819,25124;1,66407
3817,20008;1,66675
3815,14893;1,66753
3813,09777;1,66745
3811,04662;1,66904
3808,99546;1,67011
3806,94431;1,66904
3804,89315;1,66907
3802,842;1,67086
3800,79084;1,67097
3798,73969;1,67123
3796,68853;1,67259
3794,63738;1,6732
3792,58622;1,67361
3790,53506;1,67422
3788,48391;1,67458
3786,43275;1,67439
3784,3816;1,67414
3782,33044;1,6753
3780,27929;1,67719
3778,22813;1,67837
3776,17698;1,67975
3774,12582;1,6813
3772,07467;1,68198
3770,02351;1,68199
3767,97236;1,68258
3765,9212;1,68386
3763,87005;1,68499
3761,81889;1,68571
3759,76773;1,6854
3757,71658;1,68501
3755,66542;1,68625
3753,61427;1,68795
3751,56311;1,68831
3749,51196;1,68879
3747,4608;1,6925
3745,40965;1,69713
3743,35849;1,69836
3741,30734;1,69887
3739,25618;1,70132
3737,20503;1,70302
3735,15387;1,70282
3733,10272;1,70472
3731,05156;1,71026
3729,0004;1,71662
3726,94925;1,72112
3724,89809;1,72285
3722,84694;1,72392
3720,79578;1,72608
3718,74463;1,72852
3716,69347;1,73099
3714,64232;1,73444
3712,59116;1,73833
3710,54001;1,74174
3708,48885;1,74625
3706,4377;1,75286
3704,38654;1,76191
3702,33539;1,77509
3700,28423;1,7925
3698,23307;1,80913
3696,18192;1,81967
3694,13076;1,82389
3692,07961;1,82462
3690,02845;1,82285
3687,9773;1,82023
3685,92614;1,82118
3683,87499;1,82547
3681,82383;1,83035
3679,77268;1,83592
3677,72152;1,84332
3675,67037;1,85143
3673,61921;1,86007
3671,56806;1,8706
3669,5169;1,88083
3667,46574;1,88991
3665,41459;1,90025
3663,36343;1,9108
3661,31228;1,91982
3659,26112;1,92907
3657,20997;1,9391
3655,15881;1,94821
3653,10766;1,95734
3651,0565;1,96731
3649,00535;1,97813
3646,95419;1,9918
3644,90304;2,00684
3642,85188;2,01915
3640,80073;2,02655
3638,74957;2,03056
3636,69841;2,03504
3634,64726;2,04081
3632,5961;2,04565
3630,54495;2,04878
3628,49379;2,05188
3626,44264;2,05824
3624,39148;2,06764
3622,34033;2,0771
3620,28917;2,0847
3618,23802;2,09007
3616,18686;2,0945
3614,13571;2,0986
3612,08455;2,10266
3610,0334;2,10823
3607,98224;2,11545
3605,93108;2,1234
3603,87993;2,13068
3601,82877;2,13441
3599,77762;2,1355
3597,72646;2,13931
3595,67531;2,14612
3593,62415;2,15252
3591,573;2,15849
3589,52184;2,16409
3587,47069;2,16752
3585,41953;2,17004
3583,36838;2,1745
3581,31722;2,18045
3579,26607;2,18608
3577,21491;2,19095
3575,16375;2,19606
3573,1126;2,20183
3571,06144;2,20836
3569,01029;2,2162
3566,95913;2,22335
3564,90798;2,22721
3562,85682;2,2296
3560,80567;2,23056
3558,75451;2,23135
3556,70336;2,23586
3554,6522;2,24186
3552,60105;2,24489
3550,54989;2,24776
3548,49874;2,2541
3546,44758;2,25945
3544,39642;2,26029
3542,34527;2,26143
3540,29411;2,26607
3538,24296;2,27225
3536,1918;2,27775
3534,14065;2,28186
3532,08949;2,2854
3530,03834;2,28828
3527,98718;2,29045
3525,93603;2,29365
3523,88487;2,29707
3521,83372;2,29994
3519,78256;2,30279
3517,73141;2,30357
3515,68025;2,30315
3513,62909;2,3064
3511,57794;2,31124
3509,52678;2,31101
3507,47563;2,30872
3505,42447;2,31221
3503,37332;2,3212
3501,32216;2,32973
3499,27101;2,33469
3497,21985;2,33638
3495,1687;2,33588
3493,11754;2,33623
3491,06639;2,33925
3489,01523;2,34186
3486,96407;2,34342
3484,91292;2,34657
3482,86176;2,34929
3480,81061;2,35121
3478,75945;2,35404
3476,7083;2,35574
3474,65714;2,35701
3472,60599;2,35944
3470,55483;2,36135
3468,50368;2,36292
3466,45252;2,36412
3464,40137;2,36348
3462,35021;2,3619
3460,29906;2,36044
3458,2479;2,36049
3456,19674;2,36402
3454,14559;2,36903
3452,09443;2,37252
3450,04328;2,37193
3447,99212;2,36884
3445,94097;2,36966
3443,88981;2,37323
3441,83866;2,37667
3439,7875;2,38106
3437,73635;2,38385
3435,68519;2,38544
3433,63404;2,38879
3431,58288;2,3909
3429,53173;2,38946
3427,48057;2,38781
3425,42941;2,38837
3423,37826;2,39089
3421,3271;2,39476
3419,27595;2,39841
3417,22479;2,40005
3415,17364;2,40014
3413,12248;2,3994
3411,07133;2,39794
3409,02017;2,39767
3406,96902;2,39965
3404,91786;2,40321
3402,86671;2,40773
3400,81555;2,41113
3398,7644;2,41137
3396,71324;2,40779
3394,66208;2,40362
3392,61093;2,40193
3390,55977;2,40138
3388,50862;2,40166
3386,45746;2,40322
3384,40631;2,40438
3382,35515;2,40698
3380,304;2,41201
3378,25284;2,4146
3376,20169;2,41411
3374,15053;2,4154
3372,09938;2,41885
3370,04822;2,42158
3367,99707;2,42275
3365,94591;2,42152
3363,89475;2,41861
3361,8436;2,41803
3359,79244;2,41979
3357,74129;2,42138
3355,69013;2,42358
3353,63898;2,4266
3351,58782;2,43017
3349,53667;2,43425
3347,48551;2,43749
3345,43436;2,44081
3343,3832;2,44306
3341,33205;2,44049
3339,28089;2,43792
3337,22974;2,4405
3335,17858;2,44262
3333,12742;2,44197
3331,07627;2,44437
3329,02511;2,44862
3326,97396;2,45049
3324,9228;2,45232
3322,87165;2,45691
3320,82049;2,46199
3318,76934;2,46319
3316,71818;2,46089
3314,66703;2,45939
3312,61587;2,46002
3310,56472;2,46231
3308,51356;2,46584
3306,46241;2,46796
3304,41125;2,46805
3302,36009;2,46714
3300,30894;2,46726
3298,25778;2,47014
3296,20663;2,47215
3294,15547;2,47061
3292,10432;2,46661
3290,05316;2,46319
3288,00201;2,46154
3285,95085;2,46051
3283,8997;2,46141
3281,84854;2,46372
3279,79739;2,46391
3277,74623;2,4616
3275,69508;2,45888
3273,64392;2,4571
3271,59276;2,45414
3269,54161;2,44848
3267,49045;2,44449
3265,4393;2,44433
3263,38814;2,4453
3261,33699;2,44442
3259,28583;2,44096
3257,23468;2,43798
3255,18352;2,43674
3253,13237;2,43429
3251,08121;2,42837
3249,03006;2,42168
3246,9789;2,41763
3244,92775;2,41371
3242,87659;2,40766
3240,82543;2,40225
3238,77428;2,39942
3236,72312;2,40069
3234,67197;2,40431
3232,62081;2,40428
3230,56966;2,40086
3228,5185;2,39871
3226,46735;2,39818
3224,41619;2,39634
3222,36504;2,39185
3220,31388;2,3878
3218,26273;2,38833
3216,21157;2,392
3214,16041;2,39247
3212,10926;2,38817
3210,0581;2,38358
3208,00695;2,3803
3205,95579;2,37801
3203,90464;2,37608
3201,85348;2,37325
3199,80233;2,37057
3197,75117;2,36779
3195,70002;2,36569
3193,64886;2,36599
3191,59771;2,36552
3189,54655;2,36219
3187,4954;2,35899
3185,44424;2,35736
3183,39308;2,35502
3181,34193;2,35149
3179,29077;2,34746
3177,23962;2,34287
3175,18846;2,33898
3173,13731;2,33595
3171,08615;2,33224
3169,035;2,32779
3166,98384;2,32378
3164,93269;2,32084
3162,88153;2,31935
3160,83038;2,3192
3158,77922;2,31886
3156,72807;2,31647
3154,67691;2,31179
3152,62575;2,30746
3150,5746;2,30639
3148,52344;2,30566
3146,47229;2,30146
3144,42113;2,29806
3142,36998;2,29715
3140,31882;2,29472
3138,26767;2,29119
3136,21651;2,28874
3134,16536;2,28821
3132,1142;2,28875
3130,06305;2,28704
3128,01189;2,28368
3125,96074;2,28257
3123,90958;2,2827
3121,85842;2,28136
3119,80727;2,27857
3117,75611;2,27562
3115,70496;2,27477
3113,6538;2,27526
3111,60265;2,27421
3109,55149;2,27214
3107,50034;2,27054
3105,44918;2,27027
3103,39803;2,27138
3101,34687;2,27146
3099,29572;2,27066
3097,24456;2,27187
3095,19341;2,27324
3093,14225;2,27165
3091,09109;2,26993
3089,03994;2,27054
3086,98878;2,27015
3084,93763;2,26871
3082,88647;2,26901
3080,83532;2,26948
3078,78416;2,2703
3076,73301;2,2731
3074,68185;2,2758
3072,6307;2,27615
3070,57954;2,27465
3068,52839;2,27283
3066,47723;2,27105
3064,42608;2,26921
3062,37492;2,26761
3060,32376;2,26753
3058,27261;2,26892
3056,22145;2,26821
3054,1703;2,26377
3052,11914;2,2594
3050,06799;2,25822
3048,01683;2,25785
3045,96568;2,25525
3043,91452;2,25074
3041,86337;2,2466
3039,81221;2,24389
3037,76106;2,24123
3035,7099;2,23909
3033,65875;2,23854
3031,60759;2,23786
3029,55643;2,23606
3027,50528;2,2337
3025,45412;2,23065
3023,40297;2,22761
3021,35181;2,22562
3019,30066;2,22252
3017,2495;2,21782
3015,19835;2,21597
3013,14719;2,2176
3011,09604;2,21759
3009,04488;2,21488
3006,99373;2,21419
3004,94257;2,21615
3002,89142;2,21777
3000,84026;2,21948
2998,7891;2,22228
2996,73795;2,22583
2994,68679;2,22945
2992,63564;2,23198
2990,58448;2,23369
2988,53333;2,23721
2986,48217;2,24442
2984,43102;2,25218
2982,37986;2,25755
2980,32871;2,26244
2978,27755;2,26689
2976,2264;2,26877
2974,17524;2,27124
2972,12409;2,27743
2970,07293;2,28481
2968,02177;2,29141
2965,97062;2,2961
2963,91946;2,29824
2961,86831;2,29827
2959,81715;2,29545
2957,766;2,29078
2955,71484;2,28538
2953,66369;2,2796
2951,61253;2,27517
2949,56138;2,27223
2947,51022;2,26974
2945,45907;2,26631
2943,40791;2,26338
2941,35675;2,26457
2939,3056;2,26823
2937,25444;2,27187
2935,20329;2,27545
2933,15213;2,27686
2931,10098;2,27468
2929,04982;2,27181
2926,99867;2,26944
2924,94751;2,26587
2922,89636;2,26159
2920,8452;2,25711
2918,79405;2,25227
2916,74289;2,2474
2914,69174;2,24217
2912,64058;2,2354
2910,58942;2,22835
2908,53827;2,22347
2906,48711;2,21915
2904,43596;2,21504
2902,3848;2,21226
2900,33365;2,2088
2898,28249;2,20434
2896,23134;2,20057
2894,18018;2,19814
2892,12903;2,1968
2890,07787;2,19637
2888,02672;2,1983
2885,97556;2,2033
2883,92441;2,20775
2881,87325;2,20847
2879,82209;2,20791
2877,77094;2,20977
2875,71978;2,21369
2873,66863;2,21586
2871,61747;2,21331
2869,56632;2,20711
2867,51516;2,20037
2865,46401;2,19452
2863,41285;2,18901
2861,3617;2,18398
2859,31054;2,18028
2857,25939;2,17773
2855,20823;2,17502
2853,15708;2,16994
2851,10592;2,16307
2849,05476;2,15765
2847,00361;2,15346
2844,95245;2,1481
2842,9013;2,14206
2840,85014;2,1366
2838,79899;2,13077
2836,74783;2,12544
2834,69668;2,12141
2832,64552;2,11636
2830,59437;2,11143
2828,54321;2,10923
2826,49206;2,10818
2824,4409;2,10626
2822,38975;2,10351
2820,33859;2,10086
2818,28743;2,09872
2816,23628;2,09717
2814,18512;2,09539
2812,13397;2,09136
2810,08281;2,0873
2808,03166;2,08637
2805,9805;2,08637
2803,92935;2,08524
2801,87819;2,08302
2799,82704;2,08001
2797,77588;2,07711
2795,72473;2,07432
2793,67357;2,0722
2791,62242;2,07109
2789,57126;2,06962
2787,5201;2,06802
2785,46895;2,06644
2783,41779;2,06461
2781,36664;2,0634
2779,31548;2,06157
2777,26433;2,05879
2775,21317;2,05691
2773,16202;2,05535
2771,11086;2,05304
2769,05971;2,0514
2767,00855;2,05097
2764,9574;2,04974
2762,90624;2,04663
2760,85509;2,04281
2758,80393;2,0399
2756,75277;2,03851
2754,70162;2,03771
2752,65046;2,03718
2750,59931;2,03663
2748,54815;2,03491
2746,497;2,03362
2744,44584;2,03376
2742,39469;2,03304
2740,34353;2,03124
2738,29238;2,03003
2736,24122;2,02899
2734,19007;2,02698
2732,13891;2,02527
2730,08776;2,02489
2728,0366;2,02427
2725,98544;2,02231
2723,93429;2,0203
2721,88313;2,01864
2719,83198;2,01688
2717,78082;2,01624
2715,72967;2,01687
2713,67851;2,01727
2711,62736;2,01712
2709,5762;2,01658
2707,52505;2,01527
2705,47389;2,01357
2703,42274;2,01223
2701,37158;2,01095
2699,32043;2,01008
2697,26927;2,0098
2695,21811;2,00878
2693,16696;2,00798
2691,1158;2,00888
2689,06465;2,00974
2687,01349;2,00909
2684,96234;2,00764
2682,91118;2,00686
2680,86003;2,00676
2678,80887;2,00636
2676,75772;2,00606
2674,70656;2,00594
2672,65541;2,00541
2670,60425;2,00486
2668,55309;2,0052
2666,50194;2,00625
2664,45078;2,00693
2662,39963;2,00703
2660,34847;2,00711
2658,29732;2,007
2656,24616;2,00676
2654,19501;2,00676
2652,14385;2,00674
2650,0927;2,0071
2648,04154;2,00765
2645,99039;2,00746
2643,93923;2,00732
2641,88808;2,00859
2639,83692;2,01165
2637,78576;2,0158
2635,73461;2,01894
2633,68345;2,02097
2631,6323;2,0237
2629,58114;2,02698
2627,52999;2,03009
2625,47883;2,03259
2623,42768;2,03426
2621,37652;2,03571
2619,32537;2,03758
2617,27421;2,0397
2615,22306;2,04164
2613,1719;2,04317
2611,12075;2,04418
2609,06959;2,04643
2607,01843;2,05018
2604,96728;2,05282
2602,91612;2,05331
2600,86497;2,05312
2598,81381;2,05309
2596,76266;2,05268
2594,7115;2,05315
2592,66035;2,05453
2590,60919;2,05489
2588,55804;2,05472
2586,50688;2,05424
2584,45573;2,05333
2582,40457;2,05328
2580,35342;2,05388
2578,30226;2,05396
2576,2511;2,05351
2574,19995;2,05391
2572,14879;2,05584
2570,09764;2,05755
2568,04648;2,05715
2565,99533;2,05524
2563,94417;2,05401
2561,89302;2,05353
2559,84186;2,05346
2557,79071;2,05522
2555,73955;2,05686
2553,6884;2,05621
2551,63724;2,05606
2549,58609;2,05778
2547,53493;2,05959
2545,48377;2,06094
2543,43262;2,06233
2541,38146;2,06386
2539,33031;2,06546
2537,27915;2,06787
2535,228;2,07166
2533,17684;2,0756
2531,12569;2,07843
2529,07453;2,08088
2527,02338;2,0834
2524,97222;2,08574
2522,92107;2,08781
2520,86991;2,08858
2518,81876;2,08832
2516,7676;2,08908
2514,71644;2,09154
2512,66529;2,09284
2510,61413;2,09137
2508,56298;2,08985
2506,51182;2,08823
2504,46067;2,08501
2502,40951;2,08196
2500,35836;2,07945
2498,3072;2,07636
2496,25605;2,07215
2494,20489;2,06694
2492,15374;2,06222
2490,10258;2,05856
2488,05143;2,05487
2486,00027;2,05072
2483,94911;2,047
2481,89796;2,04322
2479,8468;2,03772
2477,79565;2,03202
2475,74449;2,02848
2473,69334;2,02495
2471,64218;2,01903
2469,59103;2,01309
2467,53987;2,01002
2465,48872;2,00851
2463,43756;2,0058
2461,38641;2,00254
2459,33525;2
2457,2841;1,99713
2455,23294;1,99327
2453,18178;1,98981
2451,13063;1,9882
2449,07947;1,98718
2447,02832;1,98501
2444,97716;1,98272
2442,92601;1,9812
2440,87485;1,97958
2438,8237;1,97758
2436,77254;1,97558
2434,72139;1,97381
2432,67023;1,97253
2430,61908;1,97128
2428,56792;1,96946
2426,51677;1,96776
2424,46561;1,96675
2422,41445;1,96579
2420,3633;1,96392
2418,31214;1,96155
2416,26099;1,96031
2414,20983;1,96079
2412,15868;1,96142
2410,10752;1,96073
2408,05637;1,95996
2406,00521;1,96006
2403,95406;1,95997
2401,9029;1,95935
2399,85175;1,95886
2397,80059;1,95842
2395,74944;1,95746
2393,69828;1,95605
2391,64712;1,95517
2389,59597;1,95537
2387,54481;1,95618
2385,49366;1,95701
2383,4425;1,95749
2381,39135;1,95765
2379,34019;1,95779
2377,28904;1,95785
2375,23788;1,95799
2373,18673;1,9591
2371,13557;1,96089
2369,08442;1,96131
2367,03326;1,95996
2364,9821;1,95988
2362,93095;1,96299
2360,87979;1,96551
2358,82864;1,96358
2356,77748;1,96017
2354,72633;1,9595
2352,67517;1,96149
2350,62402;1,96449
2348,57286;1,96709
2346,52171;1,96795
2344,47055;1,96697
2342,4194;1,96553
2340,36824;1,96497
2338,31709;1,96577
2336,26593;1,96694
2334,21477;1,96681
2332,16362;1,96491
2330,11246;1,96341
2328,06131;1,96517
2326,01015;1,96873
2323,959;1,96974
2321,90784;1,9677
2319,85669;1,96658
2317,80553;1,96839
2315,75438;1,97093
2313,70322;1,97208
2311,65207;1,97197
2309,60091;1,97127
2307,54976;1,97059
2305,4986;1,97075
2303,44744;1,97141
2301,39629;1,97162
2299,34513;1,97168
2297,29398;1,972
2295,24282;1,97256
2293,19167;1,97326
2291,14051;1,97368
2289,08936;1,97356
2287,0382;1,97265
2284,98705;1,9714
2282,93589;1,97142
2280,88474;1,97302
2278,83358;1,97471
2276,78243;1,97571
2274,73127;1,97656
2272,68011;1,97768
2270,62896;1,97834
2268,5778;1,97812
2266,52665;1,97803
2264,47549;1,97892
2262,42434;1,98034
2260,37318;1,9817
2258,32203;1,98297
2256,27087;1,98373
2254,21972;1,98353
2252,16856;1,98358
2250,11741;1,98505
2248,06625;1,98718
2246,0151;1,98817
2243,96394;1,98839
2241,91278;1,98868
2239,86163;1,98895
2237,81047;1,98967
2235,75932;1,99128
2233,70816;1,99313
2231,65701;1,99495
2229,60585;1,99656
2227,5547;1,99729
2225,50354;1,99723
2223,45239;1,99791
2221,40123;1,99988
2219,35008;2,00147
2217,29892;2,00145
2215,24777;2,0008
2213,19661;2,0012
2211,14545;2,00291
2209,0943;2,00485
2207,04314;2,00641
2204,99199;2,008
2202,94083;2,00932
2200,88968;2,0097
2198,83852;2,01007
2196,78737;2,0115
2194,73621;2,0132
2192,68506;2,01436
2190,6339;2,01578
2188,58275;2,01758
2186,53159;2,01894
2184,48044;2,02028
2182,42928;2,02227
2180,37812;2,02479
2178,32697;2,02747
2176,27581;2,02975
2174,22466;2,0314
2172,1735;2,03293
2170,12235;2,03538
2168,07119;2,03962
2166,02004;2,04535
2163,96888;2,04956
2161,91773;2,05071
2159,86657;2,05184
2157,81542;2,05528
2155,76426;2,06
2153,71311;2,06405
2151,66195;2,06691
2149,61079;2,0689
2147,55964;2,0702
2145,50848;2,07197
2143,45733;2,07434
2141,40617;2,07504
2139,35502;2,07388
2137,30386;2,07328
2135,25271;2,07356
2133,20155;2,07328
2131,1504;2,07189
2129,09924;2,06997
2127,04809;2,06785
2124,99693;2,06575
2122,94578;2,06455
2120,89462;2,06372
2118,84346;2,06192
2116,79231;2,05939
2114,74115;2,0573
2112,69;2,05668
2110,63884;2,05742
2108,58769;2,05843
2106,53653;2,05919
2104,48538;2,06048
2102,43422;2,06272
2100,38307;2,0643
2098,33191;2,06401
2096,28076;2,06269
2094,2296;2,06151
2092,17844;2,06147
2090,12729;2,06244
2088,07613;2,06389
2086,02498;2,0659
2083,97382;2,06782
2081,92267;2,06899
2079,87151;2,07028
2077,82036;2,07217
2075,7692;2,0743
2073,71805;2,07658
2071,66689;2,07932
2069,61574;2,08285
2067,56458;2,08684
2065,51343;2,08993
2063,46227;2,09129
2061,41111;2,09214
2059,35996;2,09385
2057,3088;2,09664
2055,25765;2,10062
2053,20649;2,10559
2051,15534;2,11031
2049,10418;2,11406
2047,05303;2,11762
2045,00187;2,12227
2042,95072;2,12777
2040,89956;2,13308
2038,84841;2,13892
2036,79725;2,14512
2034,7461;2,14979
2032,69494;2,15299
2030,64378;2,15563
2028,59263;2,15777
2026,54147;2,16058
2024,49032;2,16509
2022,43916;2,16969
2020,38801;2,17233
2018,33685;2,17366
2016,2857;2,17539
2014,23454;2,17799
2012,18339;2,1825
2010,13223;2,18782
2008,08108;2,19168
2006,02992;2,19669
2003,97877;2,20328
2001,92761;2,20704
1999,87645;2,20796
1997,8253;2,20847
1995,77414;2,20912
1993,72299;2,21087
1991,67183;2,2143
1989,62068;2,21824
1987,56952;2,22025
1985,51837;2,21981
1983,46721;2,21856
1981,41606;2,21698
1979,3649;2,21465
1977,31375;2,21173
1975,26259;2,20874
1973,21144;2,20608
1971,16028;2,20399
1969,10912;2,20225
1967,05797;2,20035
1965,00681;2,19954
1962,95566;2,20082
1960,9045;2,20201
1958,85335;2,20111
1956,80219;2,19779
1954,75104;2,19339
1952,69988;2,19016
1950,64873;2,1884
1948,59757;2,18749
1946,54642;2,18732
1944,49526;2,18813
1942,44411;2,18992
1940,39295;2,19197
1938,34179;2,19407
1936,29064;2,19691
1934,23948;2,19982
1932,18833;2,20227
1930,13717;2,20648
1928,08602;2,21265
1926,03486;2,21816
1923,98371;2,22321
1921,93255;2,22915
1919,8814;2,23465
1917,83024;2,23933
1915,77909;2,24507
1913,72793;2,25233
1911,67678;2,25944
1909,62562;2,26608
1907,57446;2,27407
1905,52331;2,28306
1903,47215;2,29072
1901,421;2,2979
1899,36984;2,30712
1897,31869;2,31699
1895,26753;2,32518
1893,21638;2,33238
1891,16522;2,3395
1889,11407;2,34634
1887,06291;2,35291
1885,01176;2,35885
1882,9606;2,3629
1880,90945;2,36523
1878,85829;2,36869
1876,80713;2,37401
1874,75598;2,37698
1872,70482;2,37498
1870,65367;2,36887
1868,60251;2,3606
1866,55136;2,3539
1864,5002;2,34823
1862,44905;2,33979
1860,39789;2,32941
1858,34674;2,32084
1856,29558;2,3151
1854,24443;2,31074
1852,19327;2,30654
1850,14212;2,30271
1848,09096;2,30025
1846,0398;2,2987
1843,98865;2,29743
1841,93749;2,29842
1839,88634;2,30135
1837,83518;2,30408
1835,78403;2,30752
1833,73287;2,31282
1831,68172;2,31841
1829,63056;2,32293
1827,57941;2,32731
1825,52825;2,33261
1823,4771;2,33929
1821,42594;2,34809
1819,37478;2,35838
1817,32363;2,3677
1815,27247;2,37479
1813,22132;2,38174
1811,17016;2,39041
1809,11901;2,39984
1807,06785;2,41009
1805,0167;2,42184
1802,96554;2,43294
1800,91439;2,44087
1798,86323;2,44521
1796,81208;2,44759
1794,76092;2,45024
1792,70977;2,45317
1790,65861;2,45468
1788,60745;2,45519
1786,5563;2,45483
1784,50514;2,45279
1782,45399;2,45053
1780,40283;2,45095
1778,35168;2,45351
1776,30052;2,45476
1774,24937;2,45481
1772,19821;2,45532
1770,14706;2,45484
1768,0959;2,45243
1766,04475;2,45095
1763,99359;2,45243
1761,94244;2,45392
1759,89128;2,45251
1757,84012;2,44927
1755,78897;2,44869
1753,73781;2,45408
1751,68666;2,45968
1749,6355;2,45843
1747,58435;2,4548
1745,53319;2,4549
1743,48204;2,45678
1741,43088;2,45732
1739,37973;2,45744
1737,32857;2,45972
1735,27742;2,46315
1733,22626;2,46567
1731,17511;2,46734
1729,12395;2,46779
1727,07279;2,46902
1725,02164;2,47263
1722,97048;2,47698
1720,91933;2,48164
1718,86817;2,48595
1716,81702;2,48789
1714,76586;2,48975
1712,71471;2,49589
1710,66355;2,50597
1708,6124;2,51625
1706,56124;2,52576
1704,51009;2,5376
1702,45893;2,55501
1700,40778;2,5798
1698,35662;2,60824
1696,30546;2,63836
1694,25431;2,66991
1692,20315;2,69712
1690,152;2,72276
1688,10084;2,7502
1686,04969;2,77735
1683,99853;2,80418
1681,94738;2,82524
1679,89622;2,83578
1677,84507;2,84447
1675,79391;2,86373
1673,74276;2,88993
1671,6916;2,90534
1669,64045;2,90811
1667,58929;2,91206
1665,53813;2,91933
1663,48698;2,92493
1661,43582;2,93387
1659,38467;2,94584
1657,33351;2,94911
1655,28236;2,94647
1653,2312;2,95401
1651,18005;2,96952
1649,12889;2,98055
1647,07774;2,98373
1645,02658;2,97628
1642,97543;2,96655
1640,92427;2,96165
1638,87312;2,96008
1636,82196;2,95567
1634,7708;2,94417
1632,71965;2,93476
1630,66849;2,93199
1628,61734;2,92962
1626,56618;2,92367
1624,51503;2,91376
1622,46387;2,9009
1620,41272;2,88698
1618,36156;2,86852
1616,31041;2,84927
1614,25925;2,84336
1612,2081;2,84373
1610,15694;2,8343
1608,10579;2,81718
1606,05463;2,80531
1604,00347;2,80205
1601,95232;2,80024
1599,90116;2,79413
1597,85001;2,78574
1595,79885;2,77922
1593,7477;2,77633
1591,69654;2,77917
1589,64539;2,78677
1587,59423;2,79168
1585,54308;2,79
1583,49192;2,78627
1581,44077;2,78548
1579,38961;2,78976
1577,33846;2,79974
1575,2873;2,81281
1573,23614;2,82184
1571,18499;2,82349
1569,13383;2,82372
1567,08268;2,83041
1565,03152;2,84073
1562,98037;2,84594
1560,92921;2,84261
1558,87806;2,83775
1556,8269;2,84011
1554,77575;2,84657
1552,72459;2,85204
1550,67344;2,85097
1548,62228;2,84318
1546,57113;2,83898
1544,51997;2,84123
1542,46881;2,84433
1540,41766;2,84651
1538,3665;2,84447
1536,31535;2,84073
1534,26419;2,84176
1532,21304;2,84737
1530,16188;2,85087
1528,11073;2,84648
1526,05957;2,83322
1524,00842;2,81675
1521,95726;2,80219
1519,90611;2,79386
1517,85495;2,79103
1515,80379;2,7845
1513,75264;2,77158
1511,70148;2,75705
1509,65033;2,74281
1507,59917;2,72555
1505,54802;2,70931
1503,49686;2,70282
1501,44571;2,69923
1499,39455;2,69155
1497,3434;2,68226
1495,29224;2,67712
1493,24109;2,67465
1491,18993;2,66702
1489,13878;2,65445
1487,08762;2,64971
1485,03646;2,65339
1482,98531;2,65611
1480,93415;2,65711
1478,883;2,65967
1476,83184;2,6635
1474,78069;2,66747
1472,72953;2,67555
1470,67838;2,6908
1468,62722;2,70596
1466,57607;2,71606
1464,52491;2,72126
1462,47376;2,72177
1460,4226;2,71863
1458,37145;2,71584
1456,32029;2,72327
1454,26913;2,74301
1452,21798;2,76029
1450,16682;2,76399
1448,11567;2,75775
1446,06451;2,75158
1444,01336;2,74798
1441,9622;2,74452
1439,91105;2,73937
1437,85989;2,73085
1435,80874;2,7183
1433,75758;2,70358
1431,70643;2,68808
1429,65527;2,67474
1427,60412;2,66706
1425,55296;2,66335
1423,5018;2,66047
1421,45065;2,65366
1419,39949;2,6388
1417,34834;2,62317
1415,29718;2,6151
1413,24603;2,60988
1411,19487;2,6026
1409,14372;2,59524
1407,09256;2,59078
1405,04141;2,59273
1402,99025;2,60371
1400,9391;2,61847
1398,88794;2,62943
1396,83679;2,63568
1394,78563;2,64043
1392,73447;2,64528
1390,68332;2,65054
1388,63216;2,65467
1386,58101;2,65677
1384,52985;2,66019
1382,4787;2,66604
1380,42754;2,67134
1378,37639;2,67465
1376,32523;2,67592
1374,27408;2,67718
1372,22292;2,68222
1370,17177;2,68862
1368,12061;2,69276
1366,06946;2,69639
1364,0183;2,69826
1361,96714;2,69603
1359,91599;2,69587
1357,86483;2,7011
1355,81368;2,70573
1353,76252;2,70831
1351,71137;2,71322
1349,66021;2,72031
1347,60906;2,72899
1345,5579;2,73968
1343,50675;2,74713
1341,45559;2,74739
1339,40444;2,74536
1337,35328;2,74669
1335,30213;2,74919
1333,25097;2,75152
1331,19981;2,75578
1329,14866;2,75919
1327,0975;2,76056
1325,04635;2,76385
1322,99519;2,76774
1320,94404;2,76665
1318,89288;2,7626
1316,84173;2,76234
1314,79057;2,76497
1312,73942;2,76494
1310,68826;2,76085
1308,63711;2,7551
1306,58595;2,74985
1304,5348;2,74429
1302,48364;2,7355
1300,43248;2,72598
1298,38133;2,72193
1296,33017;2,72049
1294,27902;2,71444
1292,22786;2,70501
1290,17671;2,69665
1288,12555;2,68809
1286,0744;2,6826
1284,02324;2,68705
1281,97209;2,69523
1279,92093;2,69729
1277,86978;2,69777
1275,81862;2,70244
1273,76747;2,7048
1271,71631;2,70265
1269,66515;2,70275
1267,614;2,70529
1265,56284;2,70582
1263,51169;2,70276
1261,46053;2,69818
1259,40938;2,69701
1257,35822;2,7002
1255,30707;2,70376
1253,25591;2,70501
1251,20476;2,70346
1249,1536;2,70213
1247,10245;2,70437
1245,05129;2,71049
1243,00013;2,72045
1240,94898;2,73044
1238,89782;2,73491
1236,84667;2,7404
1234,79551;2,75315
1232,74436;2,75788
1230,6932;2,74509
1228,64205;2,7317
1226,59089;2,72852
1224,53974;2,73125
1222,48858;2,73481
1220,43743;2,73736
1218,38627;2,73694
1216,33512;2,73104
1214,28396;2,72352
1212,2328;2,71917
1210,18165;2,71244
1208,13049;2,69721
1206,07934;2,67988
1204,02818;2,6703
1201,97703;2,66788
1199,92587;2,66101
1197,87472;2,64498
1195,82356;2,62948
1193,77241;2,61502
1191,72125;2,59611
1189,6701;2,57646
1187,61894;2,55536
1185,56779;2,52966
1183,51663;2,50498
1181,46547;2,48153
1179,41432;2,45587
1177,36316;2,43381
1175,31201;2,41764
1173,26085;2,40147
1171,2097;2,38438
1169,15854;2,37261
1167,10739;2,3679
1165,05623;2,37017
1163,00508;2,3869
1160,95392;2,42486
1158,90277;2,48248
1156,85161;2,54713
1154,80046;2,59773
1152,7493;2,62349
1150,69814;2,62754
1148,64699;2,61624
1146,59583;2,59254
1144,54468;2,55512
1142,49352;2,51108
1140,44237;2,46956
1138,39121;2,42997
1136,34006;2,39219
1134,2889;2,35828
1132,23775;2,32814
1130,18659;2,30296
1128,13544;2,28462
1126,08428;2,27157
1124,03313;2,25977
1121,98197;2,24692
1119,93081;2,23315
1117,87966;2,21963
1115,8285;2,20887
1113,77735;2,20152
1111,72619;2,1953
1109,67504;2,18889
1107,62388;2,18303
1105,57273;2,17979
1103,52157;2,17982
1101,47042;2,18152
1099,41926;2,18389
1097,36811;2,18688
1095,31695;2,19047
1093,2658;2,19447
1091,21464;2,19764
1089,16348;2,19726
1087,11233;2,19285
1085,06117;2,18802
1083,01002;2,18473
1080,95886;2,18122
1078,90771;2,17717
1076,85655;2,17457
1074,8054;2,17365
1072,75424;2,17462
1070,70309;2,17777
1068,65193;2,18081
1066,60078;2,1856
1064,54962;2,19418
1062,49847;2,20095
1060,44731;2,20592
1058,39615;2,2177
1056,345;2,23826
1054,29384;2,26322
1052,24269;2,29365
1050,19153;2,33073
1048,14038;2,36886
1046,08922;2,4045
1044,03807;2,44099
1041,98691;2,47962
1039,93576;2,51819
1037,8846;2,55589
1035,83345;2,58886
1033,78229;2,61326
1031,73114;2,62314
1029,67998;2,60843
1027,62882;2,56569
1025,57767;2,50536
1023,52651;2,44831
1021,47536;2,405
1019,4242;2,37198
1017,37305;2,34566
1015,32189;2,32677
1013,27074;2,31662
1011,21958;2,31429
1009,16843;2,31846
1007,11727;2,32937
1005,06612;2,34341
1003,01496;2,35478
1000,96381;2,36578
998,91265;2,38352
996,86149;2,4068
994,81034;2,42631
992,75918;2,44138
990,70803;2,45767
988,65687;2,47485
986,60572;2,48871
984,55456;2,49528
982,50341;2,49738
980,45225;2,49989
978,4011;2,50402
976,34994;2,50966
974,29879;2,51524
972,24763;2,51873
970,19647;2,51984
968,14532;2,52222
966,09416;2,52847
964,04301;2,533
961,99185;2,5327
959,9407;2,53485
957,88954;2,53968
955,83839;2,54196
953,78723;2,5441
951,73608;2,54635
949,68492;2,54521
947,63377;2,54204
945,58261;2,54015
943,53146;2,5407
941,4803;2,54514
939,42914;2,55234
937,37799;2,55726
935,32683;2,55873
933,27568;2,5585
931,22452;2,55679
929,17337;2,55568
927,12221;2,55894
925,07106;2,5668
923,0199;2,5774
920,96875;2,58478
918,91759;2,58284
916,86644;2,58239
914,81528;2,59063
912,76413;2,59553
910,71297;2,59324
908,66181;2,59233
906,61066;2,59463
904,5595;2,59382
902,50835;2,58914
900,45719;2,5852
898,40604;2,58264
896,35488;2,58104
894,30373;2,57943
892,25257;2,57741
890,20142;2,5713
888,15026;2,56204
886,09911;2,56057
884,04795;2,56712
881,9968;2,56946
879,94564;2,55936
877,89448;2,54607
875,84333;2,54258
873,79217;2,54207
871,74102;2,53861
869,68986;2,53753
867,63871;2,53595
865,58755;2,53004
863,5364;2,52423
861,48524;2,52155
859,43409;2,52324
857,38293;2,52672
855,33178;2,52763
853,28062;2,52829
851,22947;2,53204
849,17831;2,53991
847,12715;2,54736
845,076;2,55154
843,02484;2,55595
840,97369;2,56215
838,92253;2,56954
836,87138;2,57926
834,82022;2,59643
832,76907;2,61625
830,71791;2,63304
828,66676;2,65428
826,6156;2,67505
824,56445;2,68765
822,51329;2,70465
820,46214;2,73071
818,41098;2,74731
816,35982;2,75322
814,30867;2,76552
812,25751;2,78257
810,20636;2,8016
808,1552;2,81489
806,10405;2,82036
804,05289;2,83486
802,00174;2,86052
799,95058;2,87751
797,89943;2,8717
795,84827;2,8594
793,79712;2,87058
791,74596;2,90296
789,69481;2,92181
787,64365;2,92112
785,59249;2,92156
783,54134;2,91292
781,49018;2,90142
779,43903;2,89618
777,38787;2,87645
775,33672;2,85845
773,28556;2,86164
771,23441;2,86851
769,18325;2,8778
767,1321;2,89742
765,08094;2,92819
763,02979;2,97488
760,97863;2,99296
758,92748;2,95323
756,87632;2,91397
754,82516;2,9001
752,77401;2,89731
750,72285;2,8948
748,6717;2,88817
746,62054;2,87417
744,56939;2,85645
742,51823;2,85198
740,46708;2,86424
738,41592;2,88502
736,36477;2,89122
734,31361;2,88561
732,26246;2,89802
730,2113;2,91353
728,16015;2,90702
726,10899;2,88916
724,05783;2,88715
722,00668;2,92678
719,95552;2,99807
717,90437;3,04952
715,85321;3,0583
713,80206;3,04242
711,7509;3,03676
709,69975;3,05311
707,64859;3,07629
705,59744;3,0865
703,54628;3,08499
701,49513;3,08362
699,44397;3,08717
697,39281;3,10707
695,34166;3,12083
693,2905;3,0802
691,23935;3,00773
689,18819;2,95675
687,13704;2,92914
685,08588;2,89553
683,03473;2,84612
680,98357;2,78385
678,93242;2,71383
676,88126;2,65197
674,83011;2,60652
672,77895;2,57355
670,7278;2,54644
668,67664;2,52811
666,62548;2,53384
664,57433;2,55884
662,52317;2,58647
660,47202;2,61228
658,42086;2,63973
656,36971;2,67282
654,31855;2,70211
652,2674;2,7122
650,21624;2,711
648,16509;2,71985
646,11393;2,74375
644,06278;2,76965
642,01162;2,77932
639,96047;2,77297
637,90931;2,77255
635,85815;2,79429
633,807;2,8136
631,75584;2,79245
629,70469;2,75925
627,65353;2,76586
625,60238;2,79347
623,55122;2,81559
621,50007;2,83875
619,44891;2,85655
617,39776;2,85172
615,3466;2,83324
613,29545;2,82676
611,24429;2,8492
609,19314;2,88932
607,14198;2,9233
605,09082;2,97074
603,03967;3,0356
600,98851;3,04565
598,93736;3,00395
596,8862;2,98204
594,83505;2,96119
592,78389;2,91935
590,73274;2,90652
588,68158;2,92076
586,63043;2,92706
584,57927;2,938
582,52812;2,99606
580,47696;3,08614
578,42581;3,16166
576,37465;3,18879
574,32349;3,17661
572,27234;3,16282
570,22118;3,11303
568,17003;3,10397
566,11887;3,16686
564,06772;3,20513
562,01656;3,1837
559,96541;3,17666
557,91425;3,17698
555,8631;3,12649
553,81194;3,08569
551,76079;3,11899
549,70963;3,12751
547,65848;3,01931
545,60732;2,88856
543,55616;2,81317
541,50501;2,79505
539,45385;2,77118
537,4027;2,70052
535,35154;2,62456
533,30039;2,57474
531,24923;2,54265
529,19808;2,52784
527,14692;2,53753
525,09577;2,5493
523,04461;2,53747
520,99346;2,52603
518,9423;2,55412
516,89115;2,62186
514,83999;2,68361
512,78883;2,69354
510,73768;2,67296
508,68652;2,66367
506,63537;2,65423
504,58421;2,60155
502,53306;2,50862
500,4819;2,4218
498,43075;2,35533
496,37959;2,2991
494,32844;2,25844
492,27728;2,24
490,22613;2,23975
488,17497;2,24715
486,12382;2,247
484,07266;2,23859
482,0215;2,24219
479,97035;2,26446
477,91919;2,29393
475,86804;2,3255
473,81688;2,35705
471,76573;2,38167
469,71457;2,40235
467,66342;2,42408
465,61226;2,44629
463,56111;2,47268
461,50995;2,51334
459,4588;2,56091
457,40764;2,57975
455,35649;2,57384
453,30533;2,57353
451,25417;2,5813
449,20302;2,59802
447,15186;2,63366
445,10071;2,6686
443,04955;2,6595
440,9984;2,60554
438,94724;2,56478
436,89609;2,5473
434,84493;2,50872
432,79378;2,45809
430,74262;2,44244
428,69147;2,48295
426,64031;2,53785
424,58916;2,53647
422,538;2,46949
420,48684;2,41116
418,43569;2,43986
416,38453;2,52437
414,33338;2,56027
412,28222;2,52391
410,23107;2,46687
408,17991;2,43071
406,12876;2,41542
404,0776;2,43492
402,02645;2,52523
399,97529;2,65913
