3997,70175;1,75601
3995,6506;1,757
3993,59944;1,75847
3991,54829;1,75913
3989,49713;1,75941
3987,44598;1,7609
3985,39482;1,76349
3983,34367;1,76567
3981,29251;1,76733
3979,24136;1,76905
3977,1902;1,77017
3975,13905;1,77077
3973,08789;1,77189
3971,03673;1,77366
3968,98558;1,77556
3966,93442;1,77747
3964,88327;1,78019
3962,83211;1,78402
3960,78096;1,78727
3958,7298;1,78893
3956,67865;1,79042
3954,62749;1,79311
3952,57634;1,79653
3950,52518;1,79922
3948,47403;1,80043
3946,42287;1,801
3944,37172;1,80156
3942,32056;1,80157
3940,2694;1,80114
3938,21825;1,80012
3936,16709;1,79768
3934,11594;1,794
3932,06478;1,78956
3930,01363;1,78494
3927,96247;1,78083
3925,91132;1,77659
3923,86016;1,77118
3921,80901;1,76543
3919,75785;1,7608
3917,7067;1,75711
3915,65554;1,75351
3913,60439;1,74987
3911,55323;1,74593
3909,50207;1,74173
3907,45092;1,73796
3905,39976;1,73394
3903,34861;1,72928
3901,29745;1,72525
3899,2463;1,72211
3897,19514;1,72056
3895,14399;1,72099
3893,09283;1,72065
3891,04168;1,71784
3888,99052;1,71659
3886,93937;1,71782
3884,88821;1,71721
3882,83706;1,71562
3880,7859;1,71453
3878,73474;1,71305
3876,68359;1,71255
3874,63243;1,71197
3872,58128;1,71041
3870,53012;1,70828
3868,47897;1,7066
3866,42781;1,70722
3864,37666;1,7074
3862,3255;1,70603
3860,27435;1,70573
3858,22319;1,70659
3856,17204;1,70725
3854,12088;1,705
3852,06973;1,70084
3850,01857;1,70047
3847,96741;1,70251
3845,91626;1,70308
3843,8651;1,70183
3841,81395;1,70062
3839,76279;1,70019
3837,71164;1,69975
3835,66048;1,70009
3833,60933;1,70177
3831,55817;1,70295
3829,50702;1,70283
3827,45586;1,70219
3825,40471;1,70197
3823,35355;1,70259
3821,3024;1,70163
3819,25124;1,70058
3817,20008;1,70221
3815,14893;1,7034
3813,09777;1,70478
3811,04662;1,70775
3808,99546;1,70948
3806,94431;1,7081
3804,89315;1,70691
3802,842;1,70766
3800,79084;1,70728
3798,73969;1,70727
3796,68853;1,70935
3794,63738;1,71218
3792,58622;1,71547
3790,53506;1,71849
3788,48391;1,71976
3786,43275;1,71905
3784,3816;1,71832
3782,33044;1,71975
3780,27929;1,72143
3778,22813;1,72116
3776,17698;1,7211
3774,12582;1,72212
3772,07467;1,72256
3770,02351;1,72229
3767,97236;1,72341
3765,9212;1,72565
3763,87005;1,72698
3761,81889;1,72822
3759,76773;1,72936
3757,71658;1,72945
3755,66542;1,73005
3753,61427;1,73155
3751,56311;1,73096
3749,51196;1,72891
3747,4608;1,73172
3745,40965;1,73779
3743,35849;1,74016
3741,30734;1,74078
3739,25618;1,74323
3737,20503;1,74572
3735,15387;1,74795
3733,10272;1,75205
3731,05156;1,75707
3729,0004;1,76151
3726,94925;1,76462
3724,89809;1,76587
3722,84694;1,768
3720,79578;1,77309
3718,74463;1,77899
3716,69347;1,78376
3714,64232;1,78788
3712,59116;1,79171
3710,54001;1,7963
3708,48885;1,80448
3706,4377;1,8163
3704,38654;1,83213
3702,33539;1,85406
3700,28423;1,88086
3698,23307;1,9066
3696,18192;1,9254
3694,13076;1,93392
3692,07961;1,93145
3690,02845;1,92035
3687,9773;1,90827
3685,92614;1,90328
3683,87499;1,90433
3681,82383;1,90629
3679,77268;1,90796
3677,72152;1,91181
3675,67037;1,91816
3673,61921;1,92692
3671,56806;1,93883
3669,5169;1,95092
3667,46574;1,96125
3665,41459;1,97127
3663,36343;1,9821
3661,31228;1,99381
3659,26112;2,00513
3657,20997;2,01428
3655,15881;2,02127
3653,10766;2,02881
3651,0565;2,04132
3649,00535;2,06393
3646,95419;2,09145
3644,90304;2,11046
3642,85188;2,11935
3640,80073;2,12306
3638,74957;2,12575
3636,69841;2,13023
3634,64726;2,13611
3632,5961;2,14252
3630,54495;2,15049
3628,49379;2,15966
3626,44264;2,16938
3624,39148;2,17921
3622,34033;2,18647
3620,28917;2,189
3618,23802;2,18905
3616,18686;2,19199
3614,13571;2,19919
3612,08455;2,20943
3610,0334;2,22096
3607,98224;2,22969
3605,93108;2,23476
3603,87993;2,24017
3601,82877;2,24787
3599,77762;2,25698
3597,72646;2,26552
3595,67531;2,27169
3593,62415;2,27609
3591,573;2,28172
3589,52184;2,29016
3587,47069;2,29772
3585,41953;2,30178
3583,36838;2,30569
3581,31722;2,31083
3579,26607;2,31583
3577,21491;2,3208
3575,16375;2,32679
3573,1126;2,33201
3571,06144;2,33585
3569,01029;2,34146
3566,95913;2,34755
3564,90798;2,35021
3562,85682;2,35403
3560,80567;2,36136
3558,75451;2,36793
3556,70336;2,37296
3554,6522;2,37917
3552,60105;2,38624
3550,54989;2,39087
3548,49874;2,39277
3546,44758;2,39496
3544,39642;2,39783
3542,34527;2,39981
3540,29411;2,40295
3538,24296;2,40878
3536,1918;2,41483
3534,14065;2,4199
3532,08949;2,42482
3530,03834;2,42854
3527,98718;2,43075
3525,93603;2,43462
3523,88487;2,44032
3521,83372;2,44523
3519,78256;2,44834
3517,73141;2,45031
3515,68025;2,45342
3513,62909;2,45709
3511,57794;2,46056
3509,52678;2,46448
3507,47563;2,46691
3505,42447;2,4686
3503,37332;2,47308
3501,32216;2,47898
3499,27101;2,48174
3497,21985;2,4819
3495,1687;2,48236
3493,11754;2,48328
3491,06639;2,48552
3489,01523;2,49017
3486,96407;2,49696
3484,91292;2,50306
3482,86176;2,50528
3480,81061;2,50298
3478,75945;2,49651
3476,7083;2,49269
3474,65714;2,49742
3472,60599;2,50841
3470,55483;2,51949
3468,50368;2,5233
3466,45252;2,52027
3464,40137;2,51846
3462,35021;2,5193
3460,29906;2,51823
3458,2479;2,51837
3456,19674;2,5246
3454,14559;2,53041
3452,09443;2,53151
3450,04328;2,53408
3447,99212;2,53879
3445,94097;2,54127
3443,88981;2,54149
3441,83866;2,53798
3439,7875;2,53074
3437,73635;2,5245
3435,68519;2,52253
3433,63404;2,52543
3431,58288;2,53208
3429,53173;2,53886
3427,48057;2,53996
3425,42941;2,53806
3423,37826;2,54142
3421,3271;2,54619
3419,27595;2,54851
3417,22479;2,55232
3415,17364;2,55477
3413,12248;2,55132
3411,07133;2,54603
3409,02017;2,54128
3406,96902;2,53381
3404,91786;2,52991
3402,86671;2,53399
3400,81555;2,53643
3398,7644;2,53456
3396,71324;2,53663
3394,66208;2,54363
3392,61093;2,54603
3390,55977;2,54418
3388,50862;2,54386
3386,45746;2,54314
3384,40631;2,54091
3382,35515;2,53788
3380,304;2,53517
3378,25284;2,5326
3376,20169;2,52888
3374,15053;2,52926
3372,09938;2,53558
3370,04822;2,53984
3367,99707;2,53785
3365,94591;2,5333
3363,89475;2,53061
3361,8436;2,52934
3359,79244;2,52783
3357,74129;2,52831
3355,69013;2,52977
3353,63898;2,53164
3351,58782;2,53253
3349,53667;2,52829
3347,48551;2,5214
3345,43436;2,5157
3343,3832;2,51198
3341,33205;2,5101
3339,28089;2,50864
3337,22974;2,50638
3335,17858;2,50322
3333,12742;2,49999
3331,07627;2,49816
3329,02511;2,49818
3326,97396;2,49908
3324,9228;2,49934
3322,87165;2,49889
3320,82049;2,50131
3318,76934;2,50661
3316,71818;2,50744
3314,66703;2,50169
3312,61587;2,49473
3310,56472;2,49101
3308,51356;2,49343
3306,46241;2,49792
3304,41125;2,4963
3302,36009;2,49012
3300,30894;2,48507
3298,25778;2,48086
3296,20663;2,47846
3294,15547;2,48183
3292,10432;2,48715
3290,05316;2,48761
3288,00201;2,4837
3285,95085;2,47913
3283,8997;2,47616
3281,84854;2,47648
3279,79739;2,47842
3277,74623;2,47594
3275,69508;2,47124
3273,64392;2,47147
3271,59276;2,47477
3269,54161;2,47569
3267,49045;2,47304
3265,4393;2,46979
3263,38814;2,46814
3261,33699;2,46626
3259,28583;2,46283
3257,23468;2,46118
3255,18352;2,46079
3253,13237;2,45632
3251,08121;2,45191
3249,03006;2,45474
3246,9789;2,46038
3244,92775;2,46176
3242,87659;2,46011
3240,82543;2,4589
3238,77428;2,45643
3236,72312;2,45144
3234,67197;2,44877
3232,62081;2,45038
3230,56966;2,45185
3228,5185;2,45036
3226,46735;2,44669
3224,41619;2,44288
3222,36504;2,4413
3220,31388;2,44085
3218,26273;2,43747
3216,21157;2,4331
3214,16041;2,43315
3212,10926;2,43696
3210,0581;2,43965
3208,00695;2,43818
3205,95579;2,4356
3203,90464;2,43547
3201,85348;2,43692
3199,80233;2,43744
3197,75117;2,43351
3195,70002;2,42581
3193,64886;2,41902
3191,59771;2,41515
3189,54655;2,41468
3187,4954;2,41537
3185,44424;2,41346
3183,39308;2,40878
3181,34193;2,40443
3179,29077;2,40314
3177,23962;2,40582
3175,18846;2,40892
3173,13731;2,40723
3171,08615;2,40257
3169,035;2,39806
3166,98384;2,3935
3164,93269;2,38899
3162,88153;2,38593
3160,83038;2,38584
3158,77922;2,38704
3156,72807;2,38643
3154,67691;2,38431
3152,62575;2,38301
3150,5746;2,38145
3148,52344;2,37856
3146,47229;2,37639
3144,42113;2,3746
3142,36998;2,37111
3140,31882;2,3664
3138,26767;2,36458
3136,21651;2,36665
3134,16536;2,36691
3132,1142;2,36409
3130,06305;2,36171
3128,01189;2,35962
3125,96074;2,35857
3123,90958;2,36021
3121,85842;2,36164
3119,80727;2,359
3117,75611;2,35294
3115,70496;2,34795
3113,6538;2,34547
3111,60265;2,3431
3109,55149;2,34074
3107,50034;2,34017
3105,44918;2,34108
3103,39803;2,34076
3101,34687;2,33769
3099,29572;2,3345
3097,24456;2,33365
3095,19341;2,33373
3093,14225;2,33197
3091,09109;2,32838
3089,03994;2,32705
3086,98878;2,3289
3084,93763;2,32923
3082,88647;2,32632
3080,83532;2,32375
3078,78416;2,32425
3076,73301;2,32573
3074,68185;2,32532
3072,6307;2,32254
3070,57954;2,3199
3068,52839;2,32078
3066,47723;2,32147
3064,42608;2,3174
3062,37492;2,31314
3060,32376;2,3128
3058,27261;2,31327
3056,22145;2,31242
3054,1703;2,31158
3052,11914;2,31117
3050,06799;2,31175
3048,01683;2,3119
3045,96568;2,30947
3043,91452;2,30687
3041,86337;2,30729
3039,81221;2,31014
3037,76106;2,31216
3035,7099;2,31294
3033,65875;2,31518
3031,60759;2,31719
3029,55643;2,31565
3027,50528;2,31292
3025,45412;2,31175
3023,40297;2,31278
3021,35181;2,31566
3019,30066;2,3172
3017,2495;2,31644
3015,19835;2,31703
3013,14719;2,31982
3011,09604;2,32228
3009,04488;2,32538
3006,99373;2,33241
3004,94257;2,34264
3002,89142;2,35056
3000,84026;2,35433
2998,7891;2,36007
2996,73795;2,37119
2994,68679;2,3842
2992,63564;2,4006
2990,58448;2,41941
2988,53333;2,43244
2986,48217;2,44095
2984,43102;2,45142
2982,37986;2,45973
2980,32871;2,46033
2978,27755;2,45638
2976,2264;2,45069
2974,17524;2,44303
2972,12409;2,43723
2970,07293;2,43695
2968,02177;2,4363
2965,97062;2,43042
2963,91946;2,4243
2961,86831;2,42132
2959,81715;2,42118
2957,766;2,42222
2955,71484;2,42062
2953,66369;2,41629
2951,61253;2,41363
2949,56138;2,41255
2947,51022;2,41009
2945,45907;2,40687
2943,40791;2,40388
2941,35675;2,40135
2939,3056;2,40144
2937,25444;2,40398
2935,20329;2,4046
2933,15213;2,4039
2931,10098;2,4036
2929,04982;2,39921
2926,99867;2,39145
2924,94751;2,38924
2922,89636;2,39299
2920,8452;2,39578
2918,79405;2,39681
2916,74289;2,39607
2914,69174;2,3946
2912,64058;2,39612
2910,58942;2,39631
2908,53827;2,39102
2906,48711;2,38813
2904,43596;2,3928
2902,3848;2,39762
2900,33365;2,39738
2898,28249;2,39689
2896,23134;2,39889
2894,18018;2,40105
2892,12903;2,40304
2890,07787;2,40705
2888,02672;2,4146
2885,97556;2,4237
2883,92441;2,43345
2881,87325;2,44514
2879,82209;2,45854
2877,77094;2,4724
2875,71978;2,48242
2873,66863;2,48489
2871,61747;2,48096
2869,56632;2,47268
2867,51516;2,4624
2865,46401;2,45355
2863,41285;2,44737
2861,3617;2,44114
2859,31054;2,43305
2857,25939;2,42567
2855,20823;2,4188
2853,15708;2,40924
2851,10592;2,39903
2849,05476;2,39078
2847,00361;2,38195
2844,95245;2,37046
2842,9013;2,35777
2840,85014;2,3449
2838,79899;2,33163
2836,74783;2,31693
2834,69668;2,30048
2832,64552;2,2859
2830,59437;2,27624
2828,54321;2,26881
2826,49206;2,26033
2824,4409;2,25062
2822,38975;2,24155
2820,33859;2,23463
2818,28743;2,22881
2816,23628;2,22416
2814,18512;2,21995
2812,13397;2,21447
2810,08281;2,20942
2808,03166;2,20603
2805,9805;2,20415
2803,92935;2,20348
2801,87819;2,20159
2799,82704;2,19748
2797,77588;2,19324
2795,72473;2,18998
2793,67357;2,18692
2791,62242;2,18203
2789,57126;2,17548
2787,5201;2,1701
2785,46895;2,16585
2783,41779;2,16185
2781,36664;2,15968
2779,31548;2,15832
2777,26433;2,15593
2775,21317;2,153
2773,16202;2,14977
2771,11086;2,14681
2769,05971;2,14495
2767,00855;2,14376
2764,9574;2,14239
2762,90624;2,14108
2760,85509;2,1398
2758,80393;2,13848
2756,75277;2,13748
2754,70162;2,13553
2752,65046;2,13313
2750,59931;2,13136
2748,54815;2,12925
2746,497;2,1279
2744,44584;2,128
2742,39469;2,12727
2740,34353;2,12569
2738,29238;2,12528
2736,24122;2,12478
2734,19007;2,12327
2732,13891;2,1219
2730,08776;2,12003
2728,0366;2,11772
2725,98544;2,11614
2723,93429;2,11599
2721,88313;2,1178
2719,83198;2,11959
2717,78082;2,11905
2715,72967;2,11724
2713,67851;2,11592
2711,62736;2,11528
2709,5762;2,11531
2707,52505;2,11593
2705,47389;2,11605
2703,42274;2,11491
2701,37158;2,11377
2699,32043;2,1135
2697,26927;2,11341
2695,21811;2,11358
2693,16696;2,11401
2691,1158;2,11387
2689,06465;2,11269
2687,01349;2,11163
2684,96234;2,11191
2682,91118;2,11284
2680,86003;2,11363
2678,80887;2,1143
2676,75772;2,11505
2674,70656;2,11589
2672,65541;2,11635
2670,60425;2,11596
2668,55309;2,11635
2666,50194;2,11851
2664,45078;2,12067
2662,39963;2,12222
2660,34847;2,12358
2658,29732;2,12433
2656,24616;2,12468
2654,19501;2,12545
2652,14385;2,12796
2650,0927;2,13248
2648,04154;2,13722
2645,99039;2,14108
2643,93923;2,14417
2641,88808;2,14853
2639,83692;2,15569
2637,78576;2,16533
2635,73461;2,17745
2633,68345;2,19089
2631,6323;2,20308
2629,58114;2,21377
2627,52999;2,22521
2625,47883;2,23645
2623,42768;2,24625
2621,37652;2,25511
2619,32537;2,26246
2617,27421;2,27042
2615,22306;2,28131
2613,1719;2,29299
2611,12075;2,30455
2609,06959;2,31743
2607,01843;2,32768
2604,96728;2,33088
2602,91612;2,33187
2600,86497;2,33725
2598,81381;2,34599
2596,76266;2,35236
2594,7115;2,35484
2592,66035;2,35722
2590,60919;2,35945
2588,55804;2,36013
2586,50688;2,36267
2584,45573;2,36642
2582,40457;2,3665
2580,35342;2,36415
2578,30226;2,36573
2576,2511;2,37047
2574,19995;2,37287
2572,14879;2,37479
2570,09764;2,37828
2568,04648;2,37928
2565,99533;2,37857
2563,94417;2,38098
2561,89302;2,38536
2559,84186;2,3889
2557,79071;2,39155
2555,73955;2,39412
2553,6884;2,39686
2551,63724;2,39877
2549,58609;2,40222
2547,53493;2,4095
2545,48377;2,41611
2543,43262;2,4194
2541,38146;2,42426
2539,33031;2,43553
2537,27915;2,45267
2535,228;2,47366
2533,17684;2,49736
2531,12569;2,52255
2529,07453;2,54865
2527,02338;2,57418
2524,97222;2,59622
2522,92107;2,61089
2520,86991;2,61732
2518,81876;2,62179
2516,7676;2,62989
2514,71644;2,63967
2512,66529;2,64671
2510,61413;2,64804
2508,56298;2,64144
2506,51182;2,62677
2504,46067;2,60419
2502,40951;2,57611
2500,35836;2,54708
2498,3072;2,5186
2496,25605;2,49115
2494,20489;2,46412
2492,15374;2,4369
2490,10258;2,41233
2488,05143;2,38994
2486,00027;2,36745
2483,94911;2,34876
2481,89796;2,33415
2479,8468;2,31937
2477,79565;2,30444
2475,74449;2,28971
2473,69334;2,27405
2471,64218;2,25774
2469,59103;2,24175
2467,53987;2,22783
2465,48872;2,21738
2463,43756;2,20833
2461,38641;2,19913
2459,33525;2,19072
2457,2841;2,18242
2455,23294;2,1739
2453,18178;2,16562
2451,13063;2,15832
2449,07947;2,15389
2447,02832;2,15077
2444,97716;2,14579
2442,92601;2,14012
2440,87485;2,1352
2438,8237;2,12993
2436,77254;2,12496
2434,72139;2,12163
2432,67023;2,11897
2430,61908;2,11572
2428,56792;2,11134
2426,51677;2,10692
2424,46561;2,10391
2422,41445;2,10154
2420,3633;2,09942
2418,31214;2,0976
2416,26099;2,09473
2414,20983;2,09143
2412,15868;2,08937
2410,10752;2,08797
2408,05637;2,08606
2406,00521;2,08397
2403,95406;2,08304
2401,9029;2,08231
2399,85175;2,08032
2397,80059;2,07888
2395,74944;2,07861
2393,69828;2,07802
2391,64712;2,07629
2389,59597;2,0742
2387,54481;2,07321
2385,49366;2,07378
2383,4425;2,07472
2381,39135;2,07524
2379,34019;2,07529
2377,28904;2,07488
2375,23788;2,07482
2373,18673;2,0758
2371,13557;2,07763
2369,08442;2,07971
2367,03326;2,08126
2364,9821;2,08288
2362,93095;2,08455
2360,87979;2,08485
2358,82864;2,08297
2356,77748;2,07877
2354,72633;2,07394
2352,67517;2,07262
2350,62402;2,07673
2348,57286;2,08156
2346,52171;2,08248
2344,47055;2,08096
2342,4194;2,07936
2340,36824;2,07784
2338,31709;2,07707
2336,26593;2,07584
2334,21477;2,07417
2332,16362;2,07561
2330,11246;2,08016
2328,06131;2,08296
2326,01015;2,08176
2323,959;2,07917
2321,90784;2,07827
2319,85669;2,07945
2317,80553;2,08099
2315,75438;2,08244
2313,70322;2,08414
2311,65207;2,08425
2309,60091;2,08222
2307,54976;2,08038
2305,4986;2,07979
2303,44744;2,07971
2301,39629;2,07964
2299,34513;2,07942
2297,29398;2,07819
2295,24282;2,07564
2293,19167;2,0736
2291,14051;2,07326
2289,08936;2,07381
2287,0382;2,07486
2284,98705;2,07633
2282,93589;2,07746
2280,88474;2,07812
2278,83358;2,07846
2276,78243;2,07841
2274,73127;2,07889
2272,68011;2,08072
2270,62896;2,08303
2268,5778;2,0846
2266,52665;2,08476
2264,47549;2,08395
2262,42434;2,08378
2260,37318;2,08538
2258,32203;2,08814
2256,27087;2,09023
2254,21972;2,09098
2252,16856;2,09107
2250,11741;2,09113
2248,06625;2,09224
2246,0151;2,09512
2243,96394;2,09914
2241,91278;2,10261
2239,86163;2,10581
2237,81047;2,10964
2235,75932;2,11251
2233,70816;2,11397
2231,65701;2,11539
2229,60585;2,1174
2227,5547;2,1196
2225,50354;2,12189
2223,45239;2,12495
2221,40123;2,12722
2219,35008;2,12814
2217,29892;2,12962
2215,24777;2,13091
2213,19661;2,13027
2211,14545;2,129
2209,0943;2,12935
2207,04314;2,13138
2204,99199;2,13384
2202,94083;2,1361
2200,88968;2,13836
2198,83852;2,13968
2196,78737;2,13961
2194,73621;2,1398
2192,68506;2,14105
2190,6339;2,14289
2188,58275;2,14459
2186,53159;2,14632
2184,48044;2,14839
2182,42928;2,15083
2180,37812;2,15295
2178,32697;2,15401
2176,27581;2,15564
2174,22466;2,15875
2172,1735;2,16223
2170,12235;2,16614
2168,07119;2,17112
2166,02004;2,17593
2163,96888;2,18064
2161,91773;2,18667
2159,86657;2,19355
2157,81542;2,20067
2155,76426;2,20839
2153,71311;2,2163
2151,66195;2,22353
2149,61079;2,23108
2147,55964;2,23899
2145,50848;2,2455
2143,45733;2,24928
2141,40617;2,24987
2139,35502;2,24935
2137,30386;2,24907
2135,25271;2,24661
2133,20155;2,24112
2131,1504;2,23616
2129,09924;2,23189
2127,04809;2,22552
2124,99693;2,21761
2122,94578;2,20879
2120,89462;2,19861
2118,84346;2,18824
2116,79231;2,18107
2114,74115;2,17847
2112,69;2,17734
2110,63884;2,17429
2108,58769;2,16978
2106,53653;2,16708
2104,48538;2,16674
2102,43422;2,16658
2100,38307;2,1658
2098,33191;2,16523
2096,28076;2,16523
2094,2296;2,16575
2092,17844;2,16712
2090,12729;2,16838
2088,07613;2,16878
2086,02498;2,16931
2083,97382;2,17025
2081,92267;2,17127
2079,87151;2,17271
2077,82036;2,17432
2075,7692;2,17606
2073,71805;2,17883
2071,66689;2,18185
2069,61574;2,18306
2067,56458;2,18326
2065,51343;2,18477
2063,46227;2,18755
2061,41111;2,19021
2059,35996;2,19217
2057,3088;2,19392
2055,25765;2,19656
2053,20649;2,20005
2051,15534;2,20295
2049,10418;2,20485
2047,05303;2,20677
2045,00187;2,2105
2042,95072;2,216
2040,89956;2,22011
2038,84841;2,22239
2036,79725;2,22517
2034,7461;2,22824
2032,69494;2,23112
2030,64378;2,23344
2028,59263;2,23478
2026,54147;2,2367
2024,49032;2,23937
2022,43916;2,24141
2020,38801;2,24344
2018,33685;2,24641
2016,2857;2,24945
2014,23454;2,25155
2012,18339;2,25263
2010,13223;2,25393
2008,08108;2,2569
2006,02992;2,26028
2003,97877;2,26278
2001,92761;2,26584
1999,87645;2,26927
1997,8253;2,27163
1995,77414;2,27362
1993,72299;2,2754
1991,67183;2,27639
1989,62068;2,27699
1987,56952;2,27762
1985,51837;2,27788
1983,46721;2,27786
1981,41606;2,27943
1979,3649;2,28254
1977,31375;2,28444
1975,26259;2,28439
1973,21144;2,28447
1971,16028;2,28605
1969,10912;2,28887
1967,05797;2,2942
1965,00681;2,30338
1962,95566;2,31234
1960,9045;2,31508
1958,85335;2,311
1956,80219;2,30258
1954,75104;2,29357
1952,69988;2,28861
1950,64873;2,28742
1948,59757;2,28736
1946,54642;2,28791
1944,49526;2,28932
1942,44411;2,29208
1940,39295;2,29574
1938,34179;2,29864
1936,29064;2,30109
1934,23948;2,30468
1932,18833;2,30945
1930,13717;2,31352
1928,08602;2,31462
1926,03486;2,31422
1923,98371;2,31604
1921,93255;2,31969
1919,8814;2,3221
1917,83024;2,32496
1915,77909;2,33212
1913,72793;2,34016
1911,67678;2,34476
1909,62562;2,34894
1907,57446;2,35537
1905,52331;2,36135
1903,47215;2,36593
1901,421;2,37138
1899,36984;2,37788
1897,31869;2,38445
1895,26753;2,39104
1893,21638;2,39735
1891,16522;2,4033
1889,11407;2,40787
1887,06291;2,41068
1885,01176;2,4143
1882,9606;2,42022
1880,90945;2,42702
1878,85829;2,43307
1876,80713;2,43809
1874,75598;2,44215
1872,70482;2,44508
1870,65367;2,44618
1868,60251;2,44536
1866,55136;2,445
1864,5002;2,44594
1862,44905;2,44691
1860,39789;2,44941
1858,34674;2,45448
1856,29558;2,45805
1854,24443;2,45718
1852,19327;2,45537
1850,14212;2,45721
1848,09096;2,46376
1846,0398;2,47162
1843,98865;2,47719
1841,93749;2,48277
1839,88634;2,48991
1837,83518;2,4977
1835,78403;2,50695
1833,73287;2,51638
1831,68172;2,5241
1829,63056;2,53259
1827,57941;2,54547
1825,52825;2,56195
1823,4771;2,57781
1821,42594;2,59114
1819,37478;2,60369
1817,32363;2,61794
1815,27247;2,63717
1813,22132;2,66171
1811,17016;2,68818
1809,11901;2,71727
1807,06785;2,75677
1805,0167;2,81349
1802,96554;2,88543
1800,91439;2,96135
1798,86323;3,02431
1796,81208;3,05999
1794,76092;3,06108
1792,70977;3,02668
1790,65861;2,96958
1788,60745;2,91125
1786,5563;2,86113
1784,50514;2,8205
1782,45399;2,78823
1780,40283;2,76215
1778,35168;2,74675
1776,30052;2,7456
1774,24937;2,74875
1772,19821;2,7416
1770,14706;2,72721
1768,0959;2,72158
1766,04475;2,72731
1763,99359;2,73379
1761,94244;2,73688
1759,89128;2,74672
1757,84012;2,76528
1755,78897;2,7771
1753,73781;2,77327
1751,68666;2,76329
1749,6355;2,76154
1747,58435;2,77049
1745,53319;2,78123
1743,48204;2,79012
1741,43088;2,79862
1739,37973;2,80513
1737,32857;2,8045
1735,27742;2,79409
1733,22626;2,78379
1731,17511;2,78708
1729,12395;2,79721
1727,07279;2,80425
1725,02164;2,80711
1722,97048;2,80869
1720,91933;2,81201
1718,86817;2,8161
1716,81702;2,81773
1714,76586;2,81851
1712,71471;2,82214
1710,66355;2,82713
1708,6124;2,83012
1706,56124;2,83256
1704,51009;2,83617
1702,45893;2,83783
1700,40778;2,83711
1698,35662;2,83901
1696,30546;2,84545
1694,25431;2,85477
1692,20315;2,86396
1690,152;2,87149
1688,10084;2,88352
1686,04969;2,90229
1683,99853;2,91477
1681,94738;2,91617
1679,89622;2,91763
1677,84507;2,92175
1675,79391;2,9272
1673,74276;2,93609
1671,6916;2,94496
1669,64045;2,94546
1667,58929;2,94647
1665,53813;2,96101
1663,48698;2,98332
1661,43582;3,00026
1659,38467;3,00778
1657,33351;3,0123
1655,28236;3,01209
1653,2312;2,99932
1651,18005;2,99511
1649,12889;3,01539
1647,07774;3,03893
1645,02658;3,04878
1642,97543;3,05728
1640,92427;3,06962
1638,87312;3,07815
1636,82196;3,07744
1634,7708;3,06856
1632,71965;3,05806
1630,66849;3,05036
1628,61734;3,05069
1626,56618;3,0629
1624,51503;3,07557
1622,46387;3,07182
1620,41272;3,05889
1618,36156;3,06021
1616,31041;3,07991
1614,25925;3,09327
1612,2081;3,0876
1610,15694;3,07614
1608,10579;3,07044
1606,05463;3,0698
1604,00347;3,06606
1601,95232;3,05576
1599,90116;3,04452
1597,85001;3,03263
1595,79885;3,02179
1593,7477;3,02035
1591,69654;3,024
1589,64539;3,02082
1587,59423;3,00715
1585,54308;2,98683
1583,49192;2,96949
1581,44077;2,96036
1579,38961;2,9495
1577,33846;2,92001
1575,2873;2,87744
1573,23614;2,84757
1571,18499;2,82878
1569,13383;2,8052
1567,08268;2,77381
1565,03152;2,74075
1562,98037;2,71329
1560,92921;2,69001
1558,87806;2,65991
1556,8269;2,62953
1554,77575;2,60741
1552,72459;2,58736
1550,67344;2,56739
1548,62228;2,54803
1546,57113;2,5286
1544,51997;2,50961
1542,46881;2,49284
1540,41766;2,47668
1538,3665;2,46561
1536,31535;2,4615
1534,26419;2,455
1532,21304;2,4452
1530,16188;2,43899
1528,11073;2,43414
1526,05957;2,42521
1524,00842;2,41302
1521,95726;2,40135
1519,90611;2,3944
1517,85495;2,39377
1515,80379;2,39799
1513,75264;2,40292
1511,70148;2,40377
1509,65033;2,39935
1507,59917;2,39341
1505,54802;2,39375
1503,49686;2,39958
1501,44571;2,40396
1499,39455;2,40513
1497,3434;2,4035
1495,29224;2,40103
1493,24109;2,40014
1491,18993;2,39784
1489,13878;2,39318
1487,08762;2,39258
1485,03646;2,39792
1482,98531;2,40421
1480,93415;2,40674
1478,883;2,40447
1476,83184;2,40019
1474,78069;2,39763
1472,72953;2,39801
1470,67838;2,4
1468,62722;2,40143
1466,57607;2,40085
1464,52491;2,39887
1462,47376;2,3988
1460,4226;2,40085
1458,37145;2,39854
1456,32029;2,38882
1454,26913;2,38152
1452,21798;2,38018
1450,16682;2,38045
1448,11567;2,38034
1446,06451;2,37973
1444,01336;2,37736
1441,9622;2,37354
1439,91105;2,37031
1437,85989;2,36608
1435,80874;2,36
1433,75758;2,35568
1431,70643;2,35009
1429,65527;2,33947
1427,60412;2,32859
1425,55296;2,31948
1423,5018;2,30897
1421,45065;2,29664
1419,39949;2,28175
1417,34834;2,2666
1415,29718;2,25466
1413,24603;2,24159
1411,19487;2,22581
1409,14372;2,21378
1407,09256;2,21239
1405,04141;2,2221
1402,99025;2,23644
1400,9391;2,2481
1398,88794;2,2571
1396,83679;2,26829
1394,78563;2,28282
1392,73447;2,29889
1390,68332;2,31514
1388,63216;2,33112
1386,58101;2,34796
1384,52985;2,36437
1382,4787;2,37683
1380,42754;2,38571
1378,37639;2,39404
1376,32523;2,40267
1374,27408;2,40891
1372,22292;2,41016
1370,17177;2,4089
1368,12061;2,40966
1366,06946;2,41231
1364,0183;2,41194
1361,96714;2,40665
1359,91599;2,40188
1357,86483;2,40168
1355,81368;2,40341
1353,76252;2,40402
1351,71137;2,40399
1349,66021;2,40487
1347,60906;2,40699
1345,5579;2,4092
1343,50675;2,41011
1341,45559;2,40926
1339,40444;2,40775
1337,35328;2,40743
1335,30213;2,40881
1333,25097;2,41104
1331,19981;2,41263
1329,14866;2,41327
1327,0975;2,41538
1325,04635;2,41994
1322,99519;2,42337
1320,94404;2,42276
1318,89288;2,42026
1316,84173;2,41827
1314,79057;2,41626
1312,73942;2,41568
1310,68826;2,41751
1308,63711;2,41813
1306,58595;2,41651
1304,5348;2,41577
1302,48364;2,41604
1300,43248;2,41542
1298,38133;2,41546
1296,33017;2,41653
1294,27902;2,41654
1292,22786;2,41698
1290,17671;2,41852
1288,12555;2,41979
1286,0744;2,42176
1284,02324;2,42568
1281,97209;2,43044
1279,92093;2,43426
1277,86978;2,43884
1275,81862;2,44579
1273,76747;2,45266
1271,71631;2,45775
1269,66515;2,46225
1267,614;2,46669
1265,56284;2,47085
1263,51169;2,47763
1261,46053;2,48585
1259,40938;2,48964
1257,35822;2,49262
1255,30707;2,50109
1253,25591;2,50988
1251,20476;2,51444
1249,1536;2,51915
1247,10245;2,52455
1245,05129;2,53005
1243,00013;2,53825
1240,94898;2,54606
1238,89782;2,55031
1236,84667;2,55387
1234,79551;2,55928
1232,74436;2,56355
1230,6932;2,56523
1228,64205;2,56751
1226,59089;2,57178
1224,53974;2,57617
1222,48858;2,5796
1220,43743;2,5837
1218,38627;2,58862
1216,33512;2,59188
1214,28396;2,59263
1212,2328;2,59325
1210,18165;2,59707
1208,13049;2,59986
1206,07934;2,59642
1204,02818;2,59295
1201,97703;2,5921
1199,92587;2,59095
1197,87472;2,59411
1195,82356;2,60077
1193,77241;2,60282
1191,72125;2,60164
1189,6701;2,60302
1187,61894;2,60676
1185,56779;2,60887
1183,51663;2,60855
1181,46547;2,61142
1179,41432;2,6155
1177,36316;2,61205
1175,31201;2,60459
1173,26085;2,60286
1171,2097;2,61041
1169,15854;2,62355
1167,10739;2,63641
1165,05623;2,64867
1163,00508;2,66211
1160,95392;2,67688
1158,90277;2,69185
1156,85161;2,70161
1154,80046;2,69994
1152,7493;2,69061
1150,69814;2,6838
1148,64699;2,67537
1146,59583;2,65973
1144,54468;2,64823
1142,49352;2,6457
1140,44237;2,64265
1138,39121;2,63204
1136,34006;2,62312
1134,2889;2,62319
1132,23775;2,62193
1130,18659;2,61349
1128,13544;2,60504
1126,08428;2,60401
1124,03313;2,60953
1121,98197;2,61454
1119,93081;2,61766
1117,87966;2,62004
1115,8285;2,61706
1113,77735;2,61018
1111,72619;2,60587
1109,67504;2,60764
1107,62388;2,61506
1105,57273;2,61887
1103,52157;2,61915
1101,47042;2,62553
1099,41926;2,63581
1097,36811;2,64171
1095,31695;2,63914
1093,2658;2,63719
1091,21464;2,64796
1089,16348;2,66165
1087,11233;2,66672
1085,06117;2,67289
1083,01002;2,6792
1080,95886;2,6728
1078,90771;2,66257
1076,85655;2,66042
1074,8054;2,65935
1072,75424;2,65497
1070,70309;2,65406
1068,65193;2,6552
1066,60078;2,65089
1064,54962;2,64715
1062,49847;2,65391
1060,44731;2,66464
1058,39615;2,67164
1056,345;2,67682
1054,29384;2,68463
1052,24269;2,69744
1050,19153;2,71185
1048,14038;2,72689
1046,08922;2,74041
1044,03807;2,74499
1041,98691;2,74686
1039,93576;2,75612
1037,8846;2,77015
1035,83345;2,78025
1033,78229;2,7814
1031,73114;2,78133
1029,67998;2,7771
1027,62882;2,76556
1025,57767;2,75771
1023,52651;2,7495
1021,47536;2,73689
1019,4242;2,72829
1017,37305;2,72487
1015,32189;2,72391
1013,27074;2,7192
1011,21958;2,70787
1009,16843;2,6994
1007,11727;2,69739
1005,06612;2,69548
1003,01496;2,69199
1000,96381;2,69114
998,91265;2,69502
996,86149;2,69708
994,81034;2,69454
992,75918;2,69478
990,70803;2,69772
988,65687;2,69674
986,60572;2,6913
984,55456;2,68839
982,50341;2,68973
980,45225;2,68839
978,4011;2,68489
976,34994;2,68581
974,29879;2,68762
972,24763;2,68288
970,19647;2,67903
968,14532;2,68077
966,09416;2,68075
964,04301;2,67825
961,99185;2,67524
959,9407;2,6731
957,88954;2,67269
955,83839;2,67191
953,78723;2,67069
951,73608;2,66743
949,68492;2,66202
947,63377;2,65936
945,58261;2,66332
943,53146;2,66676
941,4803;2,66175
939,42914;2,65521
937,37799;2,65371
935,32683;2,65919
933,27568;2,66681
931,22452;2,66747
929,17337;2,66656
927,12221;2,66564
925,07106;2,66019
923,0199;2,66132
920,96875;2,67254
918,91759;2,68263
916,86644;2,68718
914,81528;2,68329
912,76413;2,67158
910,71297;2,66586
908,66181;2,67805
906,61066;2,69853
904,5595;2,70217
902,50835;2,68637
900,45719;2,67213
898,40604;2,66721
896,35488;2,66436
894,30373;2,65861
892,25257;2,64681
890,20142;2,62619
888,15026;2,61736
886,09911;2,65161
884,04795;2,71937
881,9968;2,75691
879,94564;2,71448
877,89448;2,62074
875,84333;2,53264
873,79217;2,4698
871,74102;2,43828
869,68986;2,45304
867,63871;2,50338
865,58755;2,54252
863,5364;2,54472
861,48524;2,53349
859,43409;2,53075
857,38293;2,53307
855,33178;2,53399
853,28062;2,54142
851,22947;2,57486
849,17831;2,62109
847,12715;2,62283
845,076;2,58442
843,02484;2,55916
840,97369;2,55919
838,92253;2,5714
836,87138;2,58057
834,82022;2,57926
832,76907;2,58041
830,71791;2,59056
828,66676;2,5977
826,6156;2,60453
824,56445;2,61934
822,51329;2,64013
820,46214;2,66379
818,41098;2,68486
816,35982;2,69698
814,30867;2,70559
812,25751;2,72149
810,20636;2,73681
808,1552;2,73929
806,10405;2,73547
804,05289;2,736
802,00174;2,73258
799,95058;2,7284
797,89943;2,73864
795,84827;2,76062
793,79712;2,78092
791,74596;2,78689
789,69481;2,79071
787,64365;2,81134
785,59249;2,82323
783,54134;2,80853
781,49018;2,79356
779,43903;2,78492
777,38787;2,78084
775,33672;2,78495
773,28556;2,78047
771,23441;2,76653
769,18325;2,76088
767,1321;2,76462
765,08094;2,76893
763,02979;2,78063
760,97863;2,79906
758,92748;2,80358
756,87632;2,79621
754,82516;2,77955
752,77401;2,75816
750,72285;2,74785
748,6717;2,74623
746,62054;2,74787
744,56939;2,7561
742,51823;2,7592
740,46708;2,75503
738,41592;2,75687
736,36477;2,76043
734,31361;2,76456
732,26246;2,7736
730,2113;2,78622
728,16015;2,81084
726,10899;2,8404
724,05783;2,85849
722,00668;2,87865
719,95552;2,91522
717,90437;2,95662
715,85321;2,97404
713,80206;2,94959
711,7509;2,90583
709,69975;2,8726
707,64859;2,8524
705,59744;2,84236
703,54628;2,83779
701,49513;2,82835
699,44397;2,81823
697,39281;2,80304
695,34166;2,77967
693,2905;2,77467
691,23935;2,80025
689,18819;2,83074
687,13704;2,83763
685,08588;2,82265
683,03473;2,80817
680,98357;2,80016
678,93242;2,79412
676,88126;2,79285
674,83011;2,79957
672,77895;2,8102
670,7278;2,81037
668,67664;2,8021
666,62548;2,80662
664,57433;2,81151
662,52317;2,79724
660,47202;2,77773
658,42086;2,76427
656,36971;2,74936
654,31855;2,73791
652,2674;2,74891
650,21624;2,78208
648,16509;2,8064
646,11393;2,80122
644,06278;2,79047
642,01162;2,79295
639,96047;2,79076
637,90931;2,77682
635,85815;2,77027
633,807;2,78321
631,75584;2,79942
629,70469;2,79883
627,65353;2,78703
625,60238;2,78317
623,55122;2,78887
621,50007;2,8048
619,44891;2,83128
617,39776;2,84804
615,3466;2,8492
613,29545;2,86366
611,24429;2,87972
609,19314;2,87205
607,14198;2,85409
605,09082;2,84484
603,03967;2,86215
600,98851;2,89756
598,93736;2,9315
596,8862;2,95122
594,83505;2,92981
592,78389;2,90968
590,73274;2,92432
588,68158;2,93509
586,63043;2,90921
584,57927;2,88819
582,52812;2,912
580,47696;2,95363
578,42581;2,95493
576,37465;2,94086
574,32349;2,95123
572,27234;2,94706
570,22118;2,93292
568,17003;2,95651
566,11887;3,00346
564,06772;3,06505
562,01656;3,10068
559,96541;3,07198
557,91425;3,01775
555,8631;3,00044
553,81194;3,04576
551,76079;3,08146
549,70963;3,04775
547,65848;3,02895
545,60732;3,03434
543,55616;3,00687
541,50501;2,98614
539,45385;2,98693
537,4027;2,98291
535,35154;2,96896
533,30039;2,97585
531,24923;3,01872
529,19808;3,06314
527,14692;3,0341
525,09577;2,9682
523,04461;2,94402
520,99346;2,96577
518,9423;2,97975
516,89115;2,97365
514,83999;3,03463
512,78883;3,16569
510,73768;3,24005
508,68652;3,17961
506,63537;3,11568
504,58421;3,11074
502,53306;3,09888
500,4819;3,06387
498,43075;3,02259
496,37959;2,97887
494,32844;2,91606
492,27728;2,8408
490,22613;2,79167
488,17497;2,78403
486,12382;2,7832
484,07266;2,76495
482,0215;2,75097
479,97035;2,76075
477,91919;2,7761
475,86804;2,76614
473,81688;2,73178
471,76573;2,72929
469,71457;2,80345
467,66342;2,89201
465,61226;2,89278
463,56111;2,87611
461,50995;2,94013
459,4588;3,01098
457,40764;2,99918
455,35649;2,98825
453,30533;2,97824
451,25417;2,96253
449,20302;2,97501
447,15186;2,97334
445,10071;2,9498
443,04955;2,87671
440,9984;2,82159
438,94724;2,85961
436,89609;2,89625
434,84493;2,88019
432,79378;2,79915
430,74262;2,73531
428,69147;2,75012
426,64031;2,81672
424,58916;2,94399
422,538;3,1241
420,48684;3,1797
418,43569;3,09975
416,38453;2,9146
414,33338;2,83659
412,28222;2,86852
410,23107;2,93925
408,17991;2,9816
406,12876;2,92156
404,0776;2,85494
402,02645;2,85496
399,97529;2,85811
