3997,70175;2,50065
3995,6506;2,4954
3993,59944;2,49832
3991,54829;2,50056
3989,49713;2,50316
3987,44598;2,51237
3985,39482;2,51378
3983,34367;2,50096
3981,29251;2,49236
3979,24136;2,4959
3977,1902;2,50151
3975,13905;2,50437
3973,08789;2,50782
3971,03673;2,50956
3968,98558;2,50594
3966,93442;2,50452
3964,88327;2,51328
3962,83211;2,52419
3960,78096;2,52503
3958,7298;2,52095
3956,67865;2,52104
3954,62749;2,52146
3952,57634;2,52071
3950,52518;2,52431
3948,47403;2,52577
3946,42287;2,51838
3944,37172;2,51059
3942,32056;2,50637
3940,2694;2,50512
3938,21825;2,50778
3936,16709;2,51137
3934,11594;2,51385
3932,06478;2,50994
3930,01363;2,50157
3927,96247;2,50487
3925,91132;2,50944
3923,86016;2,49787
3921,80901;2,48592
3919,75785;2,48655
3917,7067;2,49381
3915,65554;2,49805
3913,60439;2,49758
3911,55323;2,49278
3909,50207;2,48904
3907,45092;2,49096
3905,39976;2,4907
3903,34861;2,48748
3901,29745;2,48969
3899,2463;2,4949
3897,19514;2,49643
3895,14399;2,49757
3893,09283;2,50005
3891,04168;2,49179
3888,99052;2,48196
3886,93937;2,4884
3884,88821;2,49595
3882,83706;2,49227
3880,7859;2,48445
3878,73474;2,47773
3876,68359;2,48087
3874,63243;2,48639
3872,58128;2,48395
3870,53012;2,47807
3868,47897;2,47737
3866,42781;2,48227
3864,37666;2,4801
3862,3255;2,472
3860,27435;2,47383
3858,22319;2,48571
3856,17204;2,4983
3854,12088;2,49679
3852,06973;2,48044
3850,01857;2,47675
3847,96741;2,48021
3845,91626;2,48033
3843,8651;2,4783
3841,81395;2,47725
3839,76279;2,47569
3837,71164;2,47411
3835,66048;2,47472
3833,60933;2,47325
3831,55817;2,47024
3829,50702;2,46894
3827,45586;2,46655
3825,40471;2,46529
3823,35355;2,47318
3821,3024;2,48734
3819,25124;2,49546
3817,20008;2,48825
3815,14893;2,46503
3813,09777;2,44949
3811,04662;2,45148
3808,99546;2,4632
3806,94431;2,47564
3804,89315;2,48315
3802,842;2,48764
3800,79084;2,48775
3798,73969;2,48341
3796,68853;2,47668
3794,63738;2,47105
3792,58622;2,46848
3790,53506;2,46518
3788,48391;2,46163
3786,43275;2,46084
3784,3816;2,46247
3782,33044;2,46982
3780,27929;2,47982
3778,22813;2,48122
3776,17698;2,47687
3774,12582;2,47563
3772,07467;2,48092
3770,02351;2,48441
3767,97236;2,48053
3765,9212;2,48089
3763,87005;2,48567
3761,81889;2,49061
3759,76773;2,49195
3757,71658;2,48692
3755,66542;2,48866
3753,61427;2,50351
3751,56311;2,51492
3749,51196;2,50471
3747,4608;2,4952
3745,40965;2,49882
3743,35849;2,50098
3741,30734;2,49712
3739,25618;2,49583
3737,20503;2,4974
3735,15387;2,49925
3733,10272;2,49814
3731,05156;2,49855
3729,0004;2,50756
3726,94925;2,5185
3724,89809;2,51865
3722,84694;2,51251
3720,79578;2,51043
3718,74463;2,51033
3716,69347;2,51264
3714,64232;2,52305
3712,59116;2,53121
3710,54001;2,52481
3708,48885;2,51881
3706,4377;2,51696
3704,38654;2,52091
3702,33539;2,53599
3700,28423;2,55012
3698,23307;2,55452
3696,18192;2,56247
3694,13076;2,58
3692,07961;2,5932
3690,02845;2,5858
3687,9773;2,56657
3685,92614;2,56344
3683,87499;2,57589
3681,82383;2,58829
3679,77268;2,5962
3677,72152;2,60591
3675,67037;2,61082
3673,61921;2,61083
3671,56806;2,61849
3669,5169;2,61565
3667,46574;2,60632
3665,41459;2,61526
3663,36343;2,63349
3661,31228;2,64204
3659,26112;2,64377
3657,20997;2,65288
3655,15881;2,66599
3653,10766;2,67438
3651,0565;2,67927
3649,00535;2,68972
3646,95419;2,71699
3644,90304;2,74251
3642,85188;2,74527
3640,80073;2,72863
3638,74957;2,71778
3636,69841;2,724
3634,64726;2,73841
3632,5961;2,755
3630,54495;2,76849
3628,49379;2,76911
3626,44264;2,76143
3624,39148;2,75403
3622,34033;2,74828
3620,28917;2,75009
3618,23802;2,76225
3616,18686;2,77799
3614,13571;2,78834
3612,08455;2,79341
3610,0334;2,79981
3607,98224;2,80159
3605,93108;2,79957
3603,87993;2,80443
3601,82877;2,80711
3599,77762;2,80337
3597,72646;2,80092
3595,67531;2,78972
3593,62415;2,77961
3591,573;2,79032
3589,52184;2,80826
3587,47069;2,81422
3585,41953;2,81131
3583,36838;2,8118
3581,31722;2,81548
3579,26607;2,81204
3577,21491;2,7998
3575,16375;2,79386
3573,1126;2,79902
3571,06144;2,81506
3569,01029;2,8369
3566,95913;2,83357
3564,90798;2,81797
3562,85682;2,82661
3560,80567;2,83299
3558,75451;2,81965
3556,70336;2,81539
3554,6522;2,82309
3552,60105;2,81909
3550,54989;2,80905
3548,49874;2,8094
3546,44758;2,81163
3544,39642;2,8093
3542,34527;2,81731
3540,29411;2,83026
3538,24296;2,83015
3536,1918;2,82176
3534,14065;2,81569
3532,08949;2,81306
3530,03834;2,81055
3527,98718;2,8134
3525,93603;2,82296
3523,88487;2,83466
3521,83372;2,84032
3519,78256;2,83362
3517,73141;2,83253
3515,68025;2,83708
3513,62909;2,82888
3511,57794;2,81111
3509,52678;2,79404
3507,47563;2,79102
3505,42447;2,80596
3503,37332;2,81344
3501,32216;2,80446
3499,27101;2,8044
3497,21985;2,81325
3495,1687;2,81216
3493,11754;2,80122
3491,06639;2,79355
3489,01523;2,79725
3486,96407;2,8017
3484,91292;2,79409
3482,86176;2,78686
3480,81061;2,79551
3478,75945;2,80863
3476,7083;2,81037
3474,65714;2,81032
3472,60599;2,80874
3470,55483;2,7977
3468,50368;2,78774
3466,45252;2,78615
3464,40137;2,78522
3462,35021;2,78379
3460,29906;2,78908
3458,2479;2,79265
3456,19674;2,78632
3454,14559;2,78374
3452,09443;2,78758
3450,04328;2,78365
3447,99212;2,77232
3445,94097;2,76837
3443,88981;2,77886
3441,83866;2,79289
3439,7875;2,79474
3437,73635;2,78628
3435,68519;2,77612
3433,63404;2,77115
3431,58288;2,7732
3429,53173;2,77417
3427,48057;2,77162
3425,42941;2,77294
3423,37826;2,77841
3421,3271;2,77665
3419,27595;2,76903
3417,22479;2,76176
3415,17364;2,7539
3413,12248;2,75186
3411,07133;2,75565
3409,02017;2,75865
3406,96902;2,76074
3404,91786;2,76104
3402,86671;2,75748
3400,81555;2,7553
3398,7644;2,75714
3396,71324;2,76196
3394,66208;2,77267
3392,61093;2,7801
3390,55977;2,77375
3388,50862;2,76276
3386,45746;2,75111
3384,40631;2,7452
3382,35515;2,74613
3380,304;2,74133
3378,25284;2,73074
3376,20169;2,72831
3374,15053;2,73457
3372,09938;2,73578
3370,04822;2,73387
3367,99707;2,73761
3365,94591;2,74178
3363,89475;2,74229
3361,8436;2,73905
3359,79244;2,72965
3357,74129;2,72235
3355,69013;2,72433
3353,63898;2,72808
3351,58782;2,73444
3349,53667;2,74172
3347,48551;2,73583
3345,43436;2,72762
3343,3832;2,72804
3341,33205;2,7264
3339,28089;2,72232
3337,22974;2,71905
3335,17858;2,71473
3333,12742;2,70796
3331,07627;2,69743
3329,02511;2,69074
3326,97396;2,69615
3324,9228;2,70505
3322,87165;2,70699
3320,82049;2,70575
3318,76934;2,70253
3316,71818;2,69909
3314,66703;2,69836
3312,61587;2,69458
3310,56472;2,68893
3308,51356;2,6892
3306,46241;2,69544
3304,41125;2,70123
3302,36009;2,69908
3300,30894;2,69236
3298,25778;2,69242
3296,20663;2,6983
3294,15547;2,70102
3292,10432;2,6991
3290,05316;2,6981
3288,00201;2,69924
3285,95085;2,69861
3283,8997;2,69745
3281,84854;2,69861
3279,79739;2,69806
3277,74623;2,69716
3275,69508;2,69968
3273,64392;2,69859
3271,59276;2,69298
3269,54161;2,69097
3267,49045;2,69391
3265,4393;2,69989
3263,38814;2,70361
3261,33699;2,70235
3259,28583;2,70159
3257,23468;2,70188
3255,18352;2,6965
3253,13237;2,68731
3251,08121;2,68349
3249,03006;2,68227
3246,9789;2,68032
3244,92775;2,68671
3242,87659;2,695
3240,82543;2,69099
3238,77428;2,68587
3236,72312;2,68904
3234,67197;2,69378
3232,62081;2,69349
3230,56966;2,68762
3228,5185;2,67977
3226,46735;2,67751
3224,41619;2,68565
3222,36504;2,69365
3220,31388;2,68897
3218,26273;2,67783
3216,21157;2,67379
3214,16041;2,67849
3212,10926;2,68409
3210,0581;2,68399
3208,00695;2,67979
3205,95579;2,67814
3203,90464;2,68143
3201,85348;2,68612
3199,80233;2,68486
3197,75117;2,68064
3195,70002;2,68124
3193,64886;2,67908
3191,59771;2,66873
3189,54655;2,66399
3187,4954;2,66968
3185,44424;2,67155
3183,39308;2,67164
3181,34193;2,68277
3179,29077;2,69564
3177,23962;2,69427
3175,18846;2,68453
3173,13731;2,68035
3171,08615;2,67998
3169,035;2,67673
3166,98384;2,67149
3164,93269;2,66636
3162,88153;2,66603
3160,83038;2,66691
3158,77922;2,66263
3156,72807;2,66319
3154,67691;2,67314
3152,62575;2,68153
3150,5746;2,67954
3148,52344;2,67383
3146,47229;2,67153
3144,42113;2,67097
3142,36998;2,67166
3140,31882;2,67279
3138,26767;2,67532
3136,21651;2,68095
3134,16536;2,68587
3132,1142;2,68801
3130,06305;2,68716
3128,01189;2,68245
3125,96074;2,67704
3123,90958;2,67469
3121,85842;2,67659
3119,80727;2,68015
3117,75611;2,68038
3115,70496;2,68011
3113,6538;2,68231
3111,60265;2,68294
3109,55149;2,68326
3107,50034;2,68559
3105,44918;2,68676
3103,39803;2,68511
3101,34687;2,68413
3099,29572;2,68214
3097,24456;2,67272
3095,19341;2,66155
3093,14225;2,65885
3091,09109;2,66429
3089,03994;2,67158
3086,98878;2,67471
3084,93763;2,66982
3082,88647;2,66313
3080,83532;2,65788
3078,78416;2,64833
3076,73301;2,64457
3074,68185;2,65444
3072,6307;2,66358
3070,57954;2,66343
3068,52839;2,66312
3066,47723;2,66557
3064,42608;2,6661
3062,37492;2,66639
3060,32376;2,66667
3058,27261;2,66665
3056,22145;2,66887
3054,1703;2,67197
3052,11914;2,67312
3050,06799;2,67102
3048,01683;2,66538
3045,96568;2,66184
3043,91452;2,66118
3041,86337;2,65625
3039,81221;2,65322
3037,76106;2,65778
3035,7099;2,66048
3033,65875;2,65808
3031,60759;2,65857
3029,55643;2,66586
3027,50528;2,67293
3025,45412;2,67295
3023,40297;2,67181
3021,35181;2,67571
3019,30066;2,67792
3017,2495;2,67777
3015,19835;2,68363
3013,14719;2,68916
3011,09604;2,68403
3009,04488;2,67483
3006,99373;2,66985
3004,94257;2,6683
3002,89142;2,67004
3000,84026;2,6726
2998,7891;2,67246
2996,73795;2,67403
2994,68679;2,6798
2992,63564;2,68326
2990,58448;2,68459
2988,53333;2,69348
2986,48217;2,70412
2984,43102;2,70188
2982,37986;2,69268
2980,32871;2,68993
2978,27755;2,69225
2976,2264;2,69464
2974,17524;2,69802
2972,12409;2,69716
2970,07293;2,68982
2968,02177;2,68718
2965,97062;2,68882
2963,91946;2,68623
2961,86831;2,68712
2959,81715;2,69511
2957,766;2,69643
2955,71484;2,68755
2953,66369;2,68369
2951,61253;2,6894
2949,56138;2,69588
2947,51022;2,69904
2945,45907;2,69919
2943,40791;2,70092
2941,35675;2,70632
2939,3056;2,70643
2937,25444;2,69608
2935,20329;2,68691
2933,15213;2,68898
2931,10098;2,69537
2929,04982;2,69706
2926,99867;2,69361
2924,94751;2,68658
2922,89636;2,6799
2920,8452;2,6783
2918,79405;2,67916
2916,74289;2,67925
2914,69174;2,68239
2912,64058;2,68982
2910,58942;2,6921
2908,53827;2,68317
2906,48711;2,67655
2904,43596;2,68183
2902,3848;2,6888
2900,33365;2,68804
2898,28249;2,68316
2896,23134;2,67711
2894,18018;2,67271
2892,12903;2,67456
2890,07787;2,67688
2888,02672;2,67742
2885,97556;2,67767
2883,92441;2,67395
2881,87325;2,67299
2879,82209;2,67965
2877,77094;2,68277
2875,71978;2,67932
2873,66863;2,67744
2871,61747;2,67587
2869,56632;2,67219
2867,51516;2,66948
2865,46401;2,67132
2863,41285;2,67966
2861,3617;2,68452
2859,31054;2,67577
2857,25939;2,65978
2855,20823;2,64812
2853,15708;2,64476
2851,10592;2,64607
2849,05476;2,64908
2847,00361;2,65286
2844,95245;2,65675
2842,9013;2,66012
2840,85014;2,65897
2838,79899;2,65284
2836,74783;2,64354
2834,69668;2,63331
2832,64552;2,62874
2830,59437;2,63181
2828,54321;2,63692
2826,49206;2,63822
2824,4409;2,63374
2822,38975;2,62772
2820,33859;2,62562
2818,28743;2,62663
2816,23628;2,626
2814,18512;2,62416
2812,13397;2,62302
2810,08281;2,62018
2808,03166;2,61668
2805,9805;2,61569
2803,92935;2,61591
2801,87819;2,61692
2799,82704;2,61778
2797,77588;2,61734
2795,72473;2,61527
2793,67357;2,60998
2791,62242;2,60598
2789,57126;2,60567
2787,5201;2,60477
2785,46895;2,60486
2783,41779;2,60605
2781,36664;2,60237
2779,31548;2,59751
2777,26433;2,59916
2775,21317;2,60285
2773,16202;2,6022
2771,11086;2,59919
2769,05971;2,59729
2767,00855;2,599
2764,9574;2,60417
2762,90624;2,60676
2760,85509;2,60286
2758,80393;2,59718
2756,75277;2,5971
2754,70162;2,60191
2752,65046;2,60299
2750,59931;2,59637
2748,54815;2,5894
2746,497;2,58959
2744,44584;2,59218
2742,39469;2,58972
2740,34353;2,58631
2738,29238;2,58773
2736,24122;2,59122
2734,19007;2,59157
2732,13891;2,58823
2730,08776;2,58517
2728,0366;2,58459
2725,98544;2,58476
2723,93429;2,58528
2721,88313;2,58546
2719,83198;2,58389
2717,78082;2,58385
2715,72967;2,58253
2713,67851;2,57644
2711,62736;2,57311
2709,5762;2,57351
2707,52505;2,57149
2705,47389;2,56961
2703,42274;2,57127
2701,37158;2,57621
2699,32043;2,58046
2697,26927;2,57893
2695,21811;2,57404
2693,16696;2,56791
2691,1158;2,56584
2689,06465;2,57183
2687,01349;2,57455
2684,96234;2,5718
2682,91118;2,57246
2680,86003;2,57559
2678,80887;2,57921
2676,75772;2,5808
2674,70656;2,579
2672,65541;2,57728
2670,60425;2,5755
2668,55309;2,57083
2666,50194;2,56584
2664,45078;2,56804
2662,39963;2,57207
2660,34847;2,56829
2658,29732;2,56261
2656,24616;2,5605
2654,19501;2,56046
2652,14385;2,56034
2650,0927;2,5605
2648,04154;2,56454
2645,99039;2,56932
2643,93923;2,57067
2641,88808;2,57414
2639,83692;2,5796
2637,78576;2,57988
2635,73461;2,57941
2633,68345;2,5837
2631,6323;2,58499
2629,58114;2,58165
2627,52999;2,58482
2625,47883;2,59648
2623,42768;2,60664
2621,37652;2,60744
2619,32537;2,60364
2617,27421;2,60381
2615,22306;2,6066
2613,1719;2,60687
2611,12075;2,60587
2609,06959;2,60876
2607,01843;2,61514
2604,96728;2,61879
2602,91612;2,61625
2600,86497;2,61506
2598,81381;2,62053
2596,76266;2,62506
2594,7115;2,62645
2592,66035;2,62683
2590,60919;2,62378
2588,55804;2,62049
2586,50688;2,6202
2584,45573;2,61896
2582,40457;2,61837
2580,35342;2,6224
2578,30226;2,62601
2576,2511;2,6268
2574,19995;2,62731
2572,14879;2,62847
2570,09764;2,62957
2568,04648;2,62763
2565,99533;2,62668
2563,94417;2,62985
2561,89302;2,6291
2559,84186;2,62371
2557,79071;2,62182
2555,73955;2,62598
2553,6884;2,63234
2551,63724;2,63636
2549,58609;2,63831
2547,53493;2,64139
2545,48377;2,64643
2543,43262;2,65
2541,38146;2,64802
2539,33031;2,64522
2537,27915;2,6484
2535,228;2,65464
2533,17684;2,6616
2531,12569;2,66819
2529,07453;2,6686
2527,02338;2,6659
2524,97222;2,67011
2522,92107;2,67927
2520,86991;2,6825
2518,81876;2,6803
2516,7676;2,67878
2514,71644;2,67785
2512,66529;2,67782
2510,61413;2,67762
2508,56298;2,6765
2506,51182;2,67524
2504,46067;2,67292
2502,40951;2,66797
2500,35836;2,6609
2498,3072;2,65506
2496,25605;2,65231
2494,20489;2,65114
2492,15374;2,64722
2490,10258;2,63863
2488,05143;2,62975
2486,00027;2,62374
2483,94911;2,61792
2481,89796;2,61228
2479,8468;2,60921
2477,79565;2,60434
2475,74449;2,59548
2473,69334;2,58793
2471,64218;2,58241
2469,59103;2,57665
2467,53987;2,57232
2465,48872;2,56779
2463,43756;2,56201
2461,38641;2,55852
2459,33525;2,55604
2457,2841;2,55125
2455,23294;2,5438
2453,18178;2,53816
2451,13063;2,53815
2449,07947;2,53995
2447,02832;2,54031
2444,97716;2,53942
2442,92601;2,53752
2440,87485;2,53564
2438,8237;2,53481
2436,77254;2,53333
2434,72139;2,5291
2432,67023;2,52491
2430,61908;2,52214
2428,56792;2,51874
2426,51677;2,51759
2424,46561;2,51796
2422,41445;2,51427
2420,3633;2,50941
2418,31214;2,50987
2416,26099;2,51414
2414,20983;2,5151
2412,15868;2,51188
2410,10752;2,50866
2408,05637;2,50689
2406,00521;2,50528
2403,95406;2,50292
2401,9029;2,50108
2399,85175;2,50136
2397,80059;2,5034
2395,74944;2,50376
2393,69828;2,50276
2391,64712;2,50401
2389,59597;2,50617
2387,54481;2,50632
2385,49366;2,50511
2383,4425;2,50503
2381,39135;2,50627
2379,34019;2,50855
2377,28904;2,51246
2375,23788;2,51685
2373,18673;2,52001
2371,13557;2,52245
2369,08442;2,52731
2367,03326;2,53866
2364,9821;2,55255
2362,93095;2,56113
2360,87979;2,56353
2358,82864;2,55724
2356,77748;2,55032
2354,72633;2,54626
2352,67517;2,53791
2350,62402;2,53094
2348,57286;2,53261
2346,52171;2,53941
2344,47055;2,54348
2342,4194;2,54483
2340,36824;2,54457
2338,31709;2,54343
2336,26593;2,5445
2334,21477;2,54474
2332,16362;2,54202
2330,11246;2,53538
2328,06131;2,52618
2326,01015;2,52278
2323,959;2,52503
2321,90784;2,52355
2319,85669;2,51742
2317,80553;2,51376
2315,75438;2,51418
2313,70322;2,51665
2311,65207;2,51844
2309,60091;2,51667
2307,54976;2,51293
2305,4986;2,5106
2303,44744;2,50816
2301,39629;2,50428
2299,34513;2,50221
2297,29398;2,50189
2295,24282;2,50083
2293,19167;2,49995
2291,14051;2,49802
2289,08936;2,49563
2287,0382;2,49741
2284,98705;2,5
2282,93589;2,49869
2280,88474;2,49639
2278,83358;2,49367
2276,78243;2,49126
2274,73127;2,49405
2272,68011;2,49955
2270,62896;2,49956
2268,5778;2,49573
2266,52665;2,49744
2264,47549;2,5042
2262,42434;2,50634
2260,37318;2,50198
2258,32203;2,49719
2256,27087;2,49567
2254,21972;2,49835
2252,16856;2,50263
2250,11741;2,50373
2248,06625;2,50368
2246,0151;2,50493
2243,96394;2,50589
2241,91278;2,50618
2239,86163;2,50786
2237,81047;2,51269
2235,75932;2,51435
2233,70816;2,50976
2231,65701;2,50732
2229,60585;2,51008
2227,5547;2,51372
2225,50354;2,51734
2223,45239;2,51979
2221,40123;2,5188
2219,35008;2,51788
2217,29892;2,51964
2215,24777;2,52217
2213,19661;2,52447
2211,14545;2,52677
2209,0943;2,52843
2207,04314;2,52846
2204,99199;2,52791
2202,94083;2,52616
2200,88968;2,52358
2198,83852;2,5249
2196,78737;2,52835
2194,73621;2,52852
2192,68506;2,52716
2190,6339;2,52679
2188,58275;2,5277
2186,53159;2,53012
2184,48044;2,53105
2182,42928;2,52906
2180,37812;2,52715
2178,32697;2,52706
2176,27581;2,52955
2174,22466;2,53393
2172,1735;2,53608
2170,12235;2,53534
2168,07119;2,53541
2166,02004;2,53699
2163,96888;2,54036
2161,91773;2,54541
2159,86657;2,54918
2157,81542;2,55062
2155,76426;2,55143
2153,71311;2,55361
2151,66195;2,55691
2149,61079;2,55932
2147,55964;2,55989
2145,50848;2,55973
2143,45733;2,56169
2141,40617;2,56573
2139,35502;2,56808
2137,30386;2,56528
2135,25271;2,56075
2133,20155;2,56026
2131,1504;2,56143
2129,09924;2,56209
2127,04809;2,56228
2124,99693;2,55905
2122,94578;2,55302
2120,89462;2,54626
2118,84346;2,54072
2116,79231;2,53961
2114,74115;2,54206
2112,69;2,54338
2110,63884;2,5398
2108,58769;2,53365
2106,53653;2,53051
2104,48538;2,53131
2102,43422;2,53035
2100,38307;2,52568
2098,33191;2,52458
2096,28076;2,52774
2094,2296;2,52908
2092,17844;2,52938
2090,12729;2,53111
2088,07613;2,53177
2086,02498;2,53117
2083,97382;2,53234
2081,92267;2,53542
2079,87151;2,53738
2077,82036;2,53613
2075,7692;2,53398
2073,71805;2,53122
2071,66689;2,52864
2069,61574;2,53184
2067,56458;2,53927
2065,51343;2,54249
2063,46227;2,53955
2061,41111;2,53663
2059,35996;2,53578
2057,3088;2,53523
2055,25765;2,53804
2053,20649;2,54325
2051,15534;2,54463
2049,10418;2,54443
2047,05303;2,54684
2045,00187;2,54858
2042,95072;2,54721
2040,89956;2,54386
2038,84841;2,54167
2036,79725;2,54336
2034,7461;2,54789
2032,69494;2,5558
2030,64378;2,56815
2028,59263;2,58261
2026,54147;2,59831
2024,49032;2,61506
2022,43916;2,63342
2020,38801;2,65428
2018,33685;2,67271
2016,2857;2,68312
2014,23454;2,68223
2012,18339;2,66794
2010,13223;2,64552
2008,08108;2,62344
2006,02992;2,60626
2003,97877;2,59233
2001,92761;2,57718
1999,87645;2,5614
1997,8253;2,55136
1995,77414;2,54869
1993,72299;2,54819
1991,67183;2,54806
1989,62068;2,54974
1987,56952;2,55168
1985,51837;2,5503
1983,46721;2,54712
1981,41606;2,54662
1979,3649;2,54704
1977,31375;2,54582
1975,26259;2,54516
1973,21144;2,54551
1971,16028;2,54497
1969,10912;2,54591
1967,05797;2,54959
1965,00681;2,55311
1962,95566;2,55494
1960,9045;2,55415
1958,85335;2,55114
1956,80219;2,54795
1954,75104;2,54582
1952,69988;2,54519
1950,64873;2,54646
1948,59757;2,54937
1946,54642;2,55248
1944,49526;2,55357
1942,44411;2,55251
1940,39295;2,55245
1938,34179;2,55426
1936,29064;2,55494
1934,23948;2,55438
1932,18833;2,55664
1930,13717;2,55959
1928,08602;2,55857
1926,03486;2,55657
1923,98371;2,5569
1921,93255;2,55849
1919,8814;2,55909
1917,83024;2,55769
1915,77909;2,55887
1913,72793;2,5635
1911,67678;2,56566
1909,62562;2,56467
1907,57446;2,5649
1905,52331;2,56686
1903,47215;2,56731
1901,421;2,568
1899,36984;2,57272
1897,31869;2,57775
1895,26753;2,57626
1893,21638;2,57233
1891,16522;2,5724
1889,11407;2,5703
1887,06291;2,5684
1885,01176;2,57374
1882,9606;2,57935
1880,90945;2,58013
1878,85829;2,58043
1876,80713;2,58252
1874,75598;2,58373
1872,70482;2,58604
1870,65367;2,59284
1868,60251;2,59851
1866,55136;2,59567
1864,5002;2,58987
1862,44905;2,58658
1860,39789;2,58624
1858,34674;2,58991
1856,29558;2,59634
1854,24443;2,60221
1852,19327;2,60583
1850,14212;2,60829
1848,09096;2,61187
1846,0398;2,61683
1843,98865;2,62225
1841,93749;2,62532
1839,88634;2,62517
1837,83518;2,62518
1835,78403;2,62702
1833,73287;2,63301
1831,68172;2,64473
1829,63056;2,65416
1827,57941;2,65758
1825,52825;2,65799
1823,4771;2,65306
1821,42594;2,64954
1819,37478;2,65385
1817,32363;2,66299
1815,27247;2,67076
1813,22132;2,67623
1811,17016;2,68501
1809,11901;2,69557
1807,06785;2,70289
1805,0167;2,7133
1802,96554;2,72894
1800,91439;2,73991
1798,86323;2,74307
1796,81208;2,74556
1794,76092;2,74865
1792,70977;2,74441
1790,65861;2,73319
1788,60745;2,72652
1786,5563;2,72434
1784,50514;2,72094
1782,45399;2,71412
1780,40283;2,70762
1778,35168;2,7056
1776,30052;2,70932
1774,24937;2,71714
1772,19821;2,71983
1770,14706;2,71156
1768,0959;2,70482
1766,04475;2,70457
1763,99359;2,70487
1761,94244;2,70378
1759,89128;2,70759
1757,84012;2,71588
1755,78897;2,71924
1753,73781;2,72443
1751,68666;2,74089
1749,6355;2,75039
1747,58435;2,73972
1745,53319;2,72933
1743,48204;2,73098
1741,43088;2,73708
1739,37973;2,73372
1737,32857;2,72866
1735,27742;2,7328
1733,22626;2,73988
1731,17511;2,74663
1729,12395;2,74917
1727,07279;2,74633
1725,02164;2,74501
1722,97048;2,74582
1720,91933;2,75359
1718,86817;2,77208
1716,81702;2,78179
1714,76586;2,77242
1712,71471;2,76462
1710,66355;2,76372
1708,6124;2,7684
1706,56124;2,77472
1704,51009;2,78104
1702,45893;2,78868
1700,40778;2,79455
1698,35662;2,80191
1696,30546;2,80495
1694,25431;2,79576
1692,20315;2,79292
1690,152;2,79853
1688,10084;2,8046
1686,04969;2,8164
1683,99853;2,82808
1681,94738;2,82295
1679,89622;2,81471
1677,84507;2,80678
1675,79391;2,79728
1673,74276;2,79621
1671,6916;2,80711
1669,64045;2,81693
1667,58929;2,81875
1665,53813;2,81641
1663,48698;2,80858
1661,43582;2,80121
1659,38467;2,80328
1657,33351;2,80563
1655,28236;2,80017
1653,2312;2,79408
1651,18005;2,79678
1649,12889;2,8011
1647,07774;2,804
1645,02658;2,80259
1642,97543;2,79901
1640,92427;2,79399
1638,87312;2,79083
1636,82196;2,79421
1634,7708;2,79548
1632,71965;2,79362
1630,66849;2,7956
1628,61734;2,79615
1626,56618;2,79303
1624,51503;2,78979
1622,46387;2,78536
1620,41272;2,78322
1618,36156;2,78656
1616,31041;2,78421
1614,25925;2,7731
1612,2081;2,76675
1610,15694;2,76728
1608,10579;2,76658
1606,05463;2,75912
1604,00347;2,75034
1601,95232;2,74601
1599,90116;2,7429
1597,85001;2,736
1595,79885;2,73091
1593,7477;2,72682
1591,69654;2,71792
1589,64539;2,71331
1587,59423;2,71615
1585,54308;2,71284
1583,49192;2,70319
1581,44077;2,70166
1579,38961;2,70619
1577,33846;2,70105
1575,2873;2,68272
1573,23614;2,67304
1571,18499;2,67405
1569,13383;2,67179
1567,08268;2,66205
1565,03152;2,65286
1562,98037;2,64944
1560,92921;2,65326
1558,87806;2,65036
1556,8269;2,62716
1554,77575;2,60545
1552,72459;2,5866
1550,67344;2,57097
1548,62228;2,5594
1546,57113;2,55335
1544,51997;2,55258
1542,46881;2,5554
1540,41766;2,54847
1538,3665;2,52871
1536,31535;2,52391
1534,26419;2,53083
1532,21304;2,53535
1530,16188;2,53481
1528,11073;2,53538
1526,05957;2,53967
1524,00842;2,54701
1521,95726;2,55184
1519,90611;2,5519
1517,85495;2,55332
1515,80379;2,55381
1513,75264;2,55363
1511,70148;2,5604
1509,65033;2,57807
1507,59917;2,59993
1505,54802;2,59558
1503,49686;2,58191
1501,44571;2,58365
1499,39455;2,59445
1497,3434;2,60024
1495,29224;2,59917
1493,24109;2,60371
1491,18993;2,61617
1489,13878;2,62416
1487,08762;2,62137
1485,03646;2,62386
1482,98531;2,63414
1480,93415;2,64207
1478,883;2,64732
1476,83184;2,65631
1474,78069;2,66626
1472,72953;2,67243
1470,67838;2,67221
1468,62722;2,67167
1466,57607;2,67432
1464,52491;2,67408
1462,47376;2,6725
1460,4226;2,68111
1458,37145;2,69871
1456,32029;2,6989
1454,26913;2,68285
1452,21798;2,67372
1450,16682;2,66968
1448,11567;2,66584
1446,06451;2,66087
1444,01336;2,65647
1441,9622;2,65375
1439,91105;2,65397
1437,85989;2,65549
1435,80874;2,65776
1433,75758;2,66637
1431,70643;2,67528
1429,65527;2,67208
1427,60412;2,66578
1425,55296;2,66983
1423,5018;2,67476
1421,45065;2,67534
1419,39949;2,67321
1417,34834;2,65933
1415,29718;2,64481
1413,24603;2,63683
1411,19487;2,6284
1409,14372;2,6212
1407,09256;2,61901
1405,04141;2,61939
1402,99025;2,62103
1400,9391;2,62468
1398,88794;2,63153
1396,83679;2,64093
1394,78563;2,64675
1392,73447;2,64942
1390,68332;2,65684
1388,63216;2,66703
1386,58101;2,67067
1384,52985;2,66908
1382,4787;2,67441
1380,42754;2,68765
1378,37639;2,69721
1376,32523;2,69712
1374,27408;2,69475
1372,22292;2,69581
1370,17177;2,69873
1368,12061;2,699
1366,06946;2,69756
1364,0183;2,70172
1361,96714;2,70726
1359,91599;2,7053
1357,86483;2,70434
1355,81368;2,70729
1353,76252;2,70561
1351,71137;2,70293
1349,66021;2,70612
1347,60906;2,70906
1345,5579;2,70627
1343,50675;2,70442
1341,45559;2,71228
1339,40444;2,72479
1337,35328;2,72959
1335,30213;2,72898
1333,25097;2,72756
1331,19981;2,72433
1329,14866;2,72433
1327,0975;2,7274
1325,04635;2,7274
1322,99519;2,72925
1320,94404;2,73556
1318,89288;2,73838
1316,84173;2,73733
1314,79057;2,73608
1312,73942;2,7341
1310,68826;2,73489
1308,63711;2,74011
1306,58595;2,74544
1304,5348;2,75031
1302,48364;2,75406
1300,43248;2,75204
1298,38133;2,74674
1296,33017;2,74544
1294,27902;2,74838
1292,22786;2,74917
1290,17671;2,74907
1288,12555;2,75318
1286,0744;2,75133
1284,02324;2,74146
1281,97209;2,74034
1279,92093;2,74944
1277,86978;2,75434
1275,81862;2,75382
1273,76747;2,75547
1271,71631;2,75904
1269,66515;2,76054
1267,614;2,75877
1265,56284;2,7588
1263,51169;2,76358
1261,46053;2,76597
1259,40938;2,76214
1257,35822;2,75833
1255,30707;2,76012
1253,25591;2,76678
1251,20476;2,77024
1249,1536;2,76849
1247,10245;2,77073
1245,05129;2,77562
1243,00013;2,77441
1240,94898;2,77027
1238,89782;2,76981
1236,84667;2,77653
1234,79551;2,78663
1232,74436;2,7897
1230,6932;2,7893
1228,64205;2,78969
1226,59089;2,78251
1224,53974;2,77599
1222,48858;2,77962
1220,43743;2,78306
1218,38627;2,78231
1216,33512;2,78284
1214,28396;2,78771
1212,2328;2,79579
1210,18165;2,80072
1208,13049;2,80179
1206,07934;2,7996
1204,02818;2,7936
1201,97703;2,79441
1199,92587;2,80563
1197,87472;2,81288
1195,82356;2,81597
1193,77241;2,83067
1191,72125;2,8524
1189,6701;2,86202
1187,61894;2,86059
1185,56779;2,86055
1183,51663;2,86209
1181,46547;2,8699
1179,41432;2,88866
1177,36316;2,90371
1175,31201;2,90488
1173,26085;2,90317
1171,2097;2,9086
1169,15854;2,91389
1167,10739;2,91343
1165,05623;2,91613
1163,00508;2,92263
1160,95392;2,92477
1158,90277;2,92331
1156,85161;2,92517
1154,80046;2,934
1152,7493;2,9425
1150,69814;2,94327
1148,64699;2,94039
1146,59583;2,93856
1144,54468;2,9397
1142,49352;2,93992
1140,44237;2,93939
1138,39121;2,94933
1136,34006;2,96991
1134,2889;2,98689
1132,23775;2,98795
1130,18659;2,97083
1128,13544;2,94622
1126,08428;2,93177
1124,03313;2,93378
1121,98197;2,93129
1119,93081;2,90666
1117,87966;2,87479
1115,8285;2,85413
1113,77735;2,83009
1111,72619;2,79013
1109,67504;2,75484
1107,62388;2,72904
1105,57273;2,70343
1103,52157;2,68023
1101,47042;2,65984
1099,41926;2,64133
1097,36811;2,62464
1095,31695;2,6051
1093,2658;2,58396
1091,21464;2,56779
1089,16348;2,55391
1087,11233;2,53891
1085,06117;2,52717
1083,01002;2,51762
1080,95886;2,50465
1078,90771;2,48974
1076,85655;2,47736
1074,8054;2,46749
1072,75424;2,45398
1070,70309;2,43529
1068,65193;2,42069
1066,60078;2,41359
1064,54962;2,40733
1062,49847;2,39787
1060,44731;2,38555
1058,39615;2,3706
1056,345;2,35324
1054,29384;2,33764
1052,24269;2,32758
1050,19153;2,31767
1048,14038;2,30271
1046,08922;2,28627
1044,03807;2,2699
1041,98691;2,25176
1039,93576;2,23615
1037,8846;2,22653
1035,83345;2,21786
1033,78229;2,20624
1031,73114;2,19568
1029,67998;2,19149
1027,62882;2,19314
1025,57767;2,19679
1023,52651;2,20155
1021,47536;2,20859
1019,4242;2,2164
1017,37305;2,22388
1015,32189;2,2334
1013,27074;2,24359
1011,21958;2,25185
1009,16843;2,26134
1007,11727;2,27342
1005,06612;2,28416
1003,01496;2,29422
1000,96381;2,30649
998,91265;2,31881
996,86149;2,33079
994,81034;2,34279
992,75918;2,35247
990,70803;2,35949
988,65687;2,36558
986,60572;2,37119
984,55456;2,3754
982,50341;2,37941
980,45225;2,38384
978,4011;2,38712
976,34994;2,3895
974,29879;2,39227
972,24763;2,39546
970,19647;2,40005
968,14532;2,40687
966,09416;2,41228
964,04301;2,41276
961,99185;2,41027
959,9407;2,40936
957,88954;2,41198
955,83839;2,41543
953,78723;2,41773
951,73608;2,4173
949,68492;2,41509
947,63377;2,41765
945,58261;2,42424
943,53146;2,4292
941,4803;2,43119
939,42914;2,43177
937,37799;2,43661
935,32683;2,44571
933,27568;2,45324
931,22452;2,45775
929,17337;2,46098
927,12221;2,46045
925,07106;2,45491
923,0199;2,45588
920,96875;2,4691
918,91759;2,48175
916,86644;2,48466
914,81528;2,48318
912,76413;2,48102
910,71297;2,47943
908,66181;2,48439
906,61066;2,49235
904,5595;2,49341
902,50835;2,49469
900,45719;2,50105
898,40604;2,50012
896,35488;2,49231
894,30373;2,4878
892,25257;2,48466
890,20142;2,47748
888,15026;2,46942
886,09911;2,47058
884,04795;2,4804
881,9968;2,48649
879,94564;2,48737
877,89448;2,48856
875,84333;2,48949
873,79217;2,49362
871,74102;2,50604
869,68986;2,52398
867,63871;2,54097
865,58755;2,54973
863,5364;2,54822
861,48524;2,54365
859,43409;2,54271
857,38293;2,54746
855,33178;2,55385
853,28062;2,55661
851,22947;2,55795
849,17831;2,55977
847,12715;2,56029
845,076;2,56221
843,02484;2,56609
840,97369;2,56803
838,92253;2,56437
836,87138;2,55423
834,82022;2,54603
832,76907;2,55127
830,71791;2,56694
828,66676;2,57888
826,6156;2,58073
824,56445;2,57646
822,51329;2,57312
820,46214;2,57397
818,41098;2,57784
816,35982;2,58378
814,30867;2,5924
812,25751;2,60343
810,20636;2,60949
808,1552;2,60418
806,10405;2,59633
804,05289;2,59042
802,00174;2,58053
799,95058;2,57709
797,89943;2,58246
795,84827;2,58164
793,79712;2,58347
791,74596;2,59237
789,69481;2,59111
787,64365;2,58374
785,59249;2,58168
783,54134;2,5876
781,49018;2,59479
779,43903;2,59452
777,38787;2,59371
775,33672;2,59455
773,28556;2,59462
771,23441;2,59653
769,18325;2,59303
767,1321;2,58906
765,08094;2,59443
763,02979;2,59881
760,97863;2,59944
758,92748;2,60409
756,87632;2,60555
754,82516;2,60562
752,77401;2,60804
750,72285;2,60387
748,6717;2,59963
746,62054;2,59998
744,56939;2,60022
742,51823;2,59669
740,46708;2,59404
738,41592;2,59877
736,36477;2,60428
734,31361;2,61257
732,26246;2,62188
730,2113;2,61141
728,16015;2,59164
726,10899;2,59141
724,05783;2,60716
722,00668;2,61827
719,95552;2,62281
717,90437;2,62725
715,85321;2,63101
713,80206;2,63195
711,7509;2,63118
709,69975;2,62627
707,64859;2,61595
705,59744;2,61585
703,54628;2,63362
701,49513;2,64504
699,44397;2,62967
697,39281;2,60462
695,34166;2,59746
693,2905;2,60869
691,23935;2,61774
689,18819;2,61415
687,13704;2,60594
685,08588;2,59692
683,03473;2,58716
680,98357;2,59063
678,93242;2,60485
676,88126;2,60616
674,83011;2,59662
672,77895;2,60503
670,7278;2,63089
668,67664;2,63504
666,62548;2,6038
664,57433;2,58798
662,52317;2,58381
660,47202;2,58931
658,42086;2,60735
656,36971;2,61683
654,31855;2,6122
652,2674;2,60423
650,21624;2,60184
648,16509;2,60582
646,11393;2,61264
644,06278;2,62511
642,01162;2,64069
639,96047;2,65211
637,90931;2,65683
635,85815;2,65012
633,807;2,63326
631,75584;2,62178
629,70469;2,61948
627,65353;2,63043
625,60238;2,6601
623,55122;2,6894
621,50007;2,68485
619,44891;2,65189
617,39776;2,62917
615,3466;2,60818
613,29545;2,5682
611,24429;2,54269
609,19314;2,53941
607,14198;2,52416
605,09082;2,48966
603,03967;2,45534
600,98851;2,43684
598,93736;2,43909
596,8862;2,4487
594,83505;2,45621
592,78389;2,47391
590,73274;2,49769
588,68158;2,51188
586,63043;2,52346
584,57927;2,53577
582,52812;2,53248
580,47696;2,51017
578,42581;2,48206
576,37465;2,44673
574,32349;2,40513
572,27234;2,37929
570,22118;2,37271
568,17003;2,36214
566,11887;2,33506
564,06772;2,30992
562,01656;2,30075
559,96541;2,30075
557,91425;2,30433
555,8631;2,31322
553,81194;2,32917
551,76079;2,3462
549,70963;2,36408
547,65848;2,38443
545,60732;2,39433
543,55616;2,39091
541,50501;2,38735
539,45385;2,38916
537,4027;2,39226
535,35154;2,39384
533,30039;2,39334
531,24923;2,39316
529,19808;2,3961
527,14692;2,39306
525,09577;2,38774
523,04461;2,39846
520,99346;2,42972
518,9423;2,4594
516,89115;2,45128
514,83999;2,42367
512,78883;2,4219
510,73768;2,43922
508,68652;2,44682
506,63537;2,44067
504,58421;2,43489
502,53306;2,44145
500,4819;2,4522
498,43075;2,44896
496,37959;2,44527
494,32844;2,45429
492,27728;2,45742
490,22613;2,44435
488,17497;2,43989
486,12382;2,44518
484,07266;2,44684
482,0215;2,45039
479,97035;2,43865
477,91919;2,41848
475,86804;2,41521
473,81688;2,42042
471,76573;2,41401
469,71457;2,41119
467,66342;2,42183
465,61226;2,42346
463,56111;2,42225
461,50995;2,43606
459,4588;2,43364
457,40764;2,40983
455,35649;2,40103
453,30533;2,40068
451,25417;2,39293
449,20302;2,39058
447,15186;2,39659
445,10071;2,40428
443,04955;2,43126
440,9984;2,47899
438,94724;2,49248
436,89609;2,45003
434,84493;2,38517
432,79378;2,34322
430,74262;2,36545
428,69147;2,42966
426,64031;2,45646
424,58916;2,43204
422,538;2,41649
420,48684;2,44405
418,43569;2,47043
416,38453;2,46236
414,33338;2,43307
412,28222;2,39341
410,23107;2,39963
408,17991;2,44909
406,12876;2,43884
404,0776;2,38171
402,02645;2,38056
399,97529;2,42267
