3997,70175;2,55021
3995,6506;2,55337
3993,59944;2,54748
3991,54829;2,54421
3989,49713;2,54706
3987,44598;2,54745
3985,39482;2,54607
3983,34367;2,54444
3981,29251;2,53871
3979,24136;2,5347
3977,1902;2,53328
3975,13905;2,53254
3973,08789;2,53496
3971,03673;2,53518
3968,98558;2,53354
3966,93442;2,53482
3964,88327;2,53597
3962,83211;2,5361
3960,78096;2,54027
3958,7298;2,54721
3956,67865;2,54799
3954,62749;2,54714
3952,57634;2,55144
3950,52518;2,55674
3948,47403;2,55777
3946,42287;2,55597
3944,37172;2,55718
3942,32056;2,55646
3940,2694;2,55169
3938,21825;2,54872
3936,16709;2,55211
3934,11594;2,56304
3932,06478;2,57197
3930,01363;2,571
3927,96247;2,5655
3925,91132;2,55931
3923,86016;2,54966
3921,80901;2,54245
3919,75785;2,54111
3917,7067;2,53746
3915,65554;2,53017
3913,60439;2,52428
3911,55323;2,52132
3909,50207;2,52438
3907,45092;2,53699
3905,39976;2,54984
3903,34861;2,54582
3901,29745;2,53426
3899,2463;2,52772
3897,19514;2,52654
3895,14399;2,53303
3893,09283;2,53669
3891,04168;2,53214
3888,99052;2,53413
3886,93937;2,54096
3884,88821;2,53688
3882,83706;2,52485
3880,7859;2,51698
3878,73474;2,51302
3876,68359;2,51017
3874,63243;2,50693
3872,58128;2,50694
3870,53012;2,51509
3868,47897;2,52153
3866,42781;2,51702
3864,37666;2,51035
3862,3255;2,51421
3860,27435;2,52364
3858,22319;2,52823
3856,17204;2,53048
3854,12088;2,53067
3852,06973;2,5193
3850,01857;2,50685
3847,96741;2,50207
3845,91626;2,50058
3843,8651;2,50234
3841,81395;2,519
3839,76279;2,54267
3837,71164;2,54138
3835,66048;2,52299
3833,60933;2,51523
3831,55817;2,50947
3829,50702;2,49792
3827,45586;2,49341
3825,40471;2,50136
3823,35355;2,51726
3821,3024;2,5279
3819,25124;2,52699
3817,20008;2,52849
3815,14893;2,52228
3813,09777;2,51117
3811,04662;2,50874
3808,99546;2,50948
3806,94431;2,50799
3804,89315;2,50935
3802,842;2,51605
3800,79084;2,51804
3798,73969;2,51464
3796,68853;2,51211
3794,63738;2,50817
3792,58622;2,50477
3790,53506;2,50568
3788,48391;2,51538
3786,43275;2,53046
3784,3816;2,53378
3782,33044;2,52482
3780,27929;2,51511
3778,22813;2,50693
3776,17698;2,50421
3774,12582;2,50611
3772,07467;2,50691
3770,02351;2,50373
3767,97236;2,50115
3765,9212;2,50518
3763,87005;2,51232
3761,81889;2,51773
3759,76773;2,51939
3757,71658;2,5139
3755,66542;2,50596
3753,61427;2,50823
3751,56311;2,52249
3749,51196;2,52637
3747,4608;2,51884
3745,40965;2,51538
3743,35849;2,51706
3741,30734;2,52542
3739,25618;2,53644
3737,20503;2,53929
3735,15387;2,53203
3733,10272;2,52723
3731,05156;2,52727
3729,0004;2,53166
3726,94925;2,53942
3724,89809;2,5414
3722,84694;2,53591
3720,79578;2,53229
3718,74463;2,53434
3716,69347;2,53638
3714,64232;2,53762
3712,59116;2,54131
3710,54001;2,53946
3708,48885;2,53061
3706,4377;2,53162
3704,38654;2,54527
3702,33539;2,55528
3700,28423;2,56337
3698,23307;2,59118
3696,18192;2,62334
3694,13076;2,63381
3692,07961;2,62603
3690,02845;2,60987
3687,9773;2,59246
3685,92614;2,58508
3683,87499;2,58184
3681,82383;2,58094
3679,77268;2,58799
3677,72152;2,60369
3675,67037;2,61975
3673,61921;2,61559
3671,56806;2,59868
3669,5169;2,58962
3667,46574;2,59671
3665,41459;2,61345
3663,36343;2,633
3661,31228;2,64702
3659,26112;2,64945
3657,20997;2,64635
3655,15881;2,6546
3653,10766;2,67982
3651,0565;2,70528
3649,00535;2,71029
3646,95419;2,70657
3644,90304;2,71022
3642,85188;2,71462
3640,80073;2,71355
3638,74957;2,70958
3636,69841;2,70769
3634,64726;2,70486
3632,5961;2,70717
3630,54495;2,72232
3628,49379;2,72745
3626,44264;2,71933
3624,39148;2,72527
3622,34033;2,73809
3620,28917;2,75108
3618,23802;2,75817
3616,18686;2,75574
3614,13571;2,75232
3612,08455;2,75812
3610,0334;2,77104
3607,98224;2,77225
3605,93108;2,77062
3603,87993;2,77768
3601,82877;2,77677
3599,77762;2,7631
3597,72646;2,75285
3595,67531;2,75119
3593,62415;2,75573
3591,573;2,76627
3589,52184;2,7831
3587,47069;2,79938
3585,41953;2,80299
3583,36838;2,79623
3581,31722;2,78801
3579,26607;2,78081
3577,21491;2,77714
3575,16375;2,78214
3573,1126;2,79711
3571,06144;2,81445
3569,01029;2,82018
3566,95913;2,80823
3564,90798;2,79676
3562,85682;2,79477
3560,80567;2,7953
3558,75451;2,79679
3556,70336;2,80229
3554,6522;2,81165
3552,60105;2,81843
3550,54989;2,81674
3548,49874;2,81299
3546,44758;2,80564
3544,39642;2,7943
3542,34527;2,79537
3540,29411;2,81402
3538,24296;2,82956
3536,1918;2,8302
3534,14065;2,82556
3532,08949;2,82246
3530,03834;2,82344
3527,98718;2,8319
3525,93603;2,84082
3523,88487;2,84595
3521,83372;2,84702
3519,78256;2,84568
3517,73141;2,84653
3515,68025;2,84684
3513,62909;2,8384
3511,57794;2,82814
3509,52678;2,81892
3507,47563;2,8065
3505,42447;2,79831
3503,37332;2,8011
3501,32216;2,8036
3499,27101;2,8078
3497,21985;2,82277
3495,1687;2,82972
3493,11754;2,83082
3491,06639;2,83995
3489,01523;2,84516
3486,96407;2,84309
3484,91292;2,84172
3482,86176;2,84243
3480,81061;2,84218
3478,75945;2,83342
3476,7083;2,82029
3474,65714;2,81936
3472,60599;2,82738
3470,55483;2,83192
3468,50368;2,83512
3466,45252;2,83899
3464,40137;2,84111
3462,35021;2,83784
3460,29906;2,8323
3458,2479;2,83147
3456,19674;2,83393
3454,14559;2,83818
3452,09443;2,83806
3450,04328;2,83295
3447,99212;2,83796
3445,94097;2,84806
3443,88981;2,84991
3441,83866;2,85361
3439,7875;2,85967
3437,73635;2,84869
3435,68519;2,83478
3433,63404;2,84107
3431,58288;2,85078
3429,53173;2,84862
3427,48057;2,83692
3425,42941;2,82177
3423,37826;2,82095
3421,3271;2,83929
3419,27595;2,85379
3417,22479;2,84594
3415,17364;2,82907
3413,12248;2,82489
3411,07133;2,83476
3409,02017;2,84631
3406,96902;2,85193
3404,91786;2,85284
3402,86671;2,84701
3400,81555;2,83444
3398,7644;2,83023
3396,71324;2,82844
3394,66208;2,81622
3392,61093;2,80396
3390,55977;2,80276
3388,50862;2,82055
3386,45746;2,84757
3384,40631;2,8535
3382,35515;2,83578
3380,304;2,82628
3378,25284;2,82898
3376,20169;2,8283
3374,15053;2,82485
3372,09938;2,81775
3370,04822;2,81463
3367,99707;2,82542
3365,94591;2,83783
3363,89475;2,83966
3361,8436;2,83527
3359,79244;2,83096
3357,74129;2,826
3355,69013;2,82048
3353,63898;2,82017
3351,58782;2,8234
3349,53667;2,82039
3347,48551;2,81399
3345,43436;2,81542
3343,3832;2,82358
3341,33205;2,83577
3339,28089;2,85004
3337,22974;2,85535
3335,17858;2,85101
3333,12742;2,84822
3331,07627;2,84851
3329,02511;2,84184
3326,97396;2,83247
3324,9228;2,83116
3322,87165;2,82714
3320,82049;2,82324
3318,76934;2,82947
3316,71818;2,8316
3314,66703;2,81857
3312,61587;2,80574
3310,56472;2,81107
3308,51356;2,81833
3306,46241;2,81406
3304,41125;2,80905
3302,36009;2,80854
3300,30894;2,81465
3298,25778;2,82939
3296,20663;2,83831
3294,15547;2,82893
3292,10432;2,8161
3290,05316;2,81344
3288,00201;2,82338
3285,95085;2,83645
3283,8997;2,83106
3281,84854;2,81037
3279,79739;2,79907
3277,74623;2,79832
3275,69508;2,79875
3273,64392;2,80176
3271,59276;2,80359
3269,54161;2,80333
3267,49045;2,80605
3265,4393;2,81136
3263,38814;2,81439
3261,33699;2,81363
3259,28583;2,81286
3257,23468;2,8131
3255,18352;2,81653
3253,13237;2,81771
3251,08121;2,80796
3249,03006;2,79721
3246,9789;2,79361
3244,92775;2,79022
3242,87659;2,78378
3240,82543;2,78379
3238,77428;2,78776
3236,72312;2,78471
3234,67197;2,78602
3232,62081;2,79533
3230,56966;2,79836
3228,5185;2,80089
3226,46735;2,8079
3224,41619;2,80747
3222,36504;2,80062
3220,31388;2,79607
3218,26273;2,79708
3216,21157;2,80168
3214,16041;2,80389
3212,10926;2,80341
3210,0581;2,80097
3208,00695;2,80099
3205,95579;2,80324
3203,90464;2,79496
3201,85348;2,78252
3199,80233;2,77927
3197,75117;2,78347
3195,70002;2,7897
3193,64886;2,78968
3191,59771;2,78082
3189,54655;2,77151
3187,4954;2,77135
3185,44424;2,78002
3183,39308;2,79153
3181,34193;2,8007
3179,29077;2,79888
3177,23962;2,78762
3175,18846;2,781
3173,13731;2,77862
3171,08615;2,77242
3169,035;2,76378
3166,98384;2,76029
3164,93269;2,76775
3162,88153;2,77542
3160,83038;2,77027
3158,77922;2,76186
3156,72807;2,76291
3154,67691;2,77066
3152,62575;2,77802
3150,5746;2,78122
3148,52344;2,77681
3146,47229;2,768
3144,42113;2,75996
3142,36998;2,75717
3140,31882;2,76432
3138,26767;2,77158
3136,21651;2,7681
3134,16536;2,76256
3132,1142;2,7644
3130,06305;2,76387
3128,01189;2,75373
3125,96074;2,74825
3123,90958;2,75548
3121,85842;2,7659
3119,80727;2,77338
3117,75611;2,77095
3115,70496;2,75591
3113,6538;2,74873
3111,60265;2,75593
3109,55149;2,75995
3107,50034;2,76245
3105,44918;2,76926
3103,39803;2,76883
3101,34687;2,76232
3099,29572;2,76113
3097,24456;2,76173
3095,19341;2,76219
3093,14225;2,7674
3091,09109;2,76755
3089,03994;2,75832
3086,98878;2,75549
3084,93763;2,75719
3082,88647;2,75439
3080,83532;2,75626
3078,78416;2,76237
3076,73301;2,76499
3074,68185;2,76311
3072,6307;2,76128
3070,57954;2,76253
3068,52839;2,76108
3066,47723;2,75419
3064,42608;2,75018
3062,37492;2,75373
3060,32376;2,75835
3058,27261;2,75954
3056,22145;2,75586
3054,1703;2,7493
3052,11914;2,74629
3050,06799;2,74878
3048,01683;2,75248
3045,96568;2,75305
3043,91452;2,75439
3041,86337;2,75431
3039,81221;2,7486
3037,76106;2,74597
3035,7099;2,75104
3033,65875;2,76009
3031,60759;2,76459
3029,55643;2,75939
3027,50528;2,76011
3025,45412;2,77231
3023,40297;2,77671
3021,35181;2,76547
3019,30066;2,7565
3017,2495;2,76097
3015,19835;2,77234
3013,14719;2,78048
3011,09604;2,77535
3009,04488;2,76878
3006,99373;2,77035
3004,94257;2,76709
3002,89142;2,76087
3000,84026;2,76248
2998,7891;2,76862
2996,73795;2,77177
2994,68679;2,77037
2992,63564;2,76707
2990,58448;2,76983
2988,53333;2,77916
2986,48217;2,78468
2984,43102;2,78832
2982,37986;2,79161
2980,32871;2,78594
2978,27755;2,78025
2976,2264;2,78249
2974,17524;2,78759
2972,12409;2,79966
2970,07293;2,81593
2968,02177;2,82003
2965,97062;2,81565
2963,91946;2,81307
2961,86831;2,80836
2959,81715;2,80214
2957,766;2,79831
2955,71484;2,80039
2953,66369;2,80893
2951,61253;2,81366
2949,56138;2,81187
2947,51022;2,81529
2945,45907;2,82464
2943,40791;2,82998
2941,35675;2,82982
2939,3056;2,82589
2937,25444;2,82448
2935,20329;2,82402
2933,15213;2,81974
2931,10098;2,81928
2929,04982;2,82306
2926,99867;2,81832
2924,94751;2,80338
2922,89636;2,79023
2920,8452;2,78115
2918,79405;2,77443
2916,74289;2,77244
2914,69174;2,77246
2912,64058;2,77221
2910,58942;2,77006
2908,53827;2,76513
2906,48711;2,76089
2904,43596;2,75709
2902,3848;2,75528
2900,33365;2,75944
2898,28249;2,76412
2896,23134;2,76366
2894,18018;2,75965
2892,12903;2,75674
2890,07787;2,75756
2888,02672;2,76059
2885,97556;2,76227
2883,92441;2,75666
2881,87325;2,7479
2879,82209;2,7496
2877,77094;2,75897
2875,71978;2,76199
2873,66863;2,76327
2871,61747;2,76843
2869,56632;2,76957
2867,51516;2,76922
2865,46401;2,77348
2863,41285;2,78187
2861,3617;2,78557
2859,31054;2,77932
2857,25939;2,77677
2855,20823;2,78435
2853,15708;2,78274
2851,10592;2,76619
2849,05476;2,75014
2847,00361;2,74053
2844,95245;2,73435
2842,9013;2,72718
2840,85014;2,71793
2838,79899;2,70975
2836,74783;2,7064
2834,69668;2,70709
2832,64552;2,70259
2830,59437;2,69106
2828,54321;2,68232
2826,49206;2,68073
2824,4409;2,6817
2822,38975;2,67874
2820,33859;2,67188
2818,28743;2,66693
2816,23628;2,66438
2814,18512;2,65907
2812,13397;2,65331
2810,08281;2,65344
2808,03166;2,65501
2805,9805;2,65116
2803,92935;2,64593
2801,87819;2,64688
2799,82704;2,65192
2797,77588;2,65302
2795,72473;2,65049
2793,67357;2,64755
2791,62242;2,64401
2789,57126;2,64241
2787,5201;2,64739
2785,46895;2,6545
2783,41779;2,65313
2781,36664;2,64621
2779,31548;2,64075
2777,26433;2,63879
2775,21317;2,64201
2773,16202;2,64399
2771,11086;2,64035
2769,05971;2,63859
2767,00855;2,63676
2764,9574;2,62964
2762,90624;2,62491
2760,85509;2,62712
2758,80393;2,63303
2756,75277;2,63702
2754,70162;2,63233
2752,65046;2,62256
2750,59931;2,61816
2748,54815;2,62067
2746,497;2,62418
2744,44584;2,62483
2742,39469;2,62639
2740,34353;2,6315
2738,29238;2,63325
2736,24122;2,62802
2734,19007;2,62253
2732,13891;2,62223
2730,08776;2,626
2728,0366;2,6301
2725,98544;2,62932
2723,93429;2,62561
2721,88313;2,62388
2719,83198;2,62173
2717,78082;2,61971
2715,72967;2,61764
2713,67851;2,61443
2711,62736;2,61385
2709,5762;2,61689
2707,52505;2,61977
2705,47389;2,61726
2703,42274;2,61151
2701,37158;2,61083
2699,32043;2,61468
2697,26927;2,61474
2695,21811;2,60991
2693,16696;2,60597
2691,1158;2,60611
2689,06465;2,60851
2687,01349;2,60853
2684,96234;2,60477
2682,91118;2,60292
2680,86003;2,60425
2678,80887;2,60206
2676,75772;2,59993
2674,70656;2,60303
2672,65541;2,60613
2670,60425;2,60631
2668,55309;2,60576
2666,50194;2,60705
2664,45078;2,60629
2662,39963;2,60174
2660,34847;2,60011
2658,29732;2,60079
2656,24616;2,60003
2654,19501;2,60067
2652,14385;2,60293
2650,0927;2,60267
2648,04154;2,60117
2645,99039;2,60158
2643,93923;2,60389
2641,88808;2,60806
2639,83692;2,61206
2637,78576;2,61516
2635,73461;2,61918
2633,68345;2,62101
2631,6323;2,62175
2629,58114;2,62606
2627,52999;2,62837
2625,47883;2,6238
2623,42768;2,61913
2621,37652;2,62208
2619,32537;2,62907
2617,27421;2,63255
2615,22306;2,63348
2613,1719;2,63681
2611,12075;2,64199
2609,06959;2,64505
2607,01843;2,64756
2604,96728;2,65349
2602,91612;2,66109
2600,86497;2,6636
2598,81381;2,66197
2596,76266;2,66187
2594,7115;2,66215
2592,66035;2,65971
2590,60919;2,6543
2588,55804;2,65086
2586,50688;2,65241
2584,45573;2,65462
2582,40457;2,65268
2580,35342;2,64669
2578,30226;2,64341
2576,2511;2,64364
2574,19995;2,64314
2572,14879;2,64639
2570,09764;2,65343
2568,04648;2,65632
2565,99533;2,65804
2563,94417;2,66407
2561,89302;2,668
2559,84186;2,66676
2557,79071;2,66493
2555,73955;2,66353
2553,6884;2,66013
2551,63724;2,65524
2549,58609;2,65444
2547,53493;2,65749
2545,48377;2,66172
2543,43262;2,66723
2541,38146;2,67143
2539,33031;2,672
2537,27915;2,6709
2535,228;2,67338
2533,17684;2,67997
2531,12569;2,68691
2529,07453;2,69171
2527,02338;2,69534
2524,97222;2,70031
2522,92107;2,70639
2520,86991;2,70892
2518,81876;2,70438
2516,7676;2,70433
2514,71644;2,71299
2512,66529;2,71298
2510,61413;2,70265
2508,56298;2,69528
2506,51182;2,69091
2504,46067;2,6882
2502,40951;2,68861
2500,35836;2,68785
2498,3072;2,68378
2496,25605;2,67741
2494,20489;2,67077
2492,15374;2,66546
2490,10258;2,65643
2488,05143;2,64369
2486,00027;2,63776
2483,94911;2,63793
2481,89796;2,63274
2479,8468;2,62261
2477,79565;2,61587
2475,74449;2,61177
2473,69334;2,60701
2471,64218;2,60304
2469,59103;2,5997
2467,53987;2,59812
2465,48872;2,59626
2463,43756;2,58812
2461,38641;2,5801
2459,33525;2,57942
2457,2841;2,57827
2455,23294;2,5727
2453,18178;2,56925
2451,13063;2,56893
2449,07947;2,56768
2447,02832;2,56498
2444,97716;2,56434
2442,92601;2,56559
2440,87485;2,56427
2438,8237;2,55965
2436,77254;2,55621
2434,72139;2,5566
2432,67023;2,55676
2430,61908;2,55298
2428,56792;2,54643
2426,51677;2,54147
2424,46561;2,53965
2422,41445;2,53805
2420,3633;2,53526
2418,31214;2,53248
2416,26099;2,53228
2414,20983;2,53435
2412,15868;2,53434
2410,10752;2,53194
2408,05637;2,53143
2406,00521;2,53078
2403,95406;2,527
2401,9029;2,52417
2399,85175;2,52178
2397,80059;2,519
2395,74944;2,51965
2393,69828;2,52152
2391,64712;2,52227
2389,59597;2,52387
2387,54481;2,52545
2385,49366;2,52661
2383,4425;2,53002
2381,39135;2,53558
2379,34019;2,54011
2377,28904;2,54381
2375,23788;2,54684
2373,18673;2,54722
2371,13557;2,55042
2369,08442;2,55566
2367,03326;2,55391
2364,9821;2,55459
2362,93095;2,56662
2360,87979;2,57728
2358,82864;2,57166
2356,77748;2,55365
2354,72633;2,53902
2352,67517;2,53442
2350,62402;2,53704
2348,57286;2,54488
2346,52171;2,54957
2344,47055;2,54509
2342,4194;2,54709
2340,36824;2,55457
2338,31709;2,55014
2336,26593;2,54127
2334,21477;2,54246
2332,16362;2,54858
2330,11246;2,54759
2328,06131;2,54437
2326,01015;2,54494
2323,959;2,5461
2321,90784;2,54709
2319,85669;2,54339
2317,80553;2,53868
2315,75438;2,53884
2313,70322;2,53789
2311,65207;2,53703
2309,60091;2,53763
2307,54976;2,53444
2305,4986;2,52867
2303,44744;2,52517
2301,39629;2,52573
2299,34513;2,5273
2297,29398;2,52615
2295,24282;2,5215
2293,19167;2,51569
2291,14051;2,51243
2289,08936;2,51259
2287,0382;2,51464
2284,98705;2,51657
2282,93589;2,51632
2280,88474;2,51247
2278,83358;2,50827
2276,78243;2,50922
2274,73127;2,51308
2272,68011;2,51446
2270,62896;2,51367
2268,5778;2,5129
2266,52665;2,5125
2264,47549;2,51175
2262,42434;2,51258
2260,37318;2,51436
2258,32203;2,51127
2256,27087;2,5077
2254,21972;2,51088
2252,16856;2,51492
2250,11741;2,51595
2248,06625;2,51859
2246,0151;2,52191
2243,96394;2,5223
2241,91278;2,52109
2239,86163;2,51903
2237,81047;2,51808
2235,75932;2,52055
2233,70816;2,52091
2231,65701;2,51878
2229,60585;2,52057
2227,5547;2,52468
2225,50354;2,52742
2223,45239;2,52812
2221,40123;2,52721
2219,35008;2,5272
2217,29892;2,52828
2215,24777;2,52844
2213,19661;2,52842
2211,14545;2,53133
2209,0943;2,53648
2207,04314;2,53928
2204,99199;2,53861
2202,94083;2,53633
2200,88968;2,53576
2198,83852;2,53884
2196,78737;2,54176
2194,73621;2,54099
2192,68506;2,53908
2190,6339;2,53775
2188,58275;2,53606
2186,53159;2,53572
2184,48044;2,53557
2182,42928;2,53303
2180,37812;2,53244
2178,32697;2,53411
2176,27581;2,53428
2174,22466;2,53521
2172,1735;2,53678
2170,12235;2,53737
2168,07119;2,54075
2166,02004;2,54543
2163,96888;2,54431
2161,91773;2,5425
2159,86657;2,54716
2157,81542;2,5525
2155,76426;2,5567
2153,71311;2,56296
2151,66195;2,56886
2149,61079;2,57221
2147,55964;2,57267
2145,50848;2,57102
2143,45733;2,56989
2141,40617;2,57022
2139,35502;2,5706
2137,30386;2,57031
2135,25271;2,57105
2133,20155;2,57261
2131,1504;2,57105
2129,09924;2,56649
2127,04809;2,56138
2124,99693;2,55708
2122,94578;2,55313
2120,89462;2,54928
2118,84346;2,54775
2116,79231;2,54801
2114,74115;2,54732
2112,69;2,54366
2110,63884;2,53787
2108,58769;2,53453
2106,53653;2,53527
2104,48538;2,53538
2102,43422;2,53278
2100,38307;2,53213
2098,33191;2,53471
2096,28076;2,5373
2094,2296;2,53877
2092,17844;2,53894
2090,12729;2,53786
2088,07613;2,53658
2086,02498;2,53522
2083,97382;2,53397
2081,92267;2,53265
2079,87151;2,53178
2077,82036;2,53457
2075,7692;2,53999
2073,71805;2,54344
2071,66689;2,54337
2069,61574;2,54055
2067,56458;2,53768
2065,51343;2,53751
2063,46227;2,54076
2061,41111;2,54398
2059,35996;2,54279
2057,3088;2,53945
2055,25765;2,53856
2053,20649;2,54041
2051,15534;2,54207
2049,10418;2,54494
2047,05303;2,54906
2045,00187;2,54881
2042,95072;2,54677
2040,89956;2,54735
2038,84841;2,54862
2036,79725;2,55052
2034,7461;2,55407
2032,69494;2,55998
2030,64378;2,57125
2028,59263;2,59001
2026,54147;2,61354
2024,49032;2,63641
2022,43916;2,65867
2020,38801;2,68365
2018,33685;2,70627
2016,2857;2,71741
2014,23454;2,71392
2012,18339;2,69939
2010,13223;2,67865
2008,08108;2,65341
2006,02992;2,62852
2003,97877;2,60957
2001,92761;2,59487
1999,87645;2,58238
1997,8253;2,57197
1995,77414;2,56279
1993,72299;2,55692
1991,67183;2,55434
1989,62068;2,5513
1987,56952;2,54811
1985,51837;2,54678
1983,46721;2,5464
1981,41606;2,54677
1979,3649;2,54922
1977,31375;2,55102
1975,26259;2,548
1973,21144;2,54279
1971,16028;2,54263
1969,10912;2,54753
1967,05797;2,55104
1965,00681;2,55211
1962,95566;2,55572
1960,9045;2,56104
1958,85335;2,56138
1956,80219;2,55597
1954,75104;2,54944
1952,69988;2,54586
1950,64873;2,54593
1948,59757;2,54678
1946,54642;2,54935
1944,49526;2,55454
1942,44411;2,55666
1940,39295;2,55551
1938,34179;2,55527
1936,29064;2,55453
1934,23948;2,5537
1932,18833;2,55315
1930,13717;2,55258
1928,08602;2,55629
1926,03486;2,56275
1923,98371;2,56441
1921,93255;2,56307
1919,8814;2,56447
1917,83024;2,56468
1915,77909;2,56397
1913,72793;2,56668
1911,67678;2,56726
1909,62562;2,56276
1907,57446;2,55789
1905,52331;2,55731
1903,47215;2,56271
1901,421;2,56836
1899,36984;2,56835
1897,31869;2,56818
1895,26753;2,57102
1893,21638;2,57298
1891,16522;2,57587
1889,11407;2,57964
1887,06291;2,58244
1885,01176;2,5854
1882,9606;2,58773
1880,90945;2,58865
1878,85829;2,58765
1876,80713;2,58653
1874,75598;2,5868
1872,70482;2,58876
1870,65367;2,59181
1868,60251;2,59041
1866,55136;2,58816
1864,5002;2,59225
1862,44905;2,59505
1860,39789;2,59394
1858,34674;2,59405
1856,29558;2,59496
1854,24443;2,59843
1852,19327;2,60398
1850,14212;2,60735
1848,09096;2,6117
1846,0398;2,62167
1843,98865;2,6319
1841,93749;2,63353
1839,88634;2,63186
1837,83518;2,63239
1835,78403;2,63423
1833,73287;2,63749
1831,68172;2,64274
1829,63056;2,64879
1827,57941;2,65443
1825,52825;2,65619
1823,4771;2,65411
1821,42594;2,6571
1819,37478;2,6677
1817,32363;2,67854
1815,27247;2,68461
1813,22132;2,6908
1811,17016;2,70024
1809,11901;2,70967
1807,06785;2,71941
1805,0167;2,73101
1802,96554;2,74458
1800,91439;2,75743
1798,86323;2,76301
1796,81208;2,76645
1794,76092;2,77424
1792,70977;2,7782
1790,65861;2,76879
1788,60745;2,75631
1786,5563;2,75026
1784,50514;2,74921
1782,45399;2,74694
1780,40283;2,73873
1778,35168;2,73236
1776,30052;2,73596
1774,24937;2,74401
1772,19821;2,75164
1770,14706;2,7593
1768,0959;2,76644
1766,04475;2,77468
1763,99359;2,78513
1761,94244;2,79641
1759,89128;2,81342
1757,84012;2,84314
1755,78897;2,87318
1753,73781;2,88801
1751,68666;2,89213
1749,6355;2,88294
1747,58435;2,8609
1745,53319;2,84358
1743,48204;2,84023
1741,43088;2,84765
1739,37973;2,84711
1737,32857;2,83721
1735,27742;2,8346
1733,22626;2,83179
1731,17511;2,82503
1729,12395;2,81719
1727,07279;2,80193
1725,02164;2,78875
1722,97048;2,78643
1720,91933;2,79494
1718,86817;2,80871
1716,81702;2,81053
1714,76586;2,79943
1712,71471;2,79282
1710,66355;2,7955
1708,6124;2,8059
1706,56124;2,81614
1704,51009;2,82113
1702,45893;2,82391
1700,40778;2,82573
1698,35662;2,82639
1696,30546;2,82967
1694,25431;2,83678
1692,20315;2,84146
1690,152;2,84441
1688,10084;2,85465
1686,04969;2,86514
1683,99853;2,86235
1681,94738;2,86009
1679,89622;2,85789
1677,84507;2,85646
1675,79391;2,8652
1673,74276;2,87087
1671,6916;2,86282
1669,64045;2,84858
1667,58929;2,83844
1665,53813;2,83414
1663,48698;2,82573
1661,43582;2,81099
1659,38467;2,80243
1657,33351;2,80559
1655,28236;2,81359
1653,2312;2,80116
1651,18005;2,78171
1649,12889;2,78542
1647,07774;2,78818
1645,02658;2,78093
1642,97543;2,77602
1640,92427;2,77208
1638,87312;2,76966
1636,82196;2,76758
1634,7708;2,75562
1632,71965;2,74409
1630,66849;2,74093
1628,61734;2,73921
1626,56618;2,73596
1624,51503;2,73355
1622,46387;2,73059
1620,41272;2,72739
1618,36156;2,72673
1616,31041;2,72959
1614,25925;2,73397
1612,2081;2,73773
1610,15694;2,74195
1608,10579;2,74171
1606,05463;2,7366
1604,00347;2,73734
1601,95232;2,74416
1599,90116;2,74928
1597,85001;2,75186
1595,79885;2,75146
1593,7477;2,7485
1591,69654;2,74695
1589,64539;2,74673
1587,59423;2,74776
1585,54308;2,7499
1583,49192;2,75085
1581,44077;2,75294
1579,38961;2,75887
1577,33846;2,76214
1575,2873;2,75564
1573,23614;2,75222
1571,18499;2,75308
1569,13383;2,74884
1567,08268;2,745
1565,03152;2,74554
1562,98037;2,74815
1560,92921;2,75084
1558,87806;2,74165
1556,8269;2,72971
1554,77575;2,72317
1552,72459;2,71747
1550,67344;2,71626
1548,62228;2,71131
1546,57113;2,70539
1544,51997;2,70676
1542,46881;2,707
1540,41766;2,69262
1538,3665;2,67577
1536,31535;2,67454
1534,26419;2,67649
1532,21304;2,66752
1530,16188;2,65943
1528,11073;2,6629
1526,05957;2,6703
1524,00842;2,67111
1521,95726;2,66079
1519,90611;2,65251
1517,85495;2,6527
1515,80379;2,65048
1513,75264;2,65341
1511,70148;2,66431
1509,65033;2,6707
1507,59917;2,66256
1505,54802;2,64675
1503,49686;2,64118
1501,44571;2,64358
1499,39455;2,64992
1497,3434;2,65402
1495,29224;2,65166
1493,24109;2,65273
1491,18993;2,66164
1489,13878;2,66573
1487,08762;2,66052
1485,03646;2,66273
1482,98531;2,67082
1480,93415;2,67513
1478,883;2,67953
1476,83184;2,68852
1474,78069;2,69896
1472,72953;2,7088
1470,67838;2,71431
1468,62722;2,71752
1466,57607;2,71982
1464,52491;2,71401
1462,47376;2,70746
1460,4226;2,71269
1458,37145;2,71968
1456,32029;2,70916
1454,26913;2,6988
1452,21798;2,69698
1450,16682;2,69614
1448,11567;2,69163
1446,06451;2,68096
1444,01336;2,66971
1441,9622;2,66281
1439,91105;2,66269
1437,85989;2,66803
1435,80874;2,66949
1433,75758;2,6679
1431,70643;2,66909
1429,65527;2,66743
1427,60412;2,66609
1425,55296;2,67141
1423,5018;2,67728
1421,45065;2,68131
1419,39949;2,68655
1417,34834;2,6843
1415,29718;2,67475
1413,24603;2,66702
1411,19487;2,66126
1409,14372;2,65717
1407,09256;2,65701
1405,04141;2,65939
1402,99025;2,66231
1400,9391;2,66807
1398,88794;2,67169
1396,83679;2,66878
1394,78563;2,66923
1392,73447;2,67529
1390,68332;2,68103
1388,63216;2,68421
1386,58101;2,68672
1384,52985;2,69294
1382,4787;2,69838
1380,42754;2,69944
1378,37639;2,70029
1376,32523;2,70331
1374,27408;2,70287
1372,22292;2,69776
1370,17177;2,69713
1368,12061;2,69867
1366,06946;2,69949
1364,0183;2,70349
1361,96714;2,70528
1359,91599;2,69936
1357,86483;2,69239
1355,81368;2,69266
1353,76252;2,69881
1351,71137;2,70103
1349,66021;2,69784
1347,60906;2,69527
1345,5579;2,69509
1343,50675;2,69821
1341,45559;2,70452
1339,40444;2,70836
1337,35328;2,70685
1335,30213;2,70455
1333,25097;2,70402
1331,19981;2,70556
1329,14866;2,70915
1327,0975;2,71334
1325,04635;2,71808
1322,99519;2,72126
1320,94404;2,71917
1318,89288;2,71808
1316,84173;2,72389
1314,79057;2,72763
1312,73942;2,72499
1310,68826;2,72173
1308,63711;2,71992
1306,58595;2,72144
1304,5348;2,72421
1302,48364;2,7234
1300,43248;2,72393
1298,38133;2,72689
1296,33017;2,72595
1294,27902;2,72384
1292,22786;2,72347
1290,17671;2,72345
1288,12555;2,72318
1286,0744;2,72288
1284,02324;2,72374
1281,97209;2,72146
1279,92093;2,71923
1277,86978;2,72582
1275,81862;2,73369
1273,76747;2,73382
1271,71631;2,73057
1269,66515;2,73374
1267,614;2,73981
1265,56284;2,73798
1263,51169;2,7338
1261,46053;2,73506
1259,40938;2,73851
1257,35822;2,74075
1255,30707;2,74415
1253,25591;2,74896
1251,20476;2,75291
1249,1536;2,75363
1247,10245;2,74767
1245,05129;2,7392
1243,00013;2,73441
1240,94898;2,73191
1238,89782;2,72767
1236,84667;2,72049
1234,79551;2,71513
1232,74436;2,71624
1230,6932;2,71915
1228,64205;2,7176
1226,59089;2,71275
1224,53974;2,70915
1222,48858;2,7089
1220,43743;2,71158
1218,38627;2,71347
1216,33512;2,71314
1214,28396;2,71315
1212,2328;2,71095
1210,18165;2,7098
1208,13049;2,71575
1206,07934;2,7188
1204,02818;2,71563
1201,97703;2,71509
1199,92587;2,71977
1197,87472;2,72719
1195,82356;2,73221
1193,77241;2,73371
1191,72125;2,73682
1189,6701;2,74183
1187,61894;2,74375
1185,56779;2,74235
1183,51663;2,74445
1181,46547;2,75083
1179,41432;2,7553
1177,36316;2,75718
1175,31201;2,75809
1173,26085;2,76016
1171,2097;2,76571
1169,15854;2,76689
1167,10739;2,76157
1165,05623;2,76179
1163,00508;2,76815
1160,95392;2,77363
1158,90277;2,77494
1156,85161;2,77309
1154,80046;2,76831
1152,7493;2,75963
1150,69814;2,75723
1148,64699;2,76467
1146,59583;2,77087
1144,54468;2,77312
1142,49352;2,77304
1140,44237;2,77126
1138,39121;2,77578
1136,34006;2,78972
1134,2889;2,8027
1132,23775;2,80855
1130,18659;2,81582
1128,13544;2,8259
1126,08428;2,83342
1124,03313;2,83731
1121,98197;2,83425
1119,93081;2,82703
1117,87966;2,81945
1115,8285;2,81084
1113,77735;2,80268
1111,72619;2,79394
1109,67504;2,78302
1107,62388;2,77347
1105,57273;2,76936
1103,52157;2,76435
1101,47042;2,75178
1099,41926;2,73816
1097,36811;2,72753
1095,31695;2,71677
1093,2658;2,7052
1091,21464;2,69704
1089,16348;2,69454
1087,11233;2,69345
1085,06117;2,69062
1083,01002;2,68817
1080,95886;2,69087
1078,90771;2,69257
1076,85655;2,6846
1074,8054;2,67415
1072,75424;2,66462
1070,70309;2,65358
1068,65193;2,64442
1066,60078;2,63411
1064,54962;2,61841
1062,49847;2,60317
1060,44731;2,59148
1058,39615;2,57839
1056,345;2,56623
1054,29384;2,55988
1052,24269;2,55468
1050,19153;2,54557
1048,14038;2,53353
1046,08922;2,52085
1044,03807;2,50779
1041,98691;2,4923
1039,93576;2,47486
1037,8846;2,45953
1035,83345;2,44871
1033,78229;2,44092
1031,73114;2,4346
1029,67998;2,4296
1027,62882;2,42609
1025,57767;2,42356
1023,52651;2,41998
1021,47536;2,41796
1019,4242;2,42121
1017,37305;2,42675
1015,32189;2,42969
1013,27074;2,43171
1011,21958;2,43604
1009,16843;2,44079
1007,11727;2,44707
1005,06612;2,45372
1003,01496;2,45805
1000,96381;2,46377
998,91265;2,47122
996,86149;2,47896
994,81034;2,48683
992,75918;2,49142
990,70803;2,49341
988,65687;2,49758
986,60572;2,50192
984,55456;2,50066
982,50341;2,4969
980,45225;2,49957
978,4011;2,50865
976,34994;2,51743
974,29879;2,52147
972,24763;2,52275
970,19647;2,52765
968,14532;2,5362
966,09416;2,54098
964,04301;2,53653
961,99185;2,52914
959,9407;2,52502
957,88954;2,52261
955,83839;2,51994
953,78723;2,518
951,73608;2,51867
949,68492;2,5192
947,63377;2,5198
945,58261;2,52451
943,53146;2,52773
941,4803;2,52303
939,42914;2,51784
937,37799;2,51912
935,32683;2,52451
933,27568;2,52984
931,22452;2,5323
929,17337;2,53584
927,12221;2,54002
925,07106;2,53656
923,0199;2,52888
920,96875;2,5245
918,91759;2,52504
916,86644;2,53058
914,81528;2,53262
912,76413;2,52485
910,71297;2,51735
908,66181;2,51958
906,61066;2,52927
904,5595;2,53586
902,50835;2,53508
900,45719;2,53281
898,40604;2,53
896,35488;2,52559
894,30373;2,52389
892,25257;2,52527
890,20142;2,52471
888,15026;2,52225
886,09911;2,52369
884,04795;2,53344
881,9968;2,54751
879,94564;2,55303
877,89448;2,54875
875,84333;2,54683
873,79217;2,54445
871,74102;2,53718
869,68986;2,53752
867,63871;2,54835
865,58755;2,56125
863,5364;2,56958
861,48524;2,56924
859,43409;2,56703
857,38293;2,57286
855,33178;2,58275
853,28062;2,58497
851,22947;2,58454
849,17831;2,58525
847,12715;2,57609
845,076;2,56536
843,02484;2,56767
840,97369;2,57627
838,92253;2,57795
836,87138;2,57379
834,82022;2,57285
832,76907;2,58016
830,71791;2,58762
828,66676;2,58236
826,6156;2,57507
824,56445;2,57654
822,51329;2,57783
820,46214;2,5804
818,41098;2,58701
816,35982;2,58803
814,30867;2,57866
812,25751;2,56727
810,20636;2,56971
808,1552;2,58691
806,10405;2,60094
804,05289;2,60299
802,00174;2,59208
799,95058;2,57306
797,89943;2,56894
795,84827;2,58166
793,79712;2,58517
791,74596;2,5796
789,69481;2,58256
787,64365;2,59633
785,59249;2,6036
783,54134;2,59265
781,49018;2,57684
779,43903;2,5726
777,38787;2,5806
775,33672;2,58596
773,28556;2,58524
771,23441;2,59116
769,18325;2,60721
767,1321;2,61698
765,08094;2,60226
763,02979;2,57795
760,97863;2,58089
758,92748;2,61031
756,87632;2,62215
754,82516;2,60932
752,77401;2,60385
750,72285;2,6095
748,6717;2,61928
746,62054;2,62729
744,56939;2,61864
742,51823;2,60058
740,46708;2,59438
738,41592;2,59984
736,36477;2,60673
734,31361;2,60733
732,26246;2,60554
730,2113;2,60554
728,16015;2,60267
726,10899;2,6048
724,05783;2,61833
722,00668;2,63359
719,95552;2,64346
717,90437;2,64306
715,85321;2,62995
713,80206;2,61015
711,7509;2,58931
709,69975;2,57825
707,64859;2,59061
705,59744;2,61588
703,54628;2,63015
701,49513;2,62917
699,44397;2,61533
697,39281;2,60167
695,34166;2,60245
693,2905;2,60644
691,23935;2,6045
689,18819;2,60322
687,13704;2,60545
685,08588;2,61286
683,03473;2,62226
680,98357;2,62255
678,93242;2,61288
676,88126;2,60166
674,83011;2,5977
672,77895;2,6078
670,7278;2,63378
668,67664;2,6492
666,62548;2,62638
664,57433;2,61295
662,52317;2,60655
660,47202;2,59829
658,42086;2,5946
656,36971;2,59893
654,31855;2,61549
652,2674;2,63034
650,21624;2,62619
648,16509;2,61383
646,11393;2,61673
644,06278;2,63457
642,01162;2,64419
639,96047;2,63294
637,90931;2,62104
635,85815;2,62113
633,807;2,61484
631,75584;2,61516
629,70469;2,62703
627,65353;2,62098
625,60238;2,60779
623,55122;2,60656
621,50007;2,62162
619,44891;2,65214
617,39776;2,66996
615,3466;2,66405
613,29545;2,65133
611,24429;2,63737
609,19314;2,62341
607,14198;2,59621
605,09082;2,55965
603,03967;2,53923
600,98851;2,52989
598,93736;2,51508
596,8862;2,50511
594,83505;2,5111
592,78389;2,52346
590,73274;2,52539
588,68158;2,528
586,63043;2,55182
584,57927;2,58057
582,52812;2,59172
580,47696;2,59202
578,42581;2,57582
576,37465;2,54534
574,32349;2,52801
572,27234;2,52265
570,22118;2,51824
568,17003;2,51718
566,11887;2,50174
564,06772;2,46071
562,01656;2,41435
559,96541;2,39214
557,91425;2,39654
555,8631;2,40447
553,81194;2,40622
551,76079;2,41649
549,70963;2,4477
547,65848;2,47621
545,60732;2,47603
543,55616;2,46548
541,50501;2,46705
539,45385;2,48257
537,4027;2,49319
535,35154;2,48732
533,30039;2,47536
531,24923;2,47084
529,19808;2,47281
527,14692;2,47369
525,09577;2,47143
523,04461;2,46994
520,99346;2,46691
518,9423;2,46131
516,89115;2,45834
514,83999;2,45945
512,78883;2,47189
510,73768;2,50034
508,68652;2,52602
506,63537;2,52952
504,58421;2,51121
502,53306;2,48845
500,4819;2,47634
498,43075;2,47469
496,37959;2,48545
494,32844;2,51189
492,27728;2,54637
490,22613;2,56665
488,17497;2,556
486,12382;2,5341
484,07266;2,51223
482,0215;2,49283
479,97035;2,49888
477,91919;2,51613
475,86804;2,51668
473,81688;2,51628
471,76573;2,50172
469,71457;2,49388
467,66342;2,51532
465,61226;2,53151
463,56111;2,51876
461,50995;2,49333
459,4588;2,47167
457,40764;2,45478
455,35649;2,432
453,30533;2,41146
451,25417;2,42192
449,20302;2,45138
447,15186;2,47079
445,10071;2,49149
443,04955;2,53842
440,9984;2,57438
438,94724;2,5559
436,89609;2,50231
434,84493;2,46442
432,79378;2,44475
430,74262;2,43705
428,69147;2,45503
426,64031;2,49986
424,58916;2,4969
422,538;2,4614
420,48684;2,46591
418,43569;2,49878
416,38453;2,54147
414,33338;2,59036
412,28222;2,59705
410,23107;2,53012
408,17991;2,46788
406,12876;2,4576
404,0776;2,44777
402,02645;2,42276
399,97529;2,40448
