3997,70175;2,84024
3995,6506;2,84213
3993,59944;2,84416
3991,54829;2,84338
3989,49713;2,84883
3987,44598;2,86256
3985,39482;2,86236
3983,34367;2,84745
3981,29251;2,84062
3979,24136;2,84015
3977,1902;2,83833
3975,13905;2,83747
3973,08789;2,83944
3971,03673;2,84593
3968,98558;2,85624
3966,93442;2,86542
3964,88327;2,86704
3962,83211;2,86023
3960,78096;2,84486
3958,7298;2,8291
3956,67865;2,82297
3954,62749;2,82744
3952,57634;2,83622
3950,52518;2,84855
3948,47403;2,86741
3946,42287;2,8795
3944,37172;2,86599
3942,32056;2,84136
3940,2694;2,83593
3938,21825;2,84134
3936,16709;2,84731
3934,11594;2,85063
3932,06478;2,84619
3930,01363;2,84689
3927,96247;2,86113
3925,91132;2,87524
3923,86016;2,87308
3921,80901;2,8719
3919,75785;2,87908
3917,7067;2,87249
3915,65554;2,84964
3913,60439;2,82669
3911,55323;2,81423
3909,50207;2,81448
3907,45092;2,81839
3905,39976;2,81909
3903,34861;2,82822
3901,29745;2,84302
3899,2463;2,83752
3897,19514;2,81406
3895,14399;2,8063
3893,09283;2,82699
3891,04168;2,84417
3888,99052;2,83837
3886,93937;2,83263
3884,88821;2,83085
3882,83706;2,83652
3880,7859;2,84126
3878,73474;2,83074
3876,68359;2,81983
3874,63243;2,81679
3872,58128;2,82162
3870,53012;2,84069
3868,47897;2,86231
3866,42781;2,86586
3864,37666;2,84492
3862,3255;2,81404
3860,27435;2,79839
3858,22319;2,79982
3856,17204;2,80768
3854,12088;2,80594
3852,06973;2,7945
3850,01857;2,79895
3847,96741;2,80867
3845,91626;2,81917
3843,8651;2,82876
3841,81395;2,83346
3839,76279;2,83927
3837,71164;2,83604
3835,66048;2,8196
3833,60933;2,81359
3831,55817;2,81959
3829,50702;2,81731
3827,45586;2,80593
3825,40471;2,7972
3823,35355;2,78718
3821,3024;2,77434
3819,25124;2,77757
3817,20008;2,79836
3815,14893;2,81398
3813,09777;2,81377
3811,04662;2,80982
3808,99546;2,80302
3806,94431;2,79362
3804,89315;2,79102
3802,842;2,78667
3800,79084;2,7853
3798,73969;2,80092
3796,68853;2,81664
3794,63738;2,82042
3792,58622;2,8198
3790,53506;2,81965
3788,48391;2,81757
3786,43275;2,80791
3784,3816;2,79888
3782,33044;2,80548
3780,27929;2,81506
3778,22813;2,81197
3776,17698;2,80176
3774,12582;2,79345
3772,07467;2,79169
3770,02351;2,79321
3767,97236;2,7982
3765,9212;2,80532
3763,87005;2,81249
3761,81889;2,81646
3759,76773;2,80705
3757,71658;2,79798
3755,66542;2,8089
3753,61427;2,83054
3751,56311;2,83907
3749,51196;2,82149
3747,4608;2,80917
3745,40965;2,81965
3743,35849;2,8401
3741,30734;2,84734
3739,25618;2,84284
3737,20503;2,83591
3735,15387;2,84433
3733,10272;2,86402
3731,05156;2,86919
3729,0004;2,87131
3726,94925;2,87267
3724,89809;2,86386
3722,84694;2,84762
3720,79578;2,84187
3718,74463;2,85089
3716,69347;2,84474
3714,64232;2,81663
3712,59116;2,80145
3710,54001;2,81433
3708,48885;2,83458
3706,4377;2,8517
3704,38654;2,86007
3702,33539;2,85604
3700,28423;2,84607
3698,23307;2,85331
3696,18192;2,8752
3694,13076;2,88121
3692,07961;2,87162
3690,02845;2,86857
3687,9773;2,87092
3685,92614;2,88107
3683,87499;2,89361
3681,82383;2,88178
3679,77268;2,8586
3677,72152;2,87064
3675,67037;2,91317
3673,61921;2,92575
3671,56806;2,91851
3669,5169;2,91861
3667,46574;2,92782
3665,41459;2,9362
3663,36343;2,93223
3661,31228;2,93218
3659,26112;2,94893
3657,20997;2,96207
3655,15881;2,95194
3653,10766;2,94719
3651,0565;2,97351
3649,00535;3,0079
3646,95419;3,01991
3644,90304;3,02315
3642,85188;3,02349
3640,80073;3,013
3638,74957;2,99406
3636,69841;2,97822
3634,64726;2,97658
3632,5961;2,9988
3630,54495;3,03862
3628,49379;3,05222
3626,44264;3,02759
3624,39148;3,01216
3622,34033;3,03452
3620,28917;3,09154
3618,23802;3,12607
3616,18686;3,10422
3614,13571;3,05722
3612,08455;3,0251
3610,0334;3,03407
3607,98224;3,06782
3605,93108;3,09282
3603,87993;3,09028
3601,82877;3,07716
3599,77762;3,05826
3597,72646;3,03014
3595,67531;3,01915
3593,62415;3,03673
3591,573;3,05397
3589,52184;3,06202
3587,47069;3,07042
3585,41953;3,08044
3583,36838;3,07963
3581,31722;3,05783
3579,26607;3,03502
3577,21491;3,02507
3575,16375;3,02967
3573,1126;3,04419
3571,06144;3,06312
3569,01029;3,09693
3566,95913;3,11966
3564,90798;3,12122
3562,85682;3,1318
3560,80567;3,12144
3558,75451;3,08435
3556,70336;3,05959
3554,6522;3,0475
3552,60105;3,04738
3550,54989;3,07962
3548,49874;3,11948
3546,44758;3,10709
3544,39642;3,06605
3542,34527;3,0629
3540,29411;3,08757
3538,24296;3,08977
3536,1918;3,07064
3534,14065;3,06798
3532,08949;3,06629
3530,03834;3,04447
3527,98718;3,03292
3525,93603;3,051
3523,88487;3,07238
3521,83372;3,07955
3519,78256;3,08598
3517,73141;3,08786
3515,68025;3,08199
3513,62909;3,09407
3511,57794;3,11826
3509,52678;3,10705
3507,47563;3,07617
3505,42447;3,07342
3503,37332;3,09294
3501,32216;3,09831
3499,27101;3,09462
3497,21985;3,08976
3495,1687;3,08194
3493,11754;3,09083
3491,06639;3,11343
3489,01523;3,12352
3486,96407;3,11361
3484,91292;3,0892
3482,86176;3,06677
3480,81061;3,05325
3478,75945;3,04966
3476,7083;3,06429
3474,65714;3,0825
3472,60599;3,07952
3470,55483;3,07034
3468,50368;3,07589
3466,45252;3,07749
3464,40137;3,0748
3462,35021;3,08994
3460,29906;3,10788
3458,2479;3,11054
3456,19674;3,10513
3454,14559;3,10293
3452,09443;3,11095
3450,04328;3,12492
3447,99212;3,13615
3445,94097;3,1407
3443,88981;3,12696
3441,83866;3,09451
3439,7875;3,07106
3437,73635;3,05971
3435,68519;3,05269
3433,63404;3,05458
3431,58288;3,05436
3429,53173;3,0437
3427,48057;3,04536
3425,42941;3,06231
3423,37826;3,0657
3421,3271;3,07292
3419,27595;3,09515
3417,22479;3,08433
3415,17364;3,05385
3413,12248;3,05453
3411,07133;3,07463
3409,02017;3,07934
3406,96902;3,07613
3404,91786;3,08086
3402,86671;3,0866
3400,81555;3,09103
3398,7644;3,09413
3396,71324;3,08633
3394,66208;3,07591
3392,61093;3,08388
3390,55977;3,10266
3388,50862;3,10954
3386,45746;3,10638
3384,40631;3,0886
3382,35515;3,05287
3380,304;3,03947
3378,25284;3,06265
3376,20169;3,09069
3374,15053;3,10028
3372,09938;3,09803
3370,04822;3,08543
3367,99707;3,06338
3365,94591;3,05375
3363,89475;3,06815
3361,8436;3,0837
3359,79244;3,07247
3357,74129;3,06305
3355,69013;3,07885
3353,63898;3,09315
3351,58782;3,08874
3349,53667;3,06847
3347,48551;3,04984
3345,43436;3,05812
3343,3832;3,08188
3341,33205;3,09864
3339,28089;3,10262
3337,22974;3,09544
3335,17858;3,07512
3333,12742;3,0559
3331,07627;3,05541
3329,02511;3,06074
3326,97396;3,06169
3324,9228;3,06322
3322,87165;3,06807
3320,82049;3,07046
3318,76934;3,06506
3316,71818;3,05518
3314,66703;3,03453
3312,61587;3,01887
3310,56472;3,03594
3308,51356;3,06661
3306,46241;3,07072
3304,41125;3,05646
3302,36009;3,05181
3300,30894;3,05487
3298,25778;3,05635
3296,20663;3,0578
3294,15547;3,06185
3292,10432;3,06343
3290,05316;3,05701
3288,00201;3,04641
3285,95085;3,03697
3283,8997;3,02874
3281,84854;3,01933
3279,79739;3,02247
3277,74623;3,03997
3275,69508;3,04515
3273,64392;3,0462
3271,59276;3,06878
3269,54161;3,09271
3267,49045;3,09235
3265,4393;3,07303
3263,38814;3,04768
3261,33699;3,02859
3259,28583;3,02865
3257,23468;3,04024
3255,18352;3,03992
3253,13237;3,03753
3251,08121;3,05471
3249,03006;3,06644
3246,9789;3,05358
3244,92775;3,04114
3242,87659;3,04498
3240,82543;3,05243
3238,77428;3,05393
3236,72312;3,06169
3234,67197;3,06985
3232,62081;3,05621
3230,56966;3,03362
3228,5185;3,03595
3226,46735;3,05492
3224,41619;3,05589
3222,36504;3,04173
3220,31388;3,04417
3218,26273;3,07505
3216,21157;3,09497
3214,16041;3,08294
3212,10926;3,06668
3210,0581;3,05072
3208,00695;3,03398
3205,95579;3,02718
3203,90464;3,02375
3201,85348;3,02409
3199,80233;3,03787
3197,75117;3,04859
3195,70002;3,04053
3193,64886;3,02188
3191,59771;3,01035
3189,54655;3,01441
3187,4954;3,02429
3185,44424;3,02758
3183,39308;3,02579
3181,34193;3,02023
3179,29077;3,01703
3177,23962;3,03311
3175,18846;3,06108
3173,13731;3,07254
3171,08615;3,05474
3169,035;3,03262
3166,98384;3,03243
3164,93269;3,03803
3162,88153;3,02759
3160,83038;3,00727
3158,77922;2,99766
3156,72807;3,00948
3154,67691;3,02055
3152,62575;3,00938
3150,5746;3,00384
3148,52344;3,02093
3146,47229;3,03607
3144,42113;3,03835
3142,36998;3,03643
3140,31882;3,02404
3138,26767;3,0018
3136,21651;2,99456
3134,16536;3,00458
3132,1142;3,01839
3130,06305;3,02407
3128,01189;3,01559
3125,96074;3,01517
3123,90958;3,03172
3121,85842;3,04861
3119,80727;3,05268
3117,75611;3,04399
3115,70496;3,03099
3113,6538;3,02162
3111,60265;3,01863
3109,55149;3,01568
3107,50034;3,01596
3105,44918;3,01866
3103,39803;3,01245
3101,34687;3,00602
3099,29572;3,01132
3097,24456;3,02258
3095,19341;3,02986
3093,14225;3,0289
3091,09109;3,01297
3089,03994;2,99855
3086,98878;3,01028
3084,93763;3,03472
3082,88647;3,04382
3080,83532;3,03096
3078,78416;3,01093
3076,73301;2,99475
3074,68185;2,98713
3072,6307;2,99216
3070,57954;3,00346
3068,52839;3,01447
3066,47723;3,0158
3064,42608;3,01084
3062,37492;3,00797
3060,32376;3,00045
3058,27261;2,997
3056,22145;2,99682
3054,1703;2,98582
3052,11914;2,98336
3050,06799;3,00127
3048,01683;3,01436
3045,96568;3,01077
3043,91452;3,01048
3041,86337;3,01806
3039,81221;3,01313
3037,76106;2,99447
3035,7099;2,98236
3033,65875;2,9803
3031,60759;2,9848
3029,55643;2,99385
3027,50528;2,99574
3025,45412;2,99468
3023,40297;3,0051
3021,35181;3,0073
3019,30066;2,99674
3017,2495;2,99414
3015,19835;2,98775
3013,14719;2,97192
3011,09604;2,9644
3009,04488;2,97571
3006,99373;2,99443
3004,94257;2,99698
3002,89142;2,98329
3000,84026;2,97378
2998,7891;2,98219
2996,73795;3,00323
2994,68679;3,01599
2992,63564;3,01408
2990,58448;3,01018
2988,53333;3,01616
2986,48217;3,02187
2984,43102;3,02112
2982,37986;3,03039
2980,32871;3,04435
2978,27755;3,04351
2976,2264;3,02552
2974,17524;3,00668
2972,12409;3,00186
2970,07293;3,0056
2968,02177;3,00762
2965,97062;3,00675
2963,91946;3,0119
2961,86831;3,0218
2959,81715;3,0203
2957,766;3,00444
2955,71484;2,99146
2953,66369;2,99656
2951,61253;3,00583
2949,56138;3,00084
2947,51022;2,99304
2945,45907;2,99283
2943,40791;2,99485
2941,35675;2,99686
2939,3056;3,00506
2937,25444;3,01058
2935,20329;3,00199
2933,15213;2,99607
2931,10098;3,00045
2929,04982;3,0025
2926,99867;3,00226
2924,94751;2,99881
2922,89636;2,98841
2920,8452;2,98277
2918,79405;2,98558
2916,74289;2,99457
2914,69174;3,01126
2912,64058;3,01978
2910,58942;3,01523
2908,53827;3,00634
2906,48711;2,99641
2904,43596;2,99196
2902,3848;2,98756
2900,33365;2,98112
2898,28249;2,97716
2896,23134;2,97327
2894,18018;2,9671
2892,12903;2,96761
2890,07787;2,97541
2888,02672;2,9812
2885,97556;2,98663
2883,92441;2,99237
2881,87325;2,99776
2879,82209;2,9971
2877,77094;2,98927
2875,71978;2,98193
2873,66863;2,97037
2871,61747;2,96659
2869,56632;2,98404
2867,51516;2,9941
2865,46401;2,99076
2863,41285;2,99271
2861,3617;2,98666
2859,31054;2,96935
2857,25939;2,96751
2855,20823;2,97808
2853,15708;2,97591
2851,10592;2,96648
2849,05476;2,96306
2847,00361;2,96097
2844,95245;2,96072
2842,9013;2,96215
2840,85014;2,96691
2838,79899;2,97077
2836,74783;2,96003
2834,69668;2,95144
2832,64552;2,95728
2830,59437;2,95668
2828,54321;2,94445
2826,49206;2,93702
2824,4409;2,93577
2822,38975;2,93708
2820,33859;2,93768
2818,28743;2,93142
2816,23628;2,92283
2814,18512;2,91237
2812,13397;2,90297
2810,08281;2,90718
2808,03166;2,9126
2805,9805;2,90746
2803,92935;2,90356
2801,87819;2,90644
2799,82704;2,91525
2797,77588;2,92128
2795,72473;2,91395
2793,67357;2,89984
2791,62242;2,88961
2789,57126;2,88746
2787,5201;2,89397
2785,46895;2,90423
2783,41779;2,91173
2781,36664;2,91336
2779,31548;2,91062
2777,26433;2,90885
2775,21317;2,91274
2773,16202;2,91987
2771,11086;2,91942
2769,05971;2,90967
2767,00855;2,89773
2764,9574;2,89139
2762,90624;2,89437
2760,85509;2,89601
2758,80393;2,89267
2756,75277;2,89306
2754,70162;2,89151
2752,65046;2,88255
2750,59931;2,87614
2748,54815;2,87422
2746,497;2,87277
2744,44584;2,87121
2742,39469;2,87497
2740,34353;2,8835
2738,29238;2,88522
2736,24122;2,88473
2734,19007;2,88929
2732,13891;2,88743
2730,08776;2,87722
2728,0366;2,87526
2725,98544;2,88882
2723,93429;2,90069
2721,88313;2,89282
2719,83198;2,87632
2717,78082;2,8741
2715,72967;2,88505
2713,67851;2,88818
2711,62736;2,87927
2709,5762;2,86888
2707,52505;2,86264
2705,47389;2,86579
2703,42274;2,87735
2701,37158;2,88733
2699,32043;2,88538
2697,26927;2,87437
2695,21811;2,8659
2693,16696;2,85955
2691,1158;2,85284
2689,06465;2,85213
2687,01349;2,86034
2684,96234;2,86739
2682,91118;2,86772
2680,86003;2,86821
2678,80887;2,86817
2676,75772;2,86077
2674,70656;2,85342
2672,65541;2,85327
2670,60425;2,85526
2668,55309;2,85331
2666,50194;2,85246
2664,45078;2,86145
2662,39963;2,87173
2660,34847;2,87379
2658,29732;2,87328
2656,24616;2,87176
2654,19501;2,8747
2652,14385;2,88165
2650,0927;2,8782
2648,04154;2,86817
2645,99039;2,86428
2643,93923;2,86587
2641,88808;2,86474
2639,83692;2,86016
2637,78576;2,8586
2635,73461;2,86005
2633,68345;2,86577
2631,6323;2,87704
2629,58114;2,88807
2627,52999;2,89081
2625,47883;2,88275
2623,42768;2,87793
2621,37652;2,88636
2619,32537;2,89547
2617,27421;2,89633
2615,22306;2,90128
2613,1719;2,90909
2611,12075;2,90664
2609,06959;2,90078
2607,01843;2,89444
2604,96728;2,89052
2602,91612;2,8979
2600,86497;2,90215
2598,81381;2,89042
2596,76266;2,88382
2594,7115;2,89387
2592,66035;2,90827
2590,60919;2,92298
2588,55804;2,93611
2586,50688;2,94305
2584,45573;2,94271
2582,40457;2,93437
2580,35342;2,92432
2578,30226;2,91315
2576,2511;2,89963
2574,19995;2,89528
2572,14879;2,90725
2570,09764;2,9218
2568,04648;2,92614
2565,99533;2,91683
2563,94417;2,90393
2561,89302;2,90695
2559,84186;2,91906
2557,79071;2,92101
2555,73955;2,91678
2553,6884;2,92078
2551,63724;2,93037
2549,58609;2,93616
2547,53493;2,93606
2545,48377;2,93307
2543,43262;2,93347
2541,38146;2,93357
2539,33031;2,92568
2537,27915;2,91911
2535,228;2,92543
2533,17684;2,93696
2531,12569;2,94647
2529,07453;2,95168
2527,02338;2,94881
2524,97222;2,94477
2522,92107;2,94272
2520,86991;2,93659
2518,81876;2,93183
2516,7676;2,9374
2514,71644;2,94565
2512,66529;2,94798
2510,61413;2,94823
2508,56298;2,94961
2506,51182;2,95573
2504,46067;2,96299
2502,40951;2,9595
2500,35836;2,94907
2498,3072;2,94319
2496,25605;2,93621
2494,20489;2,92219
2492,15374;2,91249
2490,10258;2,90949
2488,05143;2,90395
2486,00027;2,89699
2483,94911;2,88688
2481,89796;2,87455
2479,8468;2,87169
2477,79565;2,87819
2475,74449;2,88254
2473,69334;2,8789
2471,64218;2,87046
2469,59103;2,86483
2467,53987;2,86338
2465,48872;2,85579
2463,43756;2,84301
2461,38641;2,83895
2459,33525;2,84388
2457,2841;2,84619
2455,23294;2,84302
2453,18178;2,84096
2451,13063;2,84143
2449,07947;2,83909
2447,02832;2,83205
2444,97716;2,8262
2442,92601;2,82588
2440,87485;2,82787
2438,8237;2,82701
2436,77254;2,82427
2434,72139;2,82398
2432,67023;2,82107
2430,61908;2,81336
2428,56792;2,8077
2426,51677;2,80211
2424,46561;2,79675
2422,41445;2,79846
2420,3633;2,80155
2418,31214;2,80041
2416,26099;2,79738
2414,20983;2,79612
2412,15868;2,80014
2410,10752;2,80388
2408,05637;2,80321
2406,00521;2,8015
2403,95406;2,80232
2401,9029;2,80477
2399,85175;2,80084
2397,80059;2,7903
2395,74944;2,78239
2393,69828;2,78063
2391,64712;2,78056
2389,59597;2,78
2387,54481;2,78223
2385,49366;2,7843
2383,4425;2,78522
2381,39135;2,79483
2379,34019;2,80352
2377,28904;2,79045
2375,23788;2,77932
2373,18673;2,79808
2371,13557;2,82105
2369,08442;2,82107
2367,03326;2,83042
2364,9821;2,86639
2362,93095;2,88104
2360,87979;2,85616
2358,82864;2,83138
2356,77748;2,81645
2354,72633;2,80259
2352,67517;2,79432
2350,62402;2,79029
2348,57286;2,78813
2346,52171;2,78915
2344,47055;2,79309
2342,4194;2,79869
2340,36824;2,80349
2338,31709;2,81312
2336,26593;2,82225
2334,21477;2,82245
2332,16362;2,82916
2330,11246;2,83108
2328,06131;2,81644
2326,01015;2,80738
2323,959;2,80184
2321,90784;2,79706
2319,85669;2,80738
2317,80553;2,82008
2315,75438;2,81349
2313,70322;2,79782
2311,65207;2,7902
2309,60091;2,78501
2307,54976;2,77918
2305,4986;2,78077
2303,44744;2,78882
2301,39629;2,79388
2299,34513;2,79057
2297,29398;2,78304
2295,24282;2,77963
2293,19167;2,78081
2291,14051;2,78073
2289,08936;2,77883
2287,0382;2,77387
2284,98705;2,7686
2282,93589;2,76997
2280,88474;2,77455
2278,83358;2,77698
2276,78243;2,77879
2274,73127;2,78094
2272,68011;2,77867
2270,62896;2,77341
2268,5778;2,77096
2266,52665;2,76948
2264,47549;2,77028
2262,42434;2,7752
2260,37318;2,7807
2258,32203;2,78565
2256,27087;2,78749
2254,21972;2,7847
2252,16856;2,7803
2250,11741;2,77468
2248,06625;2,77123
2246,0151;2,77304
2243,96394;2,77393
2241,91278;2,77367
2239,86163;2,77732
2237,81047;2,77895
2235,75932;2,77647
2233,70816;2,7791
2231,65701;2,78443
2229,60585;2,78782
2227,5547;2,79438
2225,50354;2,80328
2223,45239;2,80804
2221,40123;2,80399
2219,35008;2,79684
2217,29892;2,79302
2215,24777;2,78946
2213,19661;2,78956
2211,14545;2,79722
2209,0943;2,80424
2207,04314;2,80589
2204,99199;2,80804
2202,94083;2,81038
2200,88968;2,8071
2198,83852;2,80194
2196,78737;2,80002
2194,73621;2,79902
2192,68506;2,79657
2190,6339;2,79494
2188,58275;2,79678
2186,53159;2,79975
2184,48044;2,80171
2182,42928;2,80385
2180,37812;2,80244
2178,32697;2,79658
2176,27581;2,79251
2174,22466;2,79283
2172,1735;2,79468
2170,12235;2,79398
2168,07119;2,79224
2166,02004;2,79356
2163,96888;2,80187
2161,91773;2,81207
2159,86657;2,80969
2157,81542;2,80098
2155,76426;2,80397
2153,71311;2,81555
2151,66195;2,82462
2149,61079;2,82698
2147,55964;2,82589
2145,50848;2,82813
2143,45733;2,82718
2141,40617;2,81816
2139,35502;2,8141
2137,30386;2,81769
2135,25271;2,81857
2133,20155;2,81619
2131,1504;2,8171
2129,09924;2,82286
2127,04809;2,82915
2124,99693;2,83416
2122,94578;2,83627
2120,89462;2,83147
2118,84346;2,82519
2116,79231;2,8168
2114,74115;2,80426
2112,69;2,79643
2110,63884;2,79566
2108,58769;2,79925
2106,53653;2,80084
2104,48538;2,79625
2102,43422;2,78901
2100,38307;2,7863
2098,33191;2,79042
2096,28076;2,79436
2094,2296;2,79314
2092,17844;2,78596
2090,12729;2,78139
2088,07613;2,78702
2086,02498;2,7924
2083,97382;2,78836
2081,92267;2,7829
2079,87151;2,78215
2077,82036;2,78262
2075,7692;2,78314
2073,71805;2,78381
2071,66689;2,78396
2069,61574;2,78535
2067,56458;2,79065
2065,51343;2,79678
2063,46227;2,79786
2061,41111;2,79494
2059,35996;2,79217
2057,3088;2,79153
2055,25765;2,79203
2053,20649;2,79332
2051,15534;2,79743
2049,10418;2,80475
2047,05303;2,8072
2045,00187;2,80376
2042,95072;2,80773
2040,89956;2,81375
2038,84841;2,80906
2036,79725;2,80453
2034,7461;2,81183
2032,69494;2,82695
2030,64378;2,84384
2028,59263;2,86544
2026,54147;2,89479
2024,49032;2,92809
2022,43916;2,96743
2020,38801;3,00878
2018,33685;3,03273
2016,2857;3,04375
2014,23454;3,04738
2012,18339;3,03021
2010,13223;2,99477
2008,08108;2,95757
2006,02992;2,92346
2003,97877;2,88847
2001,92761;2,85646
1999,87645;2,83221
1997,8253;2,81465
1995,77414;2,80081
1993,72299;2,79151
1991,67183;2,79107
1989,62068;2,80035
1987,56952;2,80951
1985,51837;2,80712
1983,46721;2,79971
1981,41606;2,79752
1979,3649;2,79787
1977,31375;2,79371
1975,26259;2,78656
1973,21144;2,78551
1971,16028;2,78939
1969,10912;2,79294
1967,05797;2,79775
1965,00681;2,80191
1962,95566;2,80392
1960,9045;2,80523
1958,85335;2,80361
1956,80219;2,79951
1954,75104;2,7946
1952,69988;2,79106
1950,64873;2,79359
1948,59757;2,79955
1946,54642;2,80199
1944,49526;2,80259
1942,44411;2,80549
1940,39295;2,80802
1938,34179;2,80615
1936,29064;2,7972
1934,23948;2,78696
1932,18833;2,78378
1930,13717;2,7846
1928,08602;2,78926
1926,03486;2,80064
1923,98371;2,80939
1921,93255;2,81124
1919,8814;2,81291
1917,83024;2,81115
1915,77909;2,80377
1913,72793;2,79838
1911,67678;2,80066
1909,62562;2,80769
1907,57446;2,81029
1905,52331;2,80813
1903,47215;2,8053
1901,421;2,79934
1899,36984;2,79147
1897,31869;2,79218
1895,26753;2,80303
1893,21638;2,81691
1891,16522;2,82792
1889,11407;2,82994
1887,06291;2,82298
1885,01176;2,81605
1882,9606;2,81448
1880,90945;2,81337
1878,85829;2,8117
1876,80713;2,81715
1874,75598;2,82899
1872,70482;2,83926
1870,65367;2,84464
1868,60251;2,8438
1866,55136;2,84082
1864,5002;2,84296
1862,44905;2,84707
1860,39789;2,84657
1858,34674;2,84115
1856,29558;2,83823
1854,24443;2,84316
1852,19327;2,85197
1850,14212;2,85644
1848,09096;2,85665
1846,0398;2,85909
1843,98865;2,85915
1841,93749;2,85595
1839,88634;2,85912
1837,83518;2,86723
1835,78403;2,87396
1833,73287;2,87833
1831,68172;2,88154
1829,63056;2,88004
1827,57941;2,87745
1825,52825;2,88008
1823,4771;2,88481
1821,42594;2,8901
1819,37478;2,90158
1817,32363;2,92237
1815,27247;2,93982
1813,22132;2,94203
1811,17016;2,93885
1809,11901;2,94074
1807,06785;2,94916
1805,0167;2,96634
1802,96554;2,98507
1800,91439;2,99347
1798,86323;2,99164
1796,81208;2,98505
1794,76092;2,98076
1792,70977;2,9871
1790,65861;3,00151
1788,60745;3,00663
1786,5563;2,99359
1784,50514;2,97472
1782,45399;2,96495
1780,40283;2,96191
1778,35168;2,96736
1776,30052;2,98391
1774,24937;2,99961
1772,19821;3,00143
1770,14706;2,99039
1768,0959;2,97771
1766,04475;2,97449
1763,99359;2,98479
1761,94244;2,98985
1759,89128;2,9816
1757,84012;2,98291
1755,78897;2,9937
1753,73781;3,00186
1751,68666;3,01694
1749,6355;3,04553
1747,58435;3,06253
1745,53319;3,0567
1743,48204;3,04088
1741,43088;3,03528
1739,37973;3,05161
1737,32857;3,07314
1735,27742;3,07492
1733,22626;3,04745
1731,17511;3,03656
1729,12395;3,05139
1727,07279;3,06264
1725,02164;3,06263
1722,97048;3,06439
1720,91933;3,08135
1718,86817;3,10999
1716,81702;3,12053
1714,76586;3,10011
1712,71471;3,08457
1710,66355;3,09084
1708,6124;3,11451
1706,56124;3,13908
1704,51009;3,14679
1702,45893;3,13469
1700,40778;3,13105
1698,35662;3,16142
1696,30546;3,18979
1694,25431;3,18851
1692,20315;3,17944
1690,152;3,1876
1688,10084;3,21333
1686,04969;3,25051
1683,99853;3,26477
1681,94738;3,21755
1679,89622;3,17947
1677,84507;3,17201
1675,79391;3,17729
1673,74276;3,18018
1671,6916;3,17365
1669,64045;3,16074
1667,58929;3,1563
1665,53813;3,15067
1663,48698;3,13492
1661,43582;3,11995
1659,38467;3,11726
1657,33351;3,126
1655,28236;3,1397
1653,2312;3,13716
1651,18005;3,11822
1649,12889;3,1205
1647,07774;3,11731
1645,02658;3,08833
1642,97543;3,07049
1640,92427;3,06591
1638,87312;3,06782
1636,82196;3,06715
1634,7708;3,04167
1632,71965;3,02339
1630,66849;3,02854
1628,61734;3,03976
1626,56618;3,05154
1624,51503;3,06245
1622,46387;3,05938
1620,41272;3,0526
1618,36156;3,05704
1616,31041;3,06486
1614,25925;3,06116
1612,2081;3,0566
1610,15694;3,06015
1608,10579;3,06174
1606,05463;3,05815
1604,00347;3,06128
1601,95232;3,0732
1599,90116;3,07931
1597,85001;3,07126
1595,79885;3,06435
1593,7477;3,07049
1591,69654;3,08179
1589,64539;3,08483
1587,59423;3,07722
1585,54308;3,06788
1583,49192;3,06342
1581,44077;3,06307
1579,38961;3,06598
1577,33846;3,0707
1575,2873;3,07299
1573,23614;3,07642
1571,18499;3,08378
1569,13383;3,07377
1567,08268;3,05198
1565,03152;3,05039
1562,98037;3,06137
1560,92921;3,07358
1558,87806;3,08961
1556,8269;3,10065
1554,77575;3,09009
1552,72459;3,06429
1550,67344;3,05037
1548,62228;3,05285
1546,57113;3,05436
1544,51997;3,04648
1542,46881;3,03114
1540,41766;3,00988
1538,3665;2,99287
1536,31535;2,98712
1534,26419;2,98313
1532,21304;2,98038
1530,16188;2,98831
1528,11073;2,99835
1526,05957;2,99756
1524,00842;2,99735
1521,95726;3,00517
1519,90611;3,0055
1517,85495;3,00463
1515,80379;3,00263
1513,75264;2,98975
1511,70148;2,97595
1509,65033;2,98379
1507,59917;3,01237
1505,54802;3,01441
1503,49686;2,99266
1501,44571;2,97759
1499,39455;2,97819
1497,3434;2,99767
1495,29224;3,01274
1493,24109;3,01318
1491,18993;3,01078
1489,13878;3,00189
1487,08762;2,99051
1485,03646;2,99582
1482,98531;3,01243
1480,93415;3,01974
1478,883;3,02167
1476,83184;3,03538
1474,78069;3,06257
1472,72953;3,07552
1470,67838;3,055
1468,62722;3,03563
1466,57607;3,03298
1464,52491;3,04303
1462,47376;3,05812
1460,4226;3,07879
1458,37145;3,09853
1456,32029;3,07928
1454,26913;3,03972
1452,21798;3,01927
1450,16682;3,0164
1448,11567;3,02298
1446,06451;3,02875
1444,01336;3,02815
1441,9622;3,02329
1439,91105;3,02237
1437,85989;3,02522
1435,80874;3,01693
1433,75758;3,00499
1431,70643;2,99717
1429,65527;2,99136
1427,60412;2,99673
1425,55296;3,00722
1423,5018;3,00561
1421,45065;2,99669
1419,39949;2,9966
1417,34834;2,99816
1415,29718;2,99272
1413,24603;2,99119
1411,19487;2,99157
1409,14372;2,98895
1407,09256;2,99125
1405,04141;2,99741
1402,99025;2,99979
1400,9391;3,00437
1398,88794;3,01321
1396,83679;3,01666
1394,78563;3,01191
1392,73447;3,01308
1390,68332;3,02277
1388,63216;3,02546
1386,58101;3,01656
1384,52985;3,00883
1382,4787;3,01037
1380,42754;3,01806
1378,37639;3,02375
1376,32523;3,02658
1374,27408;3,03173
1372,22292;3,03979
1370,17177;3,04118
1368,12061;3,02928
1366,06946;3,02467
1364,0183;3,02794
1361,96714;3,01544
1359,91599;3,00744
1357,86483;3,01836
1355,81368;3,0277
1353,76252;3,02408
1351,71137;3,01465
1349,66021;3,0114
1347,60906;3,01697
1345,5579;3,02477
1343,50675;3,03311
1341,45559;3,03881
1339,40444;3,03419
1337,35328;3,02045
1335,30213;3,01015
1333,25097;3,00927
1331,19981;3,01409
1329,14866;3,02611
1327,0975;3,04432
1325,04635;3,05432
1322,99519;3,04785
1320,94404;3,03792
1318,89288;3,04036
1316,84173;3,05601
1314,79057;3,06685
1312,73942;3,05732
1310,68826;3,03405
1308,63711;3,01591
1306,58595;3,01707
1304,5348;3,02621
1302,48364;3,02681
1300,43248;3,03358
1298,38133;3,05436
1296,33017;3,06932
1294,27902;3,0666
1292,22786;3,05806
1290,17671;3,05574
1288,12555;3,05437
1286,0744;3,04951
1284,02324;3,04474
1281,97209;3,041
1279,92093;3,04461
1277,86978;3,05089
1275,81862;3,04583
1273,76747;3,04222
1271,71631;3,04551
1269,66515;3,04534
1267,614;3,04745
1265,56284;3,05165
1263,51169;3,04982
1261,46053;3,05741
1259,40938;3,06819
1257,35822;3,05683
1255,30707;3,04816
1253,25591;3,05445
1251,20476;3,05381
1249,1536;3,04895
1247,10245;3,05202
1245,05129;3,0589
1243,00013;3,05757
1240,94898;3,04233
1238,89782;3,03146
1236,84667;3,03634
1234,79551;3,03626
1232,74436;3,02523
1230,6932;3,02235
1228,64205;3,03158
1226,59089;3,04259
1224,53974;3,04466
1222,48858;3,03759
1220,43743;3,02835
1218,38627;3,02166
1216,33512;3,02059
1214,28396;3,02024
1212,2328;3,01527
1210,18165;3,01534
1208,13049;3,0281
1206,07934;3,04373
1204,02818;3,05023
1201,97703;3,04088
1199,92587;3,02859
1197,87472;3,02952
1195,82356;3,03782
1193,77241;3,04042
1191,72125;3,03777
1189,6701;3,03307
1187,61894;3,02767
1185,56779;3,02677
1183,51663;3,03653
1181,46547;3,0523
1179,41432;3,06339
1177,36316;3,06963
1175,31201;3,0699
1173,26085;3,06403
1171,2097;3,0615
1169,15854;3,06856
1167,10739;3,07706
1165,05623;3,07898
1163,00508;3,07538
1160,95392;3,07865
1158,90277;3,0914
1156,85161;3,09675
1154,80046;3,09213
1152,7493;3,09124
1150,69814;3,09499
1148,64699;3,09349
1146,59583;3,09553
1144,54468;3,09919
1142,49352;3,0972
1140,44237;3,11224
1138,39121;3,13798
1136,34006;3,14803
1134,2889;3,14795
1132,23775;3,16019
1130,18659;3,19565
1128,13544;3,22689
1126,08428;3,21532
1124,03313;3,17683
1121,98197;3,15644
1119,93081;3,1522
1117,87966;3,14866
1115,8285;3,15636
1113,77735;3,15592
1111,72619;3,12819
1109,67504;3,10177
1107,62388;3,09413
1105,57273;3,08717
1103,52157;3,06901
1101,47042;3,05143
1099,41926;3,03775
1097,36811;3,02315
1095,31695;3,01056
1093,2658;2,9943
1091,21464;2,97585
1089,16348;2,97644
1087,11233;2,98799
1085,06117;2,98841
1083,01002;2,98003
1080,95886;2,97556
1078,90771;2,97885
1076,85655;2,97339
1074,8054;2,95372
1072,75424;2,9337
1070,70309;2,92095
1068,65193;2,90931
1066,60078;2,88829
1064,54962;2,86094
1062,49847;2,83582
1060,44731;2,81444
1058,39615;2,79386
1056,345;2,77454
1054,29384;2,75793
1052,24269;2,74226
1050,19153;2,72725
1048,14038;2,70883
1046,08922;2,68567
1044,03807;2,66961
1041,98691;2,66218
1039,93576;2,65026
1037,8846;2,63007
1035,83345;2,61321
1033,78229;2,60612
1031,73114;2,60294
1029,67998;2,60145
1027,62882;2,60444
1025,57767;2,61202
1023,52651;2,61767
1021,47536;2,61843
1019,4242;2,62322
1017,37305;2,63365
1015,32189;2,64493
1013,27074;2,6606
1011,21958;2,68406
1009,16843;2,7013
1007,11727;2,70239
1005,06612;2,70145
1003,01496;2,70636
1000,96381;2,71444
998,91265;2,72899
996,86149;2,75088
994,81034;2,76669
992,75918;2,7676
990,70803;2,76161
988,65687;2,75492
986,60572;2,75316
984,55456;2,75729
982,50341;2,76021
980,45225;2,76497
978,4011;2,77289
976,34994;2,78042
974,29879;2,78833
972,24763;2,79726
970,19647;2,8128
968,14532;2,82983
966,09416;2,83425
964,04301;2,82779
961,99185;2,81896
959,9407;2,81248
957,88954;2,80502
955,83839;2,79831
953,78723;2,79753
951,73608;2,79679
949,68492;2,79442
947,63377;2,79283
945,58261;2,79405
943,53146;2,79346
941,4803;2,79016
939,42914;2,7933
937,37799;2,79835
935,32683;2,79875
933,27568;2,79901
931,22452;2,80435
929,17337;2,81182
927,12221;2,81359
925,07106;2,8029
923,0199;2,78841
920,96875;2,78661
918,91759;2,80204
916,86644;2,81818
914,81528;2,81238
912,76413;2,799
910,71297;2,79365
908,66181;2,79143
906,61066;2,79687
904,5595;2,80889
902,50835;2,81783
900,45719;2,8234
898,40604;2,8267
896,35488;2,82377
894,30373;2,81385
892,25257;2,80036
890,20142;2,78809
888,15026;2,78367
886,09911;2,80103
884,04795;2,83931
881,9968;2,87465
879,94564;2,90304
877,89448;2,91642
875,84333;2,8947
873,79217;2,86338
871,74102;2,85117
869,68986;2,86607
867,63871;2,89779
865,58755;2,9122
863,5364;2,89838
861,48524;2,87696
859,43409;2,86753
857,38293;2,8712
855,33178;2,87227
853,28062;2,86692
851,22947;2,87437
849,17831;2,89469
847,12715;2,89618
845,076;2,88252
843,02484;2,88191
840,97369;2,89384
838,92253;2,90338
836,87138;2,90982
834,82022;2,91425
832,76907;2,90593
830,71791;2,89268
828,66676;2,88621
826,6156;2,87784
824,56445;2,87585
822,51329;2,8851
820,46214;2,88689
818,41098;2,88011
816,35982;2,88246
814,30867;2,89848
812,25751;2,91136
810,20636;2,91547
808,1552;2,92149
806,10405;2,91625
804,05289;2,91072
802,00174;2,92495
799,95058;2,94294
797,89943;2,9447
795,84827;2,93611
793,79712;2,9282
791,74596;2,92985
789,69481;2,94197
787,64365;2,93632
785,59249;2,91661
783,54134;2,9209
781,49018;2,95082
779,43903;2,95993
777,38787;2,91707
775,33672;2,87559
773,28556;2,87653
771,23441;2,9046
769,18325;2,94052
767,1321;2,96359
765,08094;2,95873
763,02979;2,94489
760,97863;2,94527
758,92748;2,9424
756,87632;2,92456
754,82516;2,91583
752,77401;2,93417
750,72285;2,96521
748,6717;2,97671
746,62054;2,96782
744,56939;2,96777
742,51823;2,97412
740,46708;2,97072
738,41592;2,9695
736,36477;2,96674
734,31361;2,97285
732,26246;2,98731
730,2113;2,98722
728,16015;2,99383
726,10899;2,99798
724,05783;2,97983
722,00668;2,96968
719,95552;2,98739
717,90437;3,01728
715,85321;3,03212
713,80206;3,0311
711,7509;3,03385
709,69975;3,03688
707,64859;3,03721
705,59744;3,0361
703,54628;3,02457
701,49513;3,01391
699,44397;3,02294
697,39281;3,05181
695,34166;3,04538
693,2905;2,98179
691,23935;2,93747
689,18819;2,95218
687,13704;2,98941
685,08588;3,03481
683,03473;3,07044
680,98357;3,04108
678,93242;2,98902
676,88126;2,98258
674,83011;3,01753
672,77895;3,05458
670,7278;3,06615
668,67664;3,06623
666,62548;3,07603
664,57433;3,0684
662,52317;3,03965
660,47202;2,99996
658,42086;2,98632
656,36971;2,99798
654,31855;2,99469
652,2674;2,9909
650,21624;3,00139
648,16509;2,98893
646,11393;2,95121
644,06278;2,94903
642,01162;2,97721
639,96047;3,01162
637,90931;3,04875
635,85815;3,06439
633,807;3,04279
631,75584;3,01282
629,70469;3,02537
627,65353;3,04567
625,60238;3,0581
623,55122;3,05861
621,50007;3,05114
619,44891;3,04857
617,39776;3,02537
615,3466;3,00702
613,29545;3,00292
611,24429;2,98302
609,19314;2,95775
607,14198;2,95156
605,09082;2,94779
603,03967;2,9223
600,98851;2,85345
598,93736;2,81778
596,8862;2,84079
594,83505;2,87502
592,78389;2,90364
590,73274;2,92158
588,68158;2,89738
586,63043;2,89025
584,57927;2,94157
582,52812;2,94147
580,47696;2,87868
578,42581;2,82739
576,37465;2,79091
574,32349;2,75513
572,27234;2,74056
570,22118;2,76697
568,17003;2,80069
566,11887;2,78031
564,06772;2,73502
562,01656;2,71144
559,96541;2,68519
557,91425;2,66185
555,8631;2,67027
553,81194;2,69026
551,76079;2,70339
549,70963;2,7241
547,65848;2,75012
545,60732;2,76933
543,55616;2,80249
541,50501;2,84978
539,45385;2,88315
537,4027;2,89069
535,35154;2,84303
533,30039;2,7896
531,24923;2,78445
529,19808;2,78809
527,14692;2,77331
525,09577;2,77693
523,04461;2,79715
520,99346;2,82056
518,9423;2,84612
516,89115;2,85343
514,83999;2,84447
512,78883;2,81661
510,73768;2,78397
508,68652;2,77071
506,63537;2,7829
504,58421;2,82659
502,53306;2,85822
500,4819;2,83698
498,43075;2,83889
496,37959;2,85411
494,32844;2,82481
492,27728;2,79285
490,22613;2,80576
488,17497;2,86027
486,12382;2,90176
484,07266;2,86997
482,0215;2,82785
479,97035;2,83572
477,91919;2,82503
475,86804;2,78657
473,81688;2,79984
471,76573;2,86766
469,71457;2,91549
467,66342;2,89681
465,61226;2,83857
463,56111;2,81951
461,50995;2,8657
459,4588;2,89695
457,40764;2,85246
455,35649;2,78436
453,30533;2,78563
451,25417;2,89613
449,20302;2,9806
447,15186;2,9337
445,10071;2,8889
443,04955;2,95885
440,9984;2,9512
438,94724;2,86159
436,89609;2,78737
434,84493;2,78521
432,79378;2,85095
430,74262;2,86299
428,69147;2,86304
426,64031;2,90282
424,58916;2,94396
422,538;2,87347
420,48684;2,84609
418,43569;2,85732
416,38453;2,76078
414,33338;2,77575
412,28222;2,87246
410,23107;2,92033
408,17991;3,05021
406,12876;3,0914
404,0776;2,96459
402,02645;2,85647
399,97529;2,79234
