3997,70175;2,04265
3995,6506;2,04289
3993,59944;2,04342
3991,54829;2,04332
3989,49713;2,04405
3987,44598;2,04617
3985,39482;2,04804
3983,34367;2,04951
3981,29251;2,05129
3979,24136;2,05298
3977,1902;2,05313
3975,13905;2,05299
3973,08789;2,05456
3971,03673;2,0571
3968,98558;2,05914
3966,93442;2,0606
3964,88327;2,06144
3962,83211;2,06173
3960,78096;2,06371
3958,7298;2,06739
3956,67865;2,07087
3954,62749;2,07339
3952,57634;2,07556
3950,52518;2,07862
3948,47403;2,08197
3946,42287;2,08441
3944,37172;2,08402
3942,32056;2,08132
3940,2694;2,07771
3938,21825;2,07521
3936,16709;2,07789
3934,11594;2,08025
3932,06478;2,07622
3930,01363;2,06986
3927,96247;2,06568
3925,91132;2,06239
3923,86016;2,05995
3921,80901;2,05819
3919,75785;2,05443
3917,7067;2,04852
3915,65554;2,04265
3913,60439;2,03763
3911,55323;2,0334
3909,50207;2,03182
3907,45092;2,03288
3905,39976;2,03534
3903,34861;2,03919
3901,29745;2,04012
3899,2463;2,03492
3897,19514;2,03056
3895,14399;2,02922
3893,09283;2,02688
3891,04168;2,02351
3888,99052;2,0234
3886,93937;2,02058
3884,88821;2,02117
3882,83706;2,02486
3880,7859;2,02131
3878,73474;2,02035
3876,68359;2,02268
3874,63243;2,02508
3872,58128;2,02937
3870,53012;2,02749
3868,47897;2,02712
3866,42781;2,02752
3864,37666;2,02474
3862,3255;2,02129
3860,27435;2,0185
3858,22319;2,02218
3856,17204;2,02669
3854,12088;2,02573
3852,06973;2,02764
3850,01857;2,02532
3847,96741;2,01763
3845,91626;2,01407
3843,8651;2,01735
3841,81395;2,02562
3839,76279;2,02977
3837,71164;2,02705
3835,66048;2,02289
3833,60933;2,0169
3831,55817;2,01181
3829,50702;2,01215
3827,45586;2,01382
3825,40471;2,01884
3823,35355;2,02339
3821,3024;2,02555
3819,25124;2,03113
3817,20008;2,02383
3815,14893;2,01268
3813,09777;2,01109
3811,04662;2,01229
3808,99546;2,01376
3806,94431;2,01759
3804,89315;2,02792
3802,842;2,02822
3800,79084;2,02395
3798,73969;2,02443
3796,68853;2,01976
3794,63738;2,01582
3792,58622;2,01317
3790,53506;2,01153
3788,48391;2,01272
3786,43275;2,01449
3784,3816;2,01645
3782,33044;2,01914
3780,27929;2,01857
3778,22813;2,01712
3776,17698;2,01644
3774,12582;2,01827
3772,07467;2,02332
3770,02351;2,02761
3767,97236;2,02952
3765,9212;2,02548
3763,87005;2,02391
3761,81889;2,02678
3759,76773;2,03105
3757,71658;2,03799
3755,66542;2,04542
3753,61427;2,04741
3751,56311;2,0449
3749,51196;2,04939
3747,4608;2,05808
3745,40965;2,05112
3743,35849;2,04547
3741,30734;2,05079
3739,25618;2,05598
3737,20503;2,06374
3735,15387;2,07066
3733,10272;2,06605
3731,05156;2,05588
3729,0004;2,05219
3726,94925;2,05261
3724,89809;2,05684
3722,84694;2,0592
3720,79578;2,05944
3718,74463;2,06121
3716,69347;2,06722
3714,64232;2,07718
3712,59116;2,08835
3710,54001;2,09807
3708,48885;2,10083
3706,4377;2,10089
3704,38654;2,10528
3702,33539;2,115
3700,28423;2,13046
3698,23307;2,14598
3696,18192;2,15797
3694,13076;2,16735
3692,07961;2,16996
3690,02845;2,16417
3687,9773;2,15629
3685,92614;2,15356
3683,87499;2,15315
3681,82383;2,15756
3679,77268;2,16779
3677,72152;2,17915
3675,67037;2,18993
3673,61921;2,20634
3671,56806;2,21022
3669,5169;2,20826
3667,46574;2,21565
3665,41459;2,22154
3663,36343;2,2254
3661,31228;2,23398
3659,26112;2,24744
3657,20997;2,25882
3655,15881;2,27141
3653,10766;2,28803
3651,0565;2,30943
3649,00535;2,34359
3646,95419;2,37592
3644,90304;2,39194
3642,85188;2,39376
3640,80073;2,39066
3638,74957;2,38735
3636,69841;2,38591
3634,64726;2,39107
3632,5961;2,40678
3630,54495;2,42153
3628,49379;2,43063
3626,44264;2,43917
3624,39148;2,44202
3622,34033;2,44428
3620,28917;2,44999
3618,23802;2,46188
3616,18686;2,47524
3614,13571;2,48353
3612,08455;2,48971
3610,0334;2,49182
3607,98224;2,49073
3605,93108;2,49214
3603,87993;2,49516
3601,82877;2,5013
3599,77762;2,51182
3597,72646;2,52128
3595,67531;2,52527
3593,62415;2,53123
3591,573;2,54436
3589,52184;2,55278
3587,47069;2,54945
3585,41953;2,54887
3583,36838;2,55812
3581,31722;2,56824
3579,26607;2,57318
3577,21491;2,57374
3575,16375;2,57267
3573,1126;2,57593
3571,06144;2,58804
3569,01029;2,6045
3566,95913;2,61432
3564,90798;2,61072
3562,85682;2,60185
3560,80567;2,59787
3558,75451;2,59633
3556,70336;2,59444
3554,6522;2,59687
3552,60105;2,60569
3550,54989;2,61791
3548,49874;2,62892
3546,44758;2,6349
3544,39642;2,6329
3542,34527;2,62947
3540,29411;2,6366
3538,24296;2,65079
3536,1918;2,65778
3534,14065;2,65358
3532,08949;2,64574
3530,03834;2,64169
3527,98718;2,64328
3525,93603;2,64976
3523,88487;2,65736
3521,83372;2,66285
3519,78256;2,66447
3517,73141;2,66559
3515,68025;2,67132
3513,62909;2,67759
3511,57794;2,67888
3509,52678;2,67574
3507,47563;2,67042
3505,42447;2,6661
3503,37332;2,67134
3501,32216;2,68651
3499,27101;2,69584
3497,21985;2,69308
3495,1687;2,68746
3493,11754;2,68724
3491,06639;2,69365
3489,01523;2,70021
3486,96407;2,70458
3484,91292;2,71057
3482,86176;2,71031
3480,81061;2,70006
3478,75945;2,69566
3476,7083;2,69969
3474,65714;2,69843
3472,60599;2,69558
3470,55483;2,70022
3468,50368;2,70826
3466,45252;2,71786
3464,40137;2,72853
3462,35021;2,73225
3460,29906;2,7285
3458,2479;2,72208
3456,19674;2,7162
3454,14559;2,71385
3452,09443;2,71462
3450,04328;2,71811
3447,99212;2,72309
3445,94097;2,72712
3443,88981;2,72762
3441,83866;2,7295
3439,7875;2,73701
3437,73635;2,73933
3435,68519;2,73433
3433,63404;2,7324
3431,58288;2,73096
3429,53173;2,7242
3427,48057;2,72245
3425,42941;2,73012
3423,37826;2,73629
3421,3271;2,73657
3419,27595;2,73417
3417,22479;2,73116
3415,17364;2,72991
3413,12248;2,72995
3411,07133;2,73527
3409,02017;2,74264
3406,96902;2,73925
3404,91786;2,73278
3402,86671;2,73266
3400,81555;2,73276
3398,7644;2,72969
3396,71324;2,72425
3394,66208;2,71934
3392,61093;2,71853
3390,55977;2,72253
3388,50862;2,73112
3386,45746;2,73568
3384,40631;2,7308
3382,35515;2,72442
3380,304;2,71824
3378,25284;2,71273
3376,20169;2,71328
3374,15053;2,71867
3372,09938;2,72193
3370,04822;2,72571
3367,99707;2,73277
3365,94591;2,73206
3363,89475;2,71912
3361,8436;2,70824
3359,79244;2,70901
3357,74129;2,71477
3355,69013;2,71684
3353,63898;2,71654
3351,58782;2,71874
3349,53667;2,72204
3347,48551;2,72308
3345,43436;2,71759
3343,3832;2,70971
3341,33205;2,70816
3339,28089;2,70703
3337,22974;2,70243
3335,17858;2,69998
3333,12742;2,69876
3331,07627;2,69843
3329,02511;2,70461
3326,97396;2,7153
3324,9228;2,71621
3322,87165;2,70338
3320,82049;2,6941
3318,76934;2,69729
3316,71818;2,6982
3314,66703;2,69021
3312,61587;2,68822
3310,56472;2,69558
3308,51356;2,69862
3306,46241;2,6953
3304,41125;2,69452
3302,36009;2,70069
3300,30894;2,70859
3298,25778;2,70332
3296,20663;2,68787
3294,15547;2,68198
3292,10432;2,68465
3290,05316;2,68201
3288,00201;2,67482
3285,95085;2,67349
3283,8997;2,67703
3281,84854;2,6778
3279,79739;2,67253
3277,74623;2,66549
3275,69508;2,66284
3273,64392;2,66529
3271,59276;2,67254
3269,54161;2,67936
3267,49045;2,68047
3265,4393;2,67705
3263,38814;2,6706
3261,33699;2,6646
3259,28583;2,6628
3257,23468;2,66429
3255,18352;2,66438
3253,13237;2,66373
3251,08121;2,66583
3249,03006;2,66792
3246,9789;2,66595
3244,92775;2,66457
3242,87659;2,6704
3240,82543;2,67602
3238,77428;2,67419
3236,72312;2,66488
3234,67197;2,65096
3232,62081;2,64306
3230,56966;2,64514
3228,5185;2,65058
3226,46735;2,65612
3224,41619;2,65798
3222,36504;2,65359
3220,31388;2,64944
3218,26273;2,65128
3216,21157;2,65522
3214,16041;2,65403
3212,10926;2,64907
3210,0581;2,64552
3208,00695;2,64234
3205,95579;2,6397
3203,90464;2,64401
3201,85348;2,6508
3199,80233;2,64658
3197,75117;2,63453
3195,70002;2,62674
3193,64886;2,62322
3191,59771;2,62097
3189,54655;2,62304
3187,4954;2,62583
3185,44424;2,62236
3183,39308;2,61736
3181,34193;2,61884
3179,29077;2,62457
3177,23962;2,62679
3175,18846;2,62472
3173,13731;2,62213
3171,08615;2,62018
3169,035;2,6183
3166,98384;2,61669
3164,93269;2,61472
3162,88153;2,61151
3160,83038;2,60683
3158,77922;2,59901
3156,72807;2,59215
3154,67691;2,59301
3152,62575;2,59865
3150,5746;2,60125
3148,52344;2,59918
3146,47229;2,59463
3144,42113;2,58868
3142,36998;2,58462
3140,31882;2,58589
3138,26767;2,59
3136,21651;2,59111
3134,16536;2,58772
3132,1142;2,58244
3130,06305;2,57737
3128,01189;2,57652
3125,96074;2,57929
3123,90958;2,57795
3121,85842;2,57444
3119,80727;2,57266
3117,75611;2,56864
3115,70496;2,56606
3113,6538;2,56981
3111,60265;2,57261
3109,55149;2,56975
3107,50034;2,56603
3105,44918;2,56369
3103,39803;2,56239
3101,34687;2,56433
3099,29572;2,56976
3097,24456;2,57334
3095,19341;2,57029
3093,14225;2,56341
3091,09109;2,5596
3089,03994;2,55774
3086,98878;2,55338
3084,93763;2,54965
3082,88647;2,55001
3080,83532;2,55367
3078,78416;2,55538
3076,73301;2,55219
3074,68185;2,5481
3072,6307;2,54569
3070,57954;2,54509
3068,52839;2,54659
3066,47723;2,54953
3064,42608;2,54893
3062,37492;2,54239
3060,32376;2,537
3058,27261;2,53756
3056,22145;2,53926
3054,1703;2,53907
3052,11914;2,53963
3050,06799;2,54193
3048,01683;2,54224
3045,96568;2,53773
3043,91452;2,53383
3041,86337;2,53722
3039,81221;2,5438
3037,76106;2,5452
3035,7099;2,54237
3033,65875;2,54198
3031,60759;2,54608
3029,55643;2,5507
3027,50528;2,55124
3025,45412;2,5493
3023,40297;2,54852
3021,35181;2,54784
3019,30066;2,54517
3017,2495;2,54417
3015,19835;2,54748
3013,14719;2,55104
3011,09604;2,55262
3009,04488;2,55373
3006,99373;2,55718
3004,94257;2,56644
3002,89142;2,57763
3000,84026;2,58523
2998,7891;2,59388
2996,73795;2,6066
2994,68679;2,61857
2992,63564;2,62795
2990,58448;2,63591
2988,53333;2,64457
2986,48217;2,65273
2984,43102;2,6567
2982,37986;2,6572
2980,32871;2,65791
2978,27755;2,65903
2976,2264;2,65682
2974,17524;2,65107
2972,12409;2,6459
2970,07293;2,64254
2968,02177;2,64111
2965,97062;2,64167
2963,91946;2,64311
2961,86831;2,64165
2959,81715;2,63516
2957,766;2,62931
2955,71484;2,62708
2953,66369;2,62632
2951,61253;2,62967
2949,56138;2,63668
2947,51022;2,63695
2945,45907;2,62952
2943,40791;2,62538
2941,35675;2,62561
2939,3056;2,62362
2937,25444;2,62315
2935,20329;2,62948
2933,15213;2,6334
2931,10098;2,62821
2929,04982;2,62238
2926,99867;2,6231
2924,94751;2,62646
2922,89636;2,62994
2920,8452;2,63313
2918,79405;2,6313
2916,74289;2,62853
2914,69174;2,6308
2912,64058;2,63278
2910,58942;2,62843
2908,53827;2,62304
2906,48711;2,62445
2904,43596;2,62817
2902,3848;2,62592
2900,33365;2,62451
2898,28249;2,62717
2896,23134;2,62678
2894,18018;2,62747
2892,12903;2,63163
2890,07787;2,63463
2888,02672;2,63903
2885,97556;2,64674
2883,92441;2,6528
2881,87325;2,65614
2879,82209;2,66653
2877,77094;2,68021
2875,71978;2,68027
2873,66863;2,67076
2871,61747;2,66597
2869,56632;2,66859
2867,51516;2,67366
2865,46401;2,67361
2863,41285;2,6642
2861,3617;2,64856
2859,31054;2,63392
2857,25939;2,62667
2855,20823;2,62523
2853,15708;2,62225
2851,10592;2,61462
2849,05476;2,6051
2847,00361;2,59615
2844,95245;2,58835
2842,9013;2,58225
2840,85014;2,57455
2838,79899;2,56235
2836,74783;2,5499
2834,69668;2,53714
2832,64552;2,52155
2830,59437;2,5081
2828,54321;2,49873
2826,49206;2,49026
2824,4409;2,48303
2822,38975;2,47813
2820,33859;2,47261
2818,28743;2,46539
2816,23628;2,46025
2814,18512;2,45581
2812,13397;2,44726
2810,08281;2,43705
2808,03166;2,43095
2805,9805;2,43013
2803,92935;2,43143
2801,87819;2,43381
2799,82704;2,43714
2797,77588;2,43598
2795,72473;2,42693
2793,67357;2,41559
2791,62242;2,408
2789,57126;2,40409
2787,5201;2,40262
2785,46895;2,40222
2783,41779;2,39962
2781,36664;2,39493
2779,31548;2,39095
2777,26433;2,38784
2775,21317;2,38516
2773,16202;2,38394
2771,11086;2,38353
2769,05971;2,38206
2767,00855;2,37917
2764,9574;2,37607
2762,90624;2,37457
2760,85509;2,37263
2758,80393;2,36911
2756,75277;2,36688
2754,70162;2,36517
2752,65046;2,36387
2750,59931;2,36433
2748,54815;2,36629
2746,497;2,36813
2744,44584;2,36453
2742,39469;2,35954
2740,34353;2,36148
2738,29238;2,36346
2736,24122;2,36045
2734,19007;2,35845
2732,13891;2,35819
2730,08776;2,3571
2728,0366;2,35537
2725,98544;2,35234
2723,93429;2,34751
2721,88313;2,34444
2719,83198;2,34605
2717,78082;2,35057
2715,72967;2,35387
2713,67851;2,35255
2711,62736;2,34842
2709,5762;2,34627
2707,52505;2,34775
2705,47389;2,3501
2703,42274;2,35054
2701,37158;2,34951
2699,32043;2,34681
2697,26927;2,344
2695,21811;2,34457
2693,16696;2,34752
2691,1158;2,34881
2689,06465;2,34774
2687,01349;2,34712
2684,96234;2,34753
2682,91118;2,34737
2680,86003;2,34673
2678,80887;2,34659
2676,75772;2,34774
2674,70656;2,34998
2672,65541;2,35173
2670,60425;2,35307
2668,55309;2,35449
2666,50194;2,35616
2664,45078;2,3582
2662,39963;2,36022
2660,34847;2,36231
2658,29732;2,36407
2656,24616;2,36657
2654,19501;2,37033
2652,14385;2,37279
2650,0927;2,37392
2648,04154;2,37478
2645,99039;2,37646
2643,93923;2,3824
2641,88808;2,39244
2639,83692;2,40182
2637,78576;2,409
2635,73461;2,4181
2633,68345;2,4326
2631,6323;2,44809
2629,58114;2,45816
2627,52999;2,46492
2625,47883;2,47409
2623,42768;2,48471
2621,37652;2,49207
2619,32537;2,49827
2617,27421;2,5076
2615,22306;2,51816
2613,1719;2,52744
2611,12075;2,53478
2609,06959;2,54143
2607,01843;2,54983
2604,96728;2,55813
2602,91612;2,56309
2600,86497;2,5647
2598,81381;2,56568
2596,76266;2,56898
2594,7115;2,5748
2592,66035;2,58005
2590,60919;2,58461
2588,55804;2,58725
2586,50688;2,58574
2584,45573;2,58443
2582,40457;2,58438
2580,35342;2,58327
2578,30226;2,57998
2576,2511;2,57649
2574,19995;2,57783
2572,14879;2,58197
2570,09764;2,58541
2568,04648;2,59019
2565,99533;2,59493
2563,94417;2,59521
2561,89302;2,59479
2559,84186;2,59712
2557,79071;2,59916
2555,73955;2,60171
2553,6884;2,60656
2551,63724;2,61131
2549,58609;2,61401
2547,53493;2,61699
2545,48377;2,62254
2543,43262;2,62803
2541,38146;2,63149
2539,33031;2,63841
2537,27915;2,65113
2535,228;2,66455
2533,17684;2,67987
2531,12569;2,69938
2529,07453;2,71684
2527,02338;2,72907
2524,97222;2,73662
2522,92107;2,7372
2520,86991;2,73536
2518,81876;2,74002
2516,7676;2,75022
2514,71644;2,75697
2512,66529;2,7546
2510,61413;2,74934
2508,56298;2,74906
2506,51182;2,74646
2504,46067;2,7333
2502,40951;2,71483
2500,35836;2,69766
2498,3072;2,6823
2496,25605;2,66565
2494,20489;2,64672
2492,15374;2,62953
2490,10258;2,61576
2488,05143;2,60305
2486,00027;2,58699
2483,94911;2,56667
2481,89796;2,54785
2479,8468;2,53369
2477,79565;2,52279
2475,74449;2,50965
2473,69334;2,4924
2471,64218;2,47564
2469,59103;2,45984
2467,53987;2,44479
2465,48872;2,43341
2463,43756;2,42699
2461,38641;2,42083
2459,33525;2,41105
2457,2841;2,40089
2455,23294;2,39194
2453,18178;2,38438
2451,13063;2,37923
2449,07947;2,37453
2447,02832;2,36825
2444,97716;2,36233
2442,92601;2,35817
2440,87485;2,35495
2438,8237;2,35208
2436,77254;2,34732
2434,72139;2,3407
2432,67023;2,33564
2430,61908;2,33248
2428,56792;2,3297
2426,51677;2,32701
2424,46561;2,3244
2422,41445;2,32114
2420,3633;2,31648
2418,31214;2,31213
2416,26099;2,30918
2414,20983;2,30687
2412,15868;2,30633
2410,10752;2,30659
2408,05637;2,30548
2406,00521;2,30424
2403,95406;2,30214
2401,9029;2,29726
2399,85175;2,2937
2397,80059;2,29369
2395,74944;2,29505
2393,69828;2,29544
2391,64712;2,29455
2389,59597;2,29244
2387,54481;2,28983
2385,49366;2,28818
2383,4425;2,28812
2381,39135;2,28919
2379,34019;2,29141
2377,28904;2,29353
2375,23788;2,29368
2373,18673;2,29378
2371,13557;2,29415
2369,08442;2,29179
2367,03326;2,29063
2364,9821;2,29501
2362,93095;2,29942
2360,87979;2,29907
2358,82864;2,29638
2356,77748;2,29385
2354,72633;2,29158
2352,67517;2,29101
2350,62402;2,29347
2348,57286;2,29627
2346,52171;2,2963
2344,47055;2,29427
2342,4194;2,29204
2340,36824;2,28974
2338,31709;2,28838
2336,26593;2,28868
2334,21477;2,28938
2332,16362;2,28886
2330,11246;2,28542
2328,06131;2,28136
2326,01015;2,28247
2323,959;2,28857
2321,90784;2,29305
2319,85669;2,29298
2317,80553;2,29079
2315,75438;2,28973
2313,70322;2,29163
2311,65207;2,29476
2309,60091;2,29581
2307,54976;2,29373
2305,4986;2,29012
2303,44744;2,28781
2301,39629;2,28817
2299,34513;2,28884
2297,29398;2,28679
2295,24282;2,28363
2293,19167;2,28279
2291,14051;2,28375
2289,08936;2,28385
2287,0382;2,28305
2284,98705;2,28314
2282,93589;2,28403
2280,88474;2,28436
2278,83358;2,28375
2276,78243;2,28277
2274,73127;2,28244
2272,68011;2,283
2270,62896;2,28351
2268,5778;2,28429
2266,52665;2,28585
2264,47549;2,28762
2262,42434;2,29014
2260,37318;2,29329
2258,32203;2,29568
2256,27087;2,2977
2254,21972;2,29957
2252,16856;2,30115
2250,11741;2,30419
2248,06625;2,30762
2246,0151;2,30779
2243,96394;2,30773
2241,91278;2,30994
2239,86163;2,31267
2237,81047;2,31564
2235,75932;2,31853
2233,70816;2,3201
2231,65701;2,32107
2229,60585;2,32302
2227,5547;2,32551
2225,50354;2,32737
2223,45239;2,32835
2221,40123;2,32809
2219,35008;2,32877
2217,29892;2,33232
2215,24777;2,33641
2213,19661;2,33906
2211,14545;2,34187
2209,0943;2,34534
2207,04314;2,34633
2204,99199;2,34615
2202,94083;2,34918
2200,88968;2,35263
2198,83852;2,35313
2196,78737;2,35338
2194,73621;2,35439
2192,68506;2,35506
2190,6339;2,35507
2188,58275;2,35456
2186,53159;2,35393
2184,48044;2,35404
2182,42928;2,35658
2180,37812;2,35918
2178,32697;2,35847
2176,27581;2,35844
2174,22466;2,36312
2172,1735;2,36796
2170,12235;2,36952
2168,07119;2,37168
2166,02004;2,37571
2163,96888;2,38004
2161,91773;2,38565
2159,86657;2,39318
2157,81542;2,40199
2155,76426;2,41208
2153,71311;2,42122
2151,66195;2,4291
2149,61079;2,43901
2147,55964;2,44832
2145,50848;2,45126
2143,45733;2,45034
2141,40617;2,45136
2139,35502;2,45335
2137,30386;2,45472
2135,25271;2,45271
2133,20155;2,44537
2131,1504;2,43802
2129,09924;2,43161
2127,04809;2,42327
2124,99693;2,41343
2122,94578;2,40372
2120,89462;2,39549
2118,84346;2,38782
2116,79231;2,3804
2114,74115;2,37451
2112,69;2,37096
2110,63884;2,36988
2108,58769;2,36939
2106,53653;2,36726
2104,48538;2,36371
2102,43422;2,36009
2100,38307;2,3576
2098,33191;2,35724
2096,28076;2,35667
2094,2296;2,35421
2092,17844;2,3536
2090,12729;2,35575
2088,07613;2,35839
2086,02498;2,36007
2083,97382;2,36047
2081,92267;2,36194
2079,87151;2,36445
2077,82036;2,36514
2075,7692;2,36515
2073,71805;2,36589
2071,66689;2,36633
2069,61574;2,36725
2067,56458;2,36924
2065,51343;2,37115
2063,46227;2,37208
2061,41111;2,37221
2059,35996;2,37452
2057,3088;2,37875
2055,25765;2,38091
2053,20649;2,38034
2051,15534;2,37937
2049,10418;2,3803
2047,05303;2,38315
2045,00187;2,3854
2042,95072;2,38522
2040,89956;2,38532
2038,84841;2,38934
2036,79725;2,39479
2034,7461;2,39895
2032,69494;2,40427
2030,64378;2,41221
2028,59263;2,42094
2026,54147;2,43159
2024,49032;2,447
2022,43916;2,46763
2020,38801;2,49119
2018,33685;2,51158
2016,2857;2,52318
2014,23454;2,52517
2012,18339;2,51829
2010,13223;2,50442
2008,08108;2,48735
2006,02992;2,46997
2003,97877;2,45385
2001,92761;2,44055
1999,87645;2,42968
1997,8253;2,42182
1995,77414;2,4199
1993,72299;2,42295
1991,67183;2,42646
1989,62068;2,42665
1987,56952;2,4242
1985,51837;2,42431
1983,46721;2,4252
1981,41606;2,42553
1979,3649;2,42695
1977,31375;2,4282
1975,26259;2,4283
1973,21144;2,42823
1971,16028;2,4299
1969,10912;2,43607
1967,05797;2,44601
1965,00681;2,45721
1962,95566;2,46726
1960,9045;2,47233
1958,85335;2,47022
1956,80219;2,46384
1954,75104;2,45703
1952,69988;2,45335
1950,64873;2,45203
1948,59757;2,45074
1946,54642;2,45268
1944,49526;2,4581
1942,44411;2,46069
1940,39295;2,46075
1938,34179;2,45924
1936,29064;2,45813
1934,23948;2,45882
1932,18833;2,46168
1930,13717;2,46623
1928,08602;2,47083
1926,03486;2,47461
1923,98371;2,47699
1921,93255;2,48078
1919,8814;2,48276
1917,83024;2,48028
1915,77909;2,48207
1913,72793;2,48647
1911,67678;2,48971
1909,62562;2,49063
1907,57446;2,49132
1905,52331;2,49283
1903,47215;2,49567
1901,421;2,50003
1899,36984;2,50419
1897,31869;2,50655
1895,26753;2,50777
1893,21638;2,51094
1891,16522;2,51528
1889,11407;2,5203
1887,06291;2,52467
1885,01176;2,52546
1882,9606;2,52724
1880,90945;2,53257
1878,85829;2,5403
1876,80713;2,54744
1874,75598;2,55343
1872,70482;2,56217
1870,65367;2,57033
1868,60251;2,57369
1866,55136;2,57587
1864,5002;2,57726
1862,44905;2,5784
1860,39789;2,58224
1858,34674;2,59024
1856,29558;2,59999
1854,24443;2,60856
1852,19327;2,61551
1850,14212;2,62389
1848,09096;2,63687
1846,0398;2,64656
1843,98865;2,64636
1841,93749;2,64837
1839,88634;2,65739
1837,83518;2,67254
1835,78403;2,68897
1833,73287;2,70218
1831,68172;2,71413
1829,63056;2,7278
1827,57941;2,74109
1825,52825;2,75019
1823,4771;2,76298
1821,42594;2,77717
1819,37478;2,78537
1817,32363;2,79013
1815,27247;2,80063
1813,22132;2,8183
1811,17016;2,8403
1809,11901;2,87135
1807,06785;2,9113
1805,0167;2,95301
1802,96554;2,99202
1800,91439;3,02358
1798,86323;3,04265
1796,81208;3,05312
1794,76092;3,05693
1792,70977;3,04255
1790,65861;3,01417
1788,60745;2,99219
1786,5563;2,97696
1784,50514;2,95636
1782,45399;2,92701
1780,40283;2,89806
1778,35168;2,88272
1776,30052;2,88079
1774,24937;2,88362
1772,19821;2,88752
1770,14706;2,8926
1768,0959;2,8904
1766,04475;2,88673
1763,99359;2,88714
1761,94244;2,89243
1759,89128;2,90185
1757,84012;2,90963
1755,78897;2,92167
1753,73781;2,93506
1751,68666;2,94287
1749,6355;2,95278
1747,58435;2,96142
1745,53319;2,96367
1743,48204;2,96489
1741,43088;2,96934
1739,37973;2,97664
1737,32857;2,98678
1735,27742;2,98778
1733,22626;2,98689
1731,17511;2,98652
1729,12395;2,97837
1727,07279;2,97468
1725,02164;2,97794
1722,97048;2,98574
1720,91933;3,00038
1718,86817;3,02312
1716,81702;3,04581
1714,76586;3,04376
1712,71471;3,03421
1710,66355;3,04441
1708,6124;3,06232
1706,56124;3,06181
1704,51009;3,05058
1702,45893;3,04965
1700,40778;3,06949
1698,35662;3,10292
1696,30546;3,10422
1694,25431;3,09585
1692,20315;3,09555
1690,152;3,10323
1688,10084;3,12899
1686,04969;3,14719
1683,99853;3,1424
1681,94738;3,14531
1679,89622;3,15477
1677,84507;3,15767
1675,79391;3,1504
1673,74276;3,15923
1671,6916;3,18467
1669,64045;3,20013
1667,58929;3,20723
1665,53813;3,21367
1663,48698;3,2188
1661,43582;3,22915
1659,38467;3,2433
1657,33351;3,26586
1655,28236;3,28817
1653,2312;3,2784
1651,18005;3,26178
1649,12889;3,27092
1647,07774;3,28418
1645,02658;3,27459
1642,97543;3,25632
1640,92427;3,25506
1638,87312;3,26542
1636,82196;3,26962
1634,7708;3,27548
1632,71965;3,28645
1630,66849;3,28695
1628,61734;3,28421
1626,56618;3,29242
1624,51503;3,30416
1622,46387;3,31757
1620,41272;3,33174
1618,36156;3,32761
1616,31041;3,31407
1614,25925;3,30809
1612,2081;3,29178
1610,15694;3,27325
1608,10579;3,28128
1606,05463;3,31061
1604,00347;3,3289
1601,95232;3,32178
1599,90116;3,30294
1597,85001;3,28943
1595,79885;3,2868
1593,7477;3,29191
1591,69654;3,29672
1589,64539;3,29071
1587,59423;3,26787
1585,54308;3,23565
1583,49192;3,20902
1581,44077;3,19035
1579,38961;3,16362
1577,33846;3,10998
1575,2873;3,04917
1573,23614;3,01074
1571,18499;2,97693
1569,13383;2,9393
1567,08268;2,90242
1565,03152;2,86452
1562,98037;2,83904
1560,92921;2,81238
1558,87806;2,76421
1556,8269;2,71098
1554,77575;2,65065
1552,72459;2,59273
1550,67344;2,54685
1548,62228;2,51466
1546,57113;2,4939
1544,51997;2,4792
1542,46881;2,46138
1540,41766;2,425
1538,3665;2,39291
1536,31535;2,37703
1534,26419;2,35801
1532,21304;2,34333
1530,16188;2,33548
1528,11073;2,32855
1526,05957;2,32737
1524,00842;2,32711
1521,95726;2,3182
1519,90611;2,31394
1517,85495;2,30976
1515,80379;2,30058
1513,75264;2,29574
1511,70148;2,29969
1509,65033;2,30717
1507,59917;2,29752
1505,54802;2,28018
1503,49686;2,27319
1501,44571;2,26763
1499,39455;2,26208
1497,3434;2,25709
1495,29224;2,25707
1493,24109;2,26287
1491,18993;2,26488
1489,13878;2,26231
1487,08762;2,25483
1485,03646;2,24568
1482,98531;2,23829
1480,93415;2,23484
1478,883;2,23693
1476,83184;2,24101
1474,78069;2,24195
1472,72953;2,23411
1470,67838;2,22729
1468,62722;2,22275
1466,57607;2,21409
1464,52491;2,20713
1462,47376;2,2112
1460,4226;2,21897
1458,37145;2,21872
1456,32029;2,2114
1454,26913;2,20387
1452,21798;2,19368
1450,16682;2,18479
1448,11567;2,17744
1446,06451;2,1721
1444,01336;2,16771
1441,9622;2,16586
1439,91105;2,16739
1437,85989;2,16396
1435,80874;2,15889
1433,75758;2,15524
1431,70643;2,14461
1429,65527;2,13163
1427,60412;2,12202
1425,55296;2,11294
1423,5018;2,10505
1421,45065;2,09535
1419,39949;2,07626
1417,34834;2,0558
1415,29718;2,03439
1413,24603;2,0111
1411,19487;1,99128
1409,14372;1,97979
1407,09256;1,97749
1405,04141;1,98402
1402,99025;1,99932
1400,9391;2,01643
1398,88794;2,0332
1396,83679;2,04929
1394,78563;2,06018
1392,73447;2,07273
1390,68332;2,08951
1388,63216;2,10891
1386,58101;2,13095
1384,52985;2,15145
1382,4787;2,16754
1380,42754;2,18346
1378,37639;2,20119
1376,32523;2,21872
1374,27408;2,23267
1372,22292;2,24376
1370,17177;2,25244
1368,12061;2,26305
1366,06946;2,27762
1364,0183;2,28993
1361,96714;2,29916
1359,91599;2,30629
1357,86483;2,31002
1355,81368;2,31359
1353,76252;2,3191
1351,71137;2,32488
1349,66021;2,32935
1347,60906;2,33295
1345,5579;2,3368
1343,50675;2,34424
1341,45559;2,3568
1339,40444;2,36995
1337,35328;2,37764
1335,30213;2,37917
1333,25097;2,38027
1331,19981;2,38387
1329,14866;2,38727
1327,0975;2,38846
1325,04635;2,3908
1322,99519;2,39701
1320,94404;2,40378
1318,89288;2,40752
1316,84173;2,40993
1314,79057;2,41353
1312,73942;2,4192
1310,68826;2,42487
1308,63711;2,42698
1306,58595;2,42728
1304,5348;2,42851
1302,48364;2,4296
1300,43248;2,42959
1298,38133;2,4301
1296,33017;2,43123
1294,27902;2,43187
1292,22786;2,43431
1290,17671;2,43974
1288,12555;2,44407
1286,0744;2,44653
1284,02324;2,45135
1281,97209;2,45675
1279,92093;2,45858
1277,86978;2,45932
1275,81862;2,46294
1273,76747;2,46964
1271,71631;2,47558
1269,66515;2,47772
1267,614;2,47885
1265,56284;2,48098
1263,51169;2,48183
1261,46053;2,48268
1259,40938;2,48667
1257,35822;2,49188
1255,30707;2,49307
1253,25591;2,49061
1251,20476;2,48969
1249,1536;2,49132
1247,10245;2,49436
1245,05129;2,49858
1243,00013;2,50248
1240,94898;2,5059
1238,89782;2,50915
1236,84667;2,51037
1234,79551;2,51008
1232,74436;2,51072
1230,6932;2,51217
1228,64205;2,51501
1226,59089;2,51913
1224,53974;2,52131
1222,48858;2,52151
1220,43743;2,52166
1218,38627;2,52234
1216,33512;2,52445
1214,28396;2,52745
1212,2328;2,52879
1210,18165;2,53018
1208,13049;2,53491
1206,07934;2,53989
1204,02818;2,54171
1201,97703;2,54425
1199,92587;2,55151
1197,87472;2,55949
1195,82356;2,56315
1193,77241;2,56094
1191,72125;2,55946
1189,6701;2,56608
1187,61894;2,57211
1185,56779;2,5732
1183,51663;2,57467
1181,46547;2,57626
1179,41432;2,57976
1177,36316;2,58309
1175,31201;2,58084
1173,26085;2,57807
1171,2097;2,58147
1169,15854;2,58792
1167,10739;2,59004
1165,05623;2,58712
1163,00508;2,58353
1160,95392;2,58328
1158,90277;2,5876
1156,85161;2,59172
1154,80046;2,59274
1152,7493;2,59284
1150,69814;2,59396
1148,64699;2,59547
1146,59583;2,59351
1144,54468;2,58851
1142,49352;2,5825
1140,44237;2,57602
1138,39121;2,57618
1136,34006;2,58374
1134,2889;2,58786
1132,23775;2,58872
1130,18659;2,59432
1128,13544;2,60069
1126,08428;2,60115
1124,03313;2,60157
1121,98197;2,60987
1119,93081;2,62006
1117,87966;2,62335
1115,8285;2,62399
1113,77735;2,62624
1111,72619;2,62791
1109,67504;2,63005
1107,62388;2,63201
1105,57273;2,63312
1103,52157;2,63746
1101,47042;2,64122
1099,41926;2,63868
1097,36811;2,63469
1095,31695;2,63339
1093,2658;2,63339
1091,21464;2,63768
1089,16348;2,64642
1087,11233;2,65029
1085,06117;2,64867
1083,01002;2,64756
1080,95886;2,64365
1078,90771;2,63585
1076,85655;2,62969
1074,8054;2,63161
1072,75424;2,63965
1070,70309;2,64161
1068,65193;2,63428
1066,60078;2,62666
1064,54962;2,62484
1062,49847;2,62701
1060,44731;2,62858
1058,39615;2,63282
1056,345;2,6417
1054,29384;2,64903
1052,24269;2,65285
1050,19153;2,65237
1048,14038;2,64297
1046,08922;2,6317
1044,03807;2,63095
1041,98691;2,63705
1039,93576;2,64051
1037,8846;2,63954
1035,83345;2,63509
1033,78229;2,63101
1031,73114;2,62894
1029,67998;2,62603
1027,62882;2,626
1025,57767;2,63092
1023,52651;2,6352
1021,47536;2,63536
1019,4242;2,63241
1017,37305;2,6298
1015,32189;2,62687
1013,27074;2,6177
1011,21958;2,60664
1009,16843;2,6024
1007,11727;2,59818
1005,06612;2,59266
1003,01496;2,59477
1000,96381;2,59879
998,91265;2,59617
996,86149;2,59138
994,81034;2,58847
992,75918;2,58606
990,70803;2,58347
988,65687;2,57578
986,60572;2,56505
984,55456;2,56181
982,50341;2,56617
980,45225;2,5725
978,4011;2,57767
976,34994;2,57821
974,29879;2,57292
972,24763;2,56781
970,19647;2,57058
968,14532;2,58035
966,09416;2,59056
964,04301;2,59549
961,99185;2,59459
959,9407;2,59352
957,88954;2,59223
955,83839;2,58866
953,78723;2,58749
951,73608;2,588
949,68492;2,58413
947,63377;2,57782
945,58261;2,5773
943,53146;2,58327
941,4803;2,58817
939,42914;2,58795
937,37799;2,58524
935,32683;2,58383
933,27568;2,58507
931,22452;2,58417
929,17337;2,57685
927,12221;2,5701
925,07106;2,5742
923,0199;2,58545
920,96875;2,58709
918,91759;2,58003
916,86644;2,57738
914,81528;2,57996
912,76413;2,58863
910,71297;2,60044
908,66181;2,60502
906,61066;2,60687
904,5595;2,61019
902,50835;2,60662
900,45719;2,60024
898,40604;2,59936
896,35488;2,60152
894,30373;2,59981
892,25257;2,58766
890,20142;2,56962
888,15026;2,56895
886,09911;2,6093
884,04795;2,67608
881,9968;2,69851
879,94564;2,62311
877,89448;2,49231
875,84333;2,36293
873,79217;2,2578
871,74102;2,20342
869,68986;2,2236
867,63871;2,30066
865,58755;2,37981
863,5364;2,42773
861,48524;2,45223
859,43409;2,46809
857,38293;2,48128
855,33178;2,49191
853,28062;2,50806
851,22947;2,53457
849,17831;2,55185
847,12715;2,54221
845,076;2,52127
843,02484;2,50938
840,97369;2,50929
838,92253;2,51514
836,87138;2,52475
834,82022;2,53412
832,76907;2,53605
830,71791;2,53267
828,66676;2,5289
826,6156;2,52996
824,56445;2,5353
822,51329;2,54003
820,46214;2,54923
818,41098;2,55752
816,35982;2,55448
814,30867;2,55472
812,25751;2,5664
810,20636;2,57783
808,1552;2,58801
806,10405;2,59986
804,05289;2,60341
802,00174;2,59622
799,95058;2,59046
797,89943;2,59703
795,84827;2,61036
793,79712;2,6154
791,74596;2,61465
789,69481;2,61438
787,64365;2,61081
785,59249;2,6092
783,54134;2,61906
781,49018;2,62879
779,43903;2,6289
777,38787;2,63173
775,33672;2,63833
773,28556;2,64259
771,23441;2,64685
769,18325;2,64805
767,1321;2,64604
765,08094;2,64377
763,02979;2,643
760,97863;2,64347
758,92748;2,64011
756,87632;2,62955
754,82516;2,61678
752,77401;2,61514
750,72285;2,62932
748,6717;2,64253
746,62054;2,64973
744,56939;2,66006
742,51823;2,66939
740,46708;2,67368
738,41592;2,67687
736,36477;2,68642
734,31361;2,70987
732,26246;2,73695
730,2113;2,75227
728,16015;2,75899
726,10899;2,76508
724,05783;2,77202
722,00668;2,79356
719,95552;2,83953
717,90437;2,88284
715,85321;2,86323
713,80206;2,77138
711,7509;2,67863
709,69975;2,63272
707,64859;2,62802
705,59744;2,64381
703,54628;2,66254
701,49513;2,67432
699,44397;2,67564
697,39281;2,66831
695,34166;2,65967
693,2905;2,65343
691,23935;2,64855
689,18819;2,64959
687,13704;2,66155
685,08588;2,68222
683,03473;2,69703
680,98357;2,68891
678,93242;2,66632
676,88126;2,65134
674,83011;2,65622
672,77895;2,67575
670,7278;2,68797
668,67664;2,68185
666,62548;2,67672
664,57433;2,68917
662,52317;2,70689
660,47202;2,70942
658,42086;2,69385
656,36971;2,67771
654,31855;2,67463
652,2674;2,68218
650,21624;2,69035
648,16509;2,69486
646,11393;2,70401
644,06278;2,72215
642,01162;2,73886
639,96047;2,74419
637,90931;2,7356
635,85815;2,72276
633,807;2,72332
631,75584;2,72494
629,70469;2,71008
627,65353;2,69788
625,60238;2,71555
623,55122;2,74066
621,50007;2,75133
619,44891;2,7666
617,39776;2,77805
615,3466;2,7594
613,29545;2,74488
611,24429;2,77233
609,19314;2,80328
607,14198;2,79509
605,09082;2,78093
603,03967;2,78662
600,98851;2,80257
598,93736;2,81606
596,8862;2,81607
594,83505;2,79984
592,78389;2,77596
590,73274;2,76676
588,68158;2,7825
586,63043;2,81704
584,57927;2,83573
582,52812;2,81347
580,47696;2,78003
578,42581;2,77759
576,37465;2,79939
574,32349;2,81249
572,27234;2,80257
570,22118;2,77589
568,17003;2,74318
566,11887;2,73827
564,06772;2,7917
562,01656;2,84523
559,96541;2,83841
557,91425;2,83926
555,8631;2,855
553,81194;2,84311
551,76079;2,84041
549,70963;2,85743
547,65848;2,84975
545,60732;2,83113
543,55616;2,81952
541,50501;2,82261
539,45385;2,842
537,4027;2,85965
535,35154;2,85982
533,30039;2,86376
531,24923;2,88285
529,19808;2,88345
527,14692;2,85334
525,09577;2,83871
523,04461;2,85469
520,99346;2,84075
518,9423;2,81195
516,89115;2,84639
514,83999;2,90733
512,78883;2,90459
510,73768;2,8814
508,68652;2,92141
506,63537;3,00074
504,58421;3,03942
502,53306;3,01462
500,4819;2,95238
498,43075;2,92803
496,37959;3,00139
494,32844;3,08192
492,27728;3,02078
490,22613;2,93021
488,17497;2,90323
486,12382;2,93426
484,07266;2,99688
482,0215;3,06148
479,97035;3,12522
477,91919;3,21413
475,86804;3,20418
473,81688;3,13925
471,76573;3,16344
469,71457;3,18987
467,66342;3,12277
465,61226;3,03313
463,56111;3,02302
461,50995;3,09071
459,4588;3,13083
457,40764;3,06193
455,35649;2,98308
453,30533;3,0605
451,25417;3,16161
449,20302;3,12484
447,15186;3,18605
445,10071;3,37761
443,04955;3,34154
440,9984;3,18755
438,94724;3,18014
436,89609;3,14468
434,84493;3,05707
432,79378;3,00103
430,74262;3,06346
428,69147;3,18106
426,64031;3,16943
424,58916;3,12399
422,538;2,98503
420,48684;2,8442
418,43569;2,83477
416,38453;2,91205
414,33338;2,9425
412,28222;2,95748
410,23107;2,94686
408,17991;2,90072
406,12876;2,81681
404,0776;2,74487
402,02645;2,79988
399,97529;2,9871
