3997,70175;2,65992
3995,6506;2,6549
3993,59944;2,65501
3991,54829;2,65478
3989,49713;2,65116
3987,44598;2,6492
3985,39482;2,65358
3983,34367;2,66023
3981,29251;2,65921
3979,24136;2,66164
3977,1902;2,66813
3975,13905;2,66506
3973,08789;2,6631
3971,03673;2,66732
3968,98558;2,66551
3966,93442;2,65669
3964,88327;2,65389
3962,83211;2,66006
3960,78096;2,66477
3958,7298;2,66847
3956,67865;2,67076
3954,62749;2,66625
3952,57634;2,66589
3950,52518;2,67221
3948,47403;2,66734
3946,42287;2,65562
3944,37172;2,65311
3942,32056;2,66515
3940,2694;2,68519
3938,21825;2,68563
3936,16709;2,6686
3934,11594;2,66677
3932,06478;2,67911
3930,01363;2,68111
3927,96247;2,67365
3925,91132;2,67342
3923,86016;2,67923
3921,80901;2,67649
3919,75785;2,66996
3917,7067;2,66819
3915,65554;2,66477
3913,60439;2,66072
3911,55323;2,65971
3909,50207;2,65883
3907,45092;2,65679
3905,39976;2,65532
3903,34861;2,65723
3901,29745;2,66076
3899,2463;2,65339
3897,19514;2,64524
3895,14399;2,65127
3893,09283;2,65854
3891,04168;2,65581
3888,99052;2,65675
3886,93937;2,65894
3884,88821;2,65468
3882,83706;2,6606
3880,7859;2,67177
3878,73474;2,66701
3876,68359;2,65738
3874,63243;2,65907
3872,58128;2,67331
3870,53012;2,6796
3868,47897;2,66866
3866,42781;2,65583
3864,37666;2,64622
3862,3255;2,64597
3860,27435;2,65197
3858,22319;2,65995
3856,17204;2,67747
3854,12088;2,69719
3852,06973;2,68531
3850,01857;2,662
3847,96741;2,65548
3845,91626;2,6621
3843,8651;2,66818
3841,81395;2,66793
3839,76279;2,66332
3837,71164;2,65395
3835,66048;2,64362
3833,60933;2,6356
3831,55817;2,62941
3829,50702;2,6302
3827,45586;2,63625
3825,40471;2,64587
3823,35355;2,65985
3821,3024;2,66252
3819,25124;2,65738
3817,20008;2,66152
3815,14893;2,65872
3813,09777;2,65625
3811,04662;2,66848
3808,99546;2,67561
3806,94431;2,66014
3804,89315;2,64568
3802,842;2,64614
3800,79084;2,64529
3798,73969;2,64148
3796,68853;2,6392
3794,63738;2,64031
3792,58622;2,64811
3790,53506;2,65311
3788,48391;2,65288
3786,43275;2,65195
3784,3816;2,6453
3782,33044;2,63918
3780,27929;2,63998
3778,22813;2,64301
3776,17698;2,6464
3774,12582;2,64698
3772,07467;2,64332
3770,02351;2,63586
3767,97236;2,63294
3765,9212;2,63899
3763,87005;2,64857
3761,81889;2,65703
3759,76773;2,65451
3757,71658;2,64442
3755,66542;2,64363
3753,61427;2,64907
3751,56311;2,65555
3749,51196;2,66527
3747,4608;2,67184
3745,40965;2,67126
3743,35849;2,66987
3741,30734;2,67528
3739,25618;2,6833
3737,20503;2,68305
3735,15387;2,67342
3733,10272;2,67203
3731,05156;2,67995
3729,0004;2,68422
3726,94925;2,67673
3724,89809;2,66232
3722,84694;2,66124
3720,79578;2,66954
3718,74463;2,66407
3716,69347;2,65572
3714,64232;2,66637
3712,59116;2,68604
3710,54001;2,68979
3708,48885;2,68195
3706,4377;2,68463
3704,38654;2,69668
3702,33539;2,69652
3700,28423;2,69084
3698,23307;2,70568
3696,18192;2,72913
3694,13076;2,73763
3692,07961;2,73308
3690,02845;2,72709
3687,9773;2,72191
3685,92614;2,71797
3683,87499;2,71555
3681,82383;2,71492
3679,77268;2,71503
3677,72152;2,71288
3675,67037;2,71494
3673,61921;2,72739
3671,56806;2,73313
3669,5169;2,72956
3667,46574;2,72556
3665,41459;2,72911
3663,36343;2,7458
3661,31228;2,7652
3659,26112;2,77265
3657,20997;2,77338
3655,15881;2,77939
3653,10766;2,78876
3651,0565;2,78942
3649,00535;2,78105
3646,95419;2,77543
3644,90304;2,77621
3642,85188;2,78291
3640,80073;2,79219
3638,74957;2,79628
3636,69841;2,79806
3634,64726;2,80684
3632,5961;2,81468
3630,54495;2,81858
3628,49379;2,82313
3626,44264;2,82316
3624,39148;2,82458
3622,34033;2,82909
3620,28917;2,82795
3618,23802;2,81738
3616,18686;2,81556
3614,13571;2,82417
3612,08455;2,82705
3610,0334;2,82518
3607,98224;2,83548
3605,93108;2,85412
3603,87993;2,86188
3601,82877;2,86282
3599,77762;2,86469
3597,72646;2,86198
3595,67531;2,85785
3593,62415;2,87001
3591,573;2,89833
3589,52184;2,90027
3587,47069;2,86512
3585,41953;2,85764
3583,36838;2,88706
3581,31722;2,91005
3579,26607;2,9104
3577,21491;2,90222
3575,16375;2,89664
3573,1126;2,89766
3571,06144;2,91132
3569,01029;2,93109
3566,95913;2,93369
3564,90798;2,91469
3562,85682;2,90741
3560,80567;2,91526
3558,75451;2,92427
3556,70336;2,93566
3554,6522;2,93712
3552,60105;2,91835
3550,54989;2,90611
3548,49874;2,91285
3546,44758;2,9204
3544,39642;2,91664
3542,34527;2,90808
3540,29411;2,90177
3538,24296;2,90415
3536,1918;2,9116
3534,14065;2,91677
3532,08949;2,92454
3530,03834;2,93458
3527,98718;2,93515
3525,93603;2,9258
3523,88487;2,91734
3521,83372;2,91638
3519,78256;2,9168
3517,73141;2,90789
3515,68025;2,89237
3513,62909;2,88733
3511,57794;2,9059
3509,52678;2,92421
3507,47563;2,91646
3505,42447;2,91156
3503,37332;2,92725
3501,32216;2,94418
3499,27101;2,94691
3497,21985;2,94665
3495,1687;2,94608
3493,11754;2,9383
3491,06639;2,93198
3489,01523;2,93699
3486,96407;2,93613
3484,91292;2,91721
3482,86176;2,90877
3480,81061;2,92891
3478,75945;2,95985
3476,7083;2,97959
3474,65714;2,97581
3472,60599;2,95717
3470,55483;2,94546
3468,50368;2,94118
3466,45252;2,94138
3464,40137;2,9475
3462,35021;2,9527
3460,29906;2,95705
3458,2479;2,96613
3456,19674;2,97227
3454,14559;2,96387
3452,09443;2,94528
3450,04328;2,92819
3447,99212;2,91332
3445,94097;2,91198
3443,88981;2,92893
3441,83866;2,93327
3439,7875;2,91913
3437,73635;2,91556
3435,68519;2,9306
3433,63404;2,95463
3431,58288;2,96582
3429,53173;2,94345
3427,48057;2,91771
3425,42941;2,91885
3423,37826;2,92914
3421,3271;2,93259
3419,27595;2,93766
3417,22479;2,93759
3415,17364;2,93233
3413,12248;2,93399
3411,07133;2,93731
3409,02017;2,93916
3406,96902;2,94447
3404,91786;2,95764
3402,86671;2,97553
3400,81555;2,97217
3398,7644;2,94977
3396,71324;2,9413
3394,66208;2,93167
3392,61093;2,90588
3390,55977;2,89401
3388,50862;2,90438
3386,45746;2,91526
3384,40631;2,91862
3382,35515;2,92332
3380,304;2,93354
3378,25284;2,94495
3376,20169;2,94955
3374,15053;2,94465
3372,09938;2,93895
3370,04822;2,93978
3367,99707;2,94067
3365,94591;2,93444
3363,89475;2,92771
3361,8436;2,92982
3359,79244;2,9339
3357,74129;2,93451
3355,69013;2,94301
3353,63898;2,95224
3351,58782;2,95098
3349,53667;2,94547
3347,48551;2,93263
3345,43436;2,91306
3343,3832;2,91114
3341,33205;2,93366
3339,28089;2,94606
3337,22974;2,92899
3335,17858;2,91229
3333,12742;2,91646
3331,07627;2,93239
3329,02511;2,94301
3326,97396;2,9344
3324,9228;2,91614
3322,87165;2,90909
3320,82049;2,91135
3318,76934;2,90465
3316,71818;2,89452
3314,66703;2,89894
3312,61587;2,9101
3310,56472;2,91925
3308,51356;2,92375
3306,46241;2,9114
3304,41125;2,90273
3302,36009;2,923
3300,30894;2,94082
3298,25778;2,92743
3296,20663;2,91239
3294,15547;2,91176
3292,10432;2,91681
3290,05316;2,92492
3288,00201;2,9303
3285,95085;2,9272
3283,8997;2,92265
3281,84854;2,92376
3279,79739;2,9266
3277,74623;2,92844
3275,69508;2,9334
3273,64392;2,92653
3271,59276;2,90407
3269,54161;2,89182
3267,49045;2,90282
3265,4393;2,91604
3263,38814;2,90677
3261,33699;2,8887
3259,28583;2,87557
3257,23468;2,86865
3255,18352;2,88255
3253,13237;2,90568
3251,08121;2,90477
3249,03006;2,89065
3246,9789;2,89056
3244,92775;2,90601
3242,87659;2,91334
3240,82543;2,90293
3238,77428;2,89791
3236,72312;2,90376
3234,67197;2,90609
3232,62081;2,91056
3230,56966;2,91909
3228,5185;2,91168
3226,46735;2,89107
3224,41619;2,8756
3222,36504;2,87163
3220,31388;2,87936
3218,26273;2,88802
3216,21157;2,88901
3214,16041;2,8894
3212,10926;2,88922
3210,0581;2,88589
3208,00695;2,88674
3205,95579;2,88962
3203,90464;2,88454
3201,85348;2,87607
3199,80233;2,86936
3197,75117;2,86753
3195,70002;2,87539
3193,64886;2,88562
3191,59771;2,89626
3189,54655;2,90163
3187,4954;2,88967
3185,44424;2,87304
3183,39308;2,8683
3181,34193;2,86915
3179,29077;2,86194
3177,23962;2,85528
3175,18846;2,86254
3173,13731;2,87226
3171,08615;2,87509
3169,035;2,87821
3166,98384;2,88096
3164,93269;2,87534
3162,88153;2,87175
3160,83038;2,87614
3158,77922;2,87368
3156,72807;2,86821
3154,67691;2,87697
3152,62575;2,89331
3150,5746;2,89066
3148,52344;2,87316
3146,47229;2,86274
3144,42113;2,85431
3142,36998;2,85187
3140,31882;2,86392
3138,26767;2,87106
3136,21651;2,86519
3134,16536;2,86686
3132,1142;2,87425
3130,06305;2,86707
3128,01189;2,85826
3125,96074;2,86282
3123,90958;2,86982
3121,85842;2,86937
3119,80727;2,86027
3117,75611;2,84905
3115,70496;2,84605
3113,6538;2,85261
3111,60265;2,86098
3109,55149;2,85994
3107,50034;2,85208
3105,44918;2,85228
3103,39803;2,85715
3101,34687;2,85246
3099,29572;2,84043
3097,24456;2,82918
3095,19341;2,82579
3093,14225;2,8328
3091,09109;2,84046
3089,03994;2,84465
3086,98878;2,84622
3084,93763;2,84119
3082,88647;2,83318
3080,83532;2,83044
3078,78416;2,8354
3076,73301;2,84453
3074,68185;2,85409
3072,6307;2,86126
3070,57954;2,85812
3068,52839;2,8451
3066,47723;2,83584
3064,42608;2,83369
3062,37492;2,83595
3060,32376;2,83534
3058,27261;2,82742
3056,22145;2,82498
3054,1703;2,82829
3052,11914;2,82463
3050,06799;2,8226
3048,01683;2,83439
3045,96568;2,84766
3043,91452;2,84763
3041,86337;2,83918
3039,81221;2,83213
3037,76106;2,82988
3035,7099;2,82865
3033,65875;2,82771
3031,60759;2,82771
3029,55643;2,82769
3027,50528;2,82939
3025,45412;2,82973
3023,40297;2,82432
3021,35181;2,81875
3019,30066;2,81659
3017,2495;2,81155
3015,19835;2,80846
3013,14719;2,81567
3011,09604;2,82691
3009,04488;2,83102
3006,99373;2,82639
3004,94257;2,82259
3002,89142;2,82043
3000,84026;2,81574
2998,7891;2,81538
2996,73795;2,82126
2994,68679;2,82708
2992,63564;2,83242
2990,58448;2,83855
2988,53333;2,84276
2986,48217;2,84525
2984,43102;2,84471
2982,37986;2,83811
2980,32871;2,83313
2978,27755;2,83355
2976,2264;2,8337
2974,17524;2,83133
2972,12409;2,83126
2970,07293;2,83555
2968,02177;2,83896
2965,97062;2,83609
2963,91946;2,82598
2961,86831;2,81991
2959,81715;2,82668
2957,766;2,83281
2955,71484;2,8314
2953,66369;2,83044
2951,61253;2,82992
2949,56138;2,82633
2947,51022;2,82459
2945,45907;2,82651
2943,40791;2,82773
2941,35675;2,82655
2939,3056;2,82446
2937,25444;2,8238
2935,20329;2,82269
2933,15213;2,82039
2931,10098;2,81845
2929,04982;2,82031
2926,99867;2,83012
2924,94751;2,83962
2922,89636;2,84164
2920,8452;2,84103
2918,79405;2,83828
2916,74289;2,83529
2914,69174;2,83394
2912,64058;2,82892
2910,58942;2,82073
2908,53827;2,8165
2906,48711;2,81322
2904,43596;2,80688
2902,3848;2,80936
2900,33365;2,82189
2898,28249;2,82811
2896,23134;2,82307
2894,18018;2,8142
2892,12903;2,80923
2890,07787;2,81059
2888,02672;2,81614
2885,97556;2,82259
2883,92441;2,82602
2881,87325;2,82389
2879,82209;2,82011
2877,77094;2,82101
2875,71978;2,82096
2873,66863;2,81531
2871,61747;2,81297
2869,56632;2,81494
2867,51516;2,8175
2865,46401;2,81962
2863,41285;2,81194
2861,3617;2,79999
2859,31054;2,79922
2857,25939;2,80025
2855,20823;2,79469
2853,15708;2,79599
2851,10592;2,80587
2849,05476;2,8084
2847,00361;2,79794
2844,95245;2,78875
2842,9013;2,78674
2840,85014;2,78076
2838,79899;2,76893
2836,74783;2,75714
2834,69668;2,74873
2832,64552;2,7479
2830,59437;2,75159
2828,54321;2,75448
2826,49206;2,75536
2824,4409;2,75168
2822,38975;2,74848
2820,33859;2,74779
2818,28743;2,74465
2816,23628;2,74307
2814,18512;2,74503
2812,13397;2,74543
2810,08281;2,74205
2808,03166;2,73721
2805,9805;2,73781
2803,92935;2,74364
2801,87819;2,74333
2799,82704;2,73669
2797,77588;2,73355
2795,72473;2,73377
2793,67357;2,73565
2791,62242;2,74003
2789,57126;2,73963
2787,5201;2,73327
2785,46895;2,73132
2783,41779;2,73122
2781,36664;2,72516
2779,31548;2,72034
2777,26433;2,72129
2775,21317;2,72279
2773,16202;2,72666
2771,11086;2,73221
2769,05971;2,73086
2767,00855;2,72543
2764,9574;2,72289
2762,90624;2,71977
2760,85509;2,71345
2758,80393;2,70868
2756,75277;2,7076
2754,70162;2,70831
2752,65046;2,70672
2750,59931;2,70425
2748,54815;2,70792
2746,497;2,71187
2744,44584;2,70597
2742,39469;2,69883
2740,34353;2,69925
2738,29238;2,70032
2736,24122;2,70301
2734,19007;2,70982
2732,13891;2,71271
2730,08776;2,71235
2728,0366;2,71239
2725,98544;2,71127
2723,93429;2,70941
2721,88313;2,70759
2719,83198;2,70411
2717,78082;2,70271
2715,72967;2,7102
2713,67851;2,72173
2711,62736;2,72412
2709,5762;2,71664
2707,52505;2,71048
2705,47389;2,71087
2703,42274;2,71085
2701,37158;2,70494
2699,32043;2,70063
2697,26927;2,70262
2695,21811;2,7057
2693,16696;2,7051
2691,1158;2,69895
2689,06465;2,69417
2687,01349;2,69523
2684,96234;2,69514
2682,91118;2,69353
2680,86003;2,6959
2678,80887;2,70075
2676,75772;2,70151
2674,70656;2,69528
2672,65541;2,69034
2670,60425;2,69194
2668,55309;2,69543
2666,50194;2,69797
2664,45078;2,69809
2662,39963;2,69724
2660,34847;2,69899
2658,29732;2,69938
2656,24616;2,69696
2654,19501;2,69543
2652,14385;2,6945
2650,0927;2,69427
2648,04154;2,69383
2645,99039;2,69374
2643,93923;2,69815
2641,88808;2,70217
2639,83692;2,70123
2637,78576;2,6999
2635,73461;2,69894
2633,68345;2,69833
2631,6323;2,70012
2629,58114;2,70507
2627,52999;2,70968
2625,47883;2,71011
2623,42768;2,7128
2621,37652;2,7172
2619,32537;2,715
2617,27421;2,71261
2615,22306;2,71846
2613,1719;2,72689
2611,12075;2,73307
2609,06959;2,73843
2607,01843;2,73647
2604,96728;2,72673
2602,91612;2,72269
2600,86497;2,72697
2598,81381;2,7301
2596,76266;2,73073
2594,7115;2,73472
2592,66035;2,7422
2590,60919;2,74804
2588,55804;2,74656
2586,50688;2,7403
2584,45573;2,73747
2582,40457;2,73619
2580,35342;2,73419
2578,30226;2,73387
2576,2511;2,73265
2574,19995;2,72852
2572,14879;2,72412
2570,09764;2,72212
2568,04648;2,72307
2565,99533;2,72755
2563,94417;2,73326
2561,89302;2,73637
2559,84186;2,73936
2557,79071;2,74366
2555,73955;2,74449
2553,6884;2,74155
2551,63724;2,73677
2549,58609;2,73031
2547,53493;2,72948
2545,48377;2,73824
2543,43262;2,74638
2541,38146;2,7459
2539,33031;2,74146
2537,27915;2,73884
2535,228;2,73803
2533,17684;2,74168
2531,12569;2,74956
2529,07453;2,75296
2527,02338;2,75274
2524,97222;2,75749
2522,92107;2,76438
2520,86991;2,76916
2518,81876;2,77377
2516,7676;2,77123
2514,71644;2,76046
2512,66529;2,75743
2510,61413;2,76383
2508,56298;2,76574
2506,51182;2,76259
2504,46067;2,75916
2502,40951;2,7542
2500,35836;2,75197
2498,3072;2,7512
2496,25605;2,74523
2494,20489;2,73676
2492,15374;2,7296
2490,10258;2,72598
2488,05143;2,72719
2486,00027;2,72909
2483,94911;2,72695
2481,89796;2,72223
2479,8468;2,7189
2477,79565;2,71621
2475,74449;2,70965
2473,69334;2,70421
2471,64218;2,7051
2469,59103;2,70089
2467,53987;2,69049
2465,48872;2,68579
2463,43756;2,68275
2461,38641;2,6774
2459,33525;2,67348
2457,2841;2,67175
2455,23294;2,6752
2453,18178;2,6798
2451,13063;2,67563
2449,07947;2,6689
2447,02832;2,66891
2444,97716;2,6705
2442,92601;2,66802
2440,87485;2,66458
2438,8237;2,66298
2436,77254;2,66201
2434,72139;2,66181
2432,67023;2,66127
2430,61908;2,65917
2428,56792;2,65763
2426,51677;2,65494
2424,46561;2,65017
2422,41445;2,64748
2420,3633;2,64655
2418,31214;2,64324
2416,26099;2,63949
2414,20983;2,64219
2412,15868;2,64963
2410,10752;2,65264
2408,05637;2,65076
2406,00521;2,6505
2403,95406;2,65085
2401,9029;2,64715
2399,85175;2,64266
2397,80059;2,64101
2395,74944;2,64122
2393,69828;2,64265
2391,64712;2,64293
2389,59597;2,63906
2387,54481;2,63438
2385,49366;2,63479
2383,4425;2,64114
2381,39135;2,64947
2379,34019;2,65483
2377,28904;2,6588
2375,23788;2,66085
2373,18673;2,65532
2371,13557;2,65815
2369,08442;2,68115
2367,03326;2,69653
2364,9821;2,689
2362,93095;2,68423
2360,87979;2,6898
2358,82864;2,68964
2356,77748;2,68055
2354,72633;2,67361
2352,67517;2,66296
2350,62402;2,65102
2348,57286;2,64896
2346,52171;2,65575
2344,47055;2,66394
2342,4194;2,66129
2340,36824;2,65316
2338,31709;2,65067
2336,26593;2,65229
2334,21477;2,6664
2332,16362;2,68356
2330,11246;2,67933
2328,06131;2,6672
2326,01015;2,66274
2323,959;2,66237
2321,90784;2,66202
2319,85669;2,65941
2317,80553;2,65578
2315,75438;2,65533
2313,70322;2,65445
2311,65207;2,65136
2309,60091;2,64979
2307,54976;2,64802
2305,4986;2,64554
2303,44744;2,64336
2301,39629;2,64266
2299,34513;2,64417
2297,29398;2,64501
2295,24282;2,64128
2293,19167;2,63548
2291,14051;2,63253
2289,08936;2,6303
2287,0382;2,62716
2284,98705;2,62542
2282,93589;2,62716
2280,88474;2,63077
2278,83358;2,63434
2276,78243;2,63653
2274,73127;2,63451
2272,68011;2,63189
2270,62896;2,63427
2268,5778;2,63698
2266,52665;2,63295
2264,47549;2,62962
2262,42434;2,63352
2260,37318;2,63687
2258,32203;2,63701
2256,27087;2,63819
2254,21972;2,63708
2252,16856;2,63224
2250,11741;2,63027
2248,06625;2,63132
2246,0151;2,63038
2243,96394;2,62947
2241,91278;2,63222
2239,86163;2,63651
2237,81047;2,63999
2235,75932;2,64127
2233,70816;2,64023
2231,65701;2,64043
2229,60585;2,64177
2227,5547;2,64033
2225,50354;2,63936
2223,45239;2,64172
2221,40123;2,64496
2219,35008;2,64849
2217,29892;2,65091
2215,24777;2,65095
2213,19661;2,64933
2211,14545;2,64759
2209,0943;2,64641
2207,04314;2,64529
2204,99199;2,6459
2202,94083;2,64929
2200,88968;2,65304
2198,83852;2,65655
2196,78737;2,65839
2194,73621;2,65467
2192,68506;2,65025
2190,6339;2,64755
2188,58275;2,64363
2186,53159;2,64382
2184,48044;2,64868
2182,42928;2,65061
2180,37812;2,65043
2178,32697;2,65278
2176,27581;2,65466
2174,22466;2,65416
2172,1735;2,65347
2170,12235;2,65415
2168,07119;2,65397
2166,02004;2,64909
2163,96888;2,64626
2161,91773;2,65349
2159,86657;2,66508
2157,81542;2,67067
2155,76426;2,66726
2153,71311;2,66177
2151,66195;2,66278
2149,61079;2,6719
2147,55964;2,68285
2145,50848;2,68675
2143,45733;2,68489
2141,40617;2,68517
2139,35502;2,68522
2137,30386;2,68083
2135,25271;2,67858
2133,20155;2,68053
2131,1504;2,67796
2129,09924;2,67084
2127,04809;2,6673
2124,99693;2,66581
2122,94578;2,66409
2120,89462;2,66399
2118,84346;2,66088
2116,79231;2,6556
2114,74115;2,65355
2112,69;2,65389
2110,63884;2,65725
2108,58769;2,66081
2106,53653;2,65947
2104,48538;2,65678
2102,43422;2,65558
2100,38307;2,65308
2098,33191;2,64958
2096,28076;2,65017
2094,2296;2,65305
2092,17844;2,65324
2090,12729;2,65544
2088,07613;2,65992
2086,02498;2,66135
2083,97382;2,66208
2081,92267;2,66355
2079,87151;2,6647
2077,82036;2,66478
2075,7692;2,66294
2073,71805;2,6623
2071,66689;2,66215
2069,61574;2,65846
2067,56458;2,65446
2065,51343;2,65295
2063,46227;2,65213
2061,41111;2,65395
2059,35996;2,65877
2057,3088;2,6624
2055,25765;2,66379
2053,20649;2,66308
2051,15534;2,66046
2049,10418;2,65944
2047,05303;2,66277
2045,00187;2,66897
2042,95072;2,67315
2040,89956;2,67201
2038,84841;2,66979
2036,79725;2,67376
2034,7461;2,68402
2032,69494;2,69311
2030,64378;2,70104
2028,59263;2,71703
2026,54147;2,74292
2024,49032;2,77396
2022,43916;2,80475
2020,38801;2,83055
2018,33685;2,84858
2016,2857;2,85063
2014,23454;2,83312
2012,18339;2,80534
2010,13223;2,77981
2008,08108;2,76337
2006,02992;2,74873
2003,97877;2,72657
2001,92761;2,70333
1999,87645;2,68846
1997,8253;2,67839
1995,77414;2,66807
1993,72299;2,66117
1991,67183;2,65943
1989,62068;2,65845
1987,56952;2,65522
1985,51837;2,65163
1983,46721;2,64877
1981,41606;2,6464
1979,3649;2,64771
1977,31375;2,65221
1975,26259;2,65517
1973,21144;2,65423
1971,16028;2,65302
1969,10912;2,65627
1967,05797;2,65814
1965,00681;2,65655
1962,95566;2,65741
1960,9045;2,65787
1958,85335;2,65445
1956,80219;2,65069
1954,75104;2,65094
1952,69988;2,6511
1950,64873;2,64784
1948,59757;2,64656
1946,54642;2,64966
1944,49526;2,6557
1942,44411;2,66231
1940,39295;2,66671
1938,34179;2,66674
1936,29064;2,66135
1934,23948;2,65545
1932,18833;2,65541
1930,13717;2,65874
1928,08602;2,65987
1926,03486;2,65974
1923,98371;2,66197
1921,93255;2,66768
1919,8814;2,6731
1917,83024;2,67256
1915,77909;2,66555
1913,72793;2,66044
1911,67678;2,66097
1909,62562;2,663
1907,57446;2,66392
1905,52331;2,66207
1903,47215;2,65759
1901,421;2,65605
1899,36984;2,66223
1897,31869;2,67134
1895,26753;2,67312
1893,21638;2,66804
1891,16522;2,66436
1889,11407;2,66421
1887,06291;2,66623
1885,01176;2,66759
1882,9606;2,66555
1880,90945;2,66449
1878,85829;2,66881
1876,80713;2,67369
1874,75598;2,67533
1872,70482;2,67599
1870,65367;2,67472
1868,60251;2,67112
1866,55136;2,66912
1864,5002;2,67026
1862,44905;2,67538
1860,39789;2,68112
1858,34674;2,68138
1856,29558;2,67921
1854,24443;2,68039
1852,19327;2,68554
1850,14212;2,69124
1848,09096;2,69482
1846,0398;2,69879
1843,98865;2,70088
1841,93749;2,69971
1839,88634;2,7013
1837,83518;2,704
1835,78403;2,70377
1833,73287;2,7025
1831,68172;2,70441
1829,63056;2,71016
1827,57941;2,7147
1825,52825;2,71583
1823,4771;2,7166
1821,42594;2,71983
1819,37478;2,72855
1817,32363;2,73701
1815,27247;2,73748
1813,22132;2,73954
1811,17016;2,74855
1809,11901;2,75707
1807,06785;2,76382
1805,0167;2,77104
1802,96554;2,78054
1800,91439;2,7926
1798,86323;2,79687
1796,81208;2,79375
1794,76092;2,79554
1792,70977;2,79431
1790,65861;2,78138
1788,60745;2,7724
1786,5563;2,7716
1784,50514;2,77502
1782,45399;2,78009
1780,40283;2,78053
1778,35168;2,77552
1776,30052;2,77192
1774,24937;2,77076
1772,19821;2,772
1770,14706;2,77754
1768,0959;2,78273
1766,04475;2,78534
1763,99359;2,78639
1761,94244;2,78453
1759,89128;2,78256
1757,84012;2,78546
1755,78897;2,79548
1753,73781;2,81255
1751,68666;2,82598
1749,6355;2,82081
1747,58435;2,81097
1745,53319;2,81481
1743,48204;2,82427
1741,43088;2,82785
1739,37973;2,82795
1737,32857;2,83568
1735,27742;2,85057
1733,22626;2,85281
1731,17511;2,84007
1729,12395;2,83206
1727,07279;2,83388
1725,02164;2,84137
1722,97048;2,85014
1720,91933;2,86546
1718,86817;2,89174
1716,81702;2,91041
1714,76586;2,90424
1712,71471;2,89751
1710,66355;2,90469
1708,6124;2,92073
1706,56124;2,92899
1704,51009;2,93277
1702,45893;2,94724
1700,40778;2,96488
1698,35662;2,97887
1696,30546;2,99203
1694,25431;2,99579
1692,20315;2,99971
1690,152;3,00646
1688,10084;3,00948
1686,04969;3,02066
1683,99853;3,04207
1681,94738;3,0389
1679,89622;3,02675
1677,84507;3,03317
1675,79391;3,05196
1673,74276;3,06011
1671,6916;3,05976
1669,64045;3,04867
1667,58929;3,02096
1665,53813;3,0051
1663,48698;3,00664
1661,43582;3,00982
1659,38467;3,0047
1657,33351;3,00155
1655,28236;3,00395
1653,2312;2,98908
1651,18005;2,97128
1649,12889;2,97765
1647,07774;2,97849
1645,02658;2,95588
1642,97543;2,93719
1640,92427;2,93278
1638,87312;2,93548
1636,82196;2,9364
1634,7708;2,926
1632,71965;2,91937
1630,66849;2,92795
1628,61734;2,93727
1626,56618;2,93404
1624,51503;2,92649
1622,46387;2,91695
1620,41272;2,91134
1618,36156;2,92017
1616,31041;2,93118
1614,25925;2,92897
1612,2081;2,92073
1610,15694;2,913
1608,10579;2,91371
1606,05463;2,91787
1604,00347;2,91249
1601,95232;2,9054
1599,90116;2,90708
1597,85001;2,91211
1595,79885;2,91486
1593,7477;2,91547
1591,69654;2,91411
1589,64539;2,91464
1587,59423;2,91944
1585,54308;2,91998
1583,49192;2,90965
1581,44077;2,89854
1579,38961;2,89755
1577,33846;2,89964
1575,2873;2,89688
1573,23614;2,8991
1571,18499;2,90402
1569,13383;2,89857
1567,08268;2,88278
1565,03152;2,87046
1562,98037;2,86768
1560,92921;2,87222
1558,87806;2,86181
1556,8269;2,83492
1554,77575;2,82923
1552,72459;2,83301
1550,67344;2,82781
1548,62228;2,81528
1546,57113;2,80911
1544,51997;2,80661
1542,46881;2,80399
1540,41766;2,80557
1538,3665;2,79901
1536,31535;2,79142
1534,26419;2,78815
1532,21304;2,78549
1530,16188;2,78508
1528,11073;2,78935
1526,05957;2,803
1524,00842;2,82183
1521,95726;2,82385
1519,90611;2,80391
1517,85495;2,79144
1515,80379;2,7868
1513,75264;2,78501
1511,70148;2,79444
1509,65033;2,81562
1507,59917;2,83141
1505,54802;2,81002
1503,49686;2,78745
1501,44571;2,77796
1499,39455;2,76894
1497,3434;2,76245
1495,29224;2,7627
1493,24109;2,76894
1491,18993;2,77944
1489,13878;2,78477
1487,08762;2,77824
1485,03646;2,76882
1482,98531;2,76582
1480,93415;2,77555
1478,883;2,79429
1476,83184;2,8084
1474,78069;2,80553
1472,72953;2,78598
1470,67838;2,77497
1468,62722;2,78123
1466,57607;2,78905
1464,52491;2,78687
1462,47376;2,78459
1460,4226;2,79315
1458,37145;2,80494
1456,32029;2,80003
1454,26913;2,78276
1452,21798;2,77258
1450,16682;2,77156
1448,11567;2,77167
1446,06451;2,76763
1444,01336;2,76245
1441,9622;2,75703
1439,91105;2,75091
1437,85989;2,74644
1435,80874;2,74524
1433,75758;2,74662
1431,70643;2,75208
1429,65527;2,75605
1427,60412;2,74916
1425,55296;2,74198
1423,5018;2,74319
1421,45065;2,74511
1419,39949;2,74094
1417,34834;2,7278
1415,29718;2,71406
1413,24603;2,70671
1411,19487;2,70468
1409,14372;2,70298
1407,09256;2,69992
1405,04141;2,69943
1402,99025;2,70441
1400,9391;2,71493
1398,88794;2,72702
1396,83679;2,73094
1394,78563;2,72435
1392,73447;2,7221
1390,68332;2,73294
1388,63216;2,74277
1386,58101;2,73859
1384,52985;2,73482
1382,4787;2,74162
1380,42754;2,75261
1378,37639;2,7633
1376,32523;2,76923
1374,27408;2,76712
1372,22292;2,75945
1370,17177;2,75356
1368,12061;2,75215
1366,06946;2,75141
1364,0183;2,75206
1361,96714;2,75738
1359,91599;2,76152
1357,86483;2,7597
1355,81368;2,75866
1353,76252;2,76141
1351,71137;2,7644
1349,66021;2,76864
1347,60906;2,77367
1345,5579;2,77653
1343,50675;2,78215
1341,45559;2,79044
1339,40444;2,79134
1337,35328;2,78685
1335,30213;2,78664
1333,25097;2,78784
1331,19981;2,78541
1329,14866;2,78497
1327,0975;2,78941
1325,04635;2,79502
1322,99519;2,79964
1320,94404;2,8003
1318,89288;2,7977
1316,84173;2,79556
1314,79057;2,7961
1312,73942;2,79946
1310,68826;2,80524
1308,63711;2,8101
1306,58595;2,80858
1304,5348;2,80404
1302,48364;2,80244
1300,43248;2,80312
1298,38133;2,80209
1296,33017;2,80065
1294,27902;2,80428
1292,22786;2,80994
1290,17671;2,80982
1288,12555;2,80876
1286,0744;2,8115
1284,02324;2,80975
1281,97209;2,80217
1279,92093;2,7987
1277,86978;2,80326
1275,81862;2,81268
1273,76747;2,82146
1271,71631;2,824
1269,66515;2,82231
1267,614;2,82626
1265,56284;2,83633
1263,51169;2,84063
1261,46053;2,83585
1259,40938;2,82591
1257,35822;2,81541
1255,30707;2,81441
1253,25591;2,81887
1251,20476;2,82214
1249,1536;2,83182
1247,10245;2,83931
1245,05129;2,83564
1243,00013;2,83378
1240,94898;2,83712
1238,89782;2,83861
1236,84667;2,8349
1234,79551;2,82739
1232,74436;2,82243
1230,6932;2,82446
1228,64205;2,82899
1226,59089;2,82939
1224,53974;2,82557
1222,48858;2,81888
1220,43743;2,81622
1218,38627;2,82073
1216,33512;2,82303
1214,28396;2,82408
1212,2328;2,83055
1210,18165;2,83379
1208,13049;2,82832
1206,07934;2,82754
1204,02818;2,83594
1201,97703;2,84163
1199,92587;2,84239
1197,87472;2,84159
1195,82356;2,83664
1193,77241;2,83178
1191,72125;2,83377
1189,6701;2,84391
1187,61894;2,85689
1185,56779;2,86085
1183,51663;2,85784
1181,46547;2,86073
1179,41432;2,86533
1177,36316;2,86553
1175,31201;2,86501
1173,26085;2,86777
1171,2097;2,87826
1169,15854;2,89012
1167,10739;2,89843
1165,05623;2,90921
1163,00508;2,91857
1160,95392;2,91782
1158,90277;2,91163
1156,85161;2,90636
1154,80046;2,90312
1152,7493;2,90937
1150,69814;2,91956
1148,64699;2,92439
1146,59583;2,93729
1144,54468;2,95466
1142,49352;2,95589
1140,44237;2,94621
1138,39121;2,94091
1136,34006;2,94903
1134,2889;2,96282
1132,23775;2,96526
1130,18659;2,95892
1128,13544;2,94971
1126,08428;2,93543
1124,03313;2,92061
1121,98197;2,91375
1119,93081;2,91015
1117,87966;2,89588
1115,8285;2,86901
1113,77735;2,84451
1111,72619;2,83119
1109,67504;2,81513
1107,62388;2,78603
1105,57273;2,75887
1103,52157;2,74661
1101,47042;2,74494
1099,41926;2,74131
1097,36811;2,72483
1095,31695;2,70246
1093,2658;2,69143
1091,21464;2,69092
1089,16348;2,69033
1087,11233;2,69132
1085,06117;2,69301
1083,01002;2,68969
1080,95886;2,68276
1078,90771;2,67004
1076,85655;2,65022
1074,8054;2,63028
1072,75424;2,61429
1070,70309;2,59726
1068,65193;2,57424
1066,60078;2,55055
1064,54962;2,53075
1062,49847;2,5124
1060,44731;2,49398
1058,39615;2,47463
1056,345;2,45536
1054,29384;2,43941
1052,24269;2,42367
1050,19153;2,40711
1048,14038;2,39393
1046,08922;2,38296
1044,03807;2,37016
1041,98691;2,35583
1039,93576;2,34339
1037,8846;2,33057
1035,83345;2,316
1033,78229;2,30669
1031,73114;2,30363
1029,67998;2,30355
1027,62882;2,30901
1025,57767;2,32015
1023,52651;2,33101
1021,47536;2,34038
1019,4242;2,35106
1017,37305;2,3626
1015,32189;2,37657
1013,27074;2,39189
1011,21958;2,40397
1009,16843;2,41287
1007,11727;2,42035
1005,06612;2,42785
1003,01496;2,43548
1000,96381;2,44319
998,91265;2,45161
996,86149;2,46351
994,81034;2,47624
992,75918;2,483
990,70803;2,48774
988,65687;2,49411
986,60572;2,50019
984,55456;2,50371
982,50341;2,50766
980,45225;2,5164
978,4011;2,52182
976,34994;2,52109
974,29879;2,52393
972,24763;2,53405
970,19647;2,54983
968,14532;2,56722
966,09416;2,57782
964,04301;2,5771
961,99185;2,56931
959,9407;2,55736
957,88954;2,54538
955,83839;2,54044
953,78723;2,54354
951,73608;2,55197
949,68492;2,55967
947,63377;2,562
945,58261;2,55861
943,53146;2,55529
941,4803;2,55675
939,42914;2,55532
937,37799;2,55153
935,32683;2,55422
933,27568;2,56103
931,22452;2,56856
929,17337;2,57504
927,12221;2,57714
925,07106;2,57717
923,0199;2,57537
920,96875;2,56886
918,91759;2,56189
916,86644;2,56077
914,81528;2,56466
912,76413;2,57131
910,71297;2,58229
908,66181;2,58727
906,61066;2,57869
904,5595;2,57364
902,50835;2,58334
900,45719;2,59628
898,40604;2,59728
896,35488;2,58783
894,30373;2,57742
892,25257;2,56972
890,20142;2,56236
888,15026;2,55767
886,09911;2,57027
884,04795;2,60141
881,9968;2,62589
879,94564;2,63625
877,89448;2,63987
875,84333;2,62444
873,79217;2,59448
871,74102;2,57597
869,68986;2,5798
867,63871;2,59553
865,58755;2,60695
863,5364;2,61359
861,48524;2,61841
859,43409;2,61653
857,38293;2,61506
855,33178;2,61743
853,28062;2,61811
851,22947;2,62056
849,17831;2,62264
847,12715;2,62766
845,076;2,63316
843,02484;2,62892
840,97369;2,62431
838,92253;2,62485
836,87138;2,63377
834,82022;2,65123
832,76907;2,65596
830,71791;2,64991
828,66676;2,64898
826,6156;2,64452
824,56445;2,63099
822,51329;2,62529
820,46214;2,63701
818,41098;2,65315
816,35982;2,66217
814,30867;2,66298
812,25751;2,65532
810,20636;2,65279
808,1552;2,66275
806,10405;2,66371
804,05289;2,65487
802,00174;2,65447
799,95058;2,6551
797,89943;2,65989
795,84827;2,67615
793,79712;2,6856
791,74596;2,67789
789,69481;2,66544
787,64365;2,66862
785,59249;2,67839
783,54134;2,67653
781,49018;2,66949
779,43903;2,66657
777,38787;2,67044
775,33672;2,68039
773,28556;2,68526
771,23441;2,68192
769,18325;2,68625
767,1321;2,69835
765,08094;2,70446
763,02979;2,70367
760,97863;2,70019
758,92748;2,69793
756,87632;2,69884
754,82516;2,70483
752,77401;2,70512
750,72285;2,69389
748,6717;2,691
746,62054;2,69398
744,56939;2,69118
742,51823;2,68766
740,46708;2,68719
738,41592;2,69359
736,36477;2,70816
734,31361;2,72836
732,26246;2,7332
730,2113;2,71773
728,16015;2,70398
726,10899;2,70162
724,05783;2,70141
722,00668;2,70411
719,95552;2,71937
717,90437;2,73394
715,85321;2,73842
713,80206;2,74692
711,7509;2,75384
709,69975;2,7418
707,64859;2,7267
705,59744;2,73363
703,54628;2,74415
701,49513;2,74045
699,44397;2,74439
697,39281;2,74913
695,34166;2,73501
693,2905;2,72532
691,23935;2,73472
689,18819;2,74702
687,13704;2,74915
685,08588;2,73949
683,03473;2,73165
680,98357;2,74094
678,93242;2,75028
676,88126;2,73442
674,83011;2,71304
672,77895;2,70874
670,7278;2,71114
668,67664;2,70773
666,62548;2,71099
664,57433;2,7345
662,52317;2,76866
660,47202;2,78441
658,42086;2,77822
656,36971;2,7741
654,31855;2,7724
652,2674;2,76121
650,21624;2,7537
648,16509;2,76538
646,11393;2,78445
644,06278;2,80318
642,01162;2,80049
639,96047;2,76355
637,90931;2,73668
635,85815;2,77012
633,807;2,83783
631,75584;2,84008
629,70469;2,79629
627,65353;2,79573
625,60238;2,82607
623,55122;2,82733
621,50007;2,80687
619,44891;2,80272
617,39776;2,81276
615,3466;2,80155
613,29545;2,75076
611,24429;2,68669
609,19314;2,63584
607,14198;2,59979
605,09082;2,56543
603,03967;2,52846
600,98851;2,50356
598,93736;2,51074
596,8862;2,55605
594,83505;2,6138
592,78389;2,64933
590,73274;2,65267
588,68158;2,64152
586,63043;2,64038
584,57927;2,65166
582,52812;2,65195
580,47696;2,62329
578,42581;2,57703
576,37465;2,54057
574,32349;2,5333
572,27234;2,5358
570,22118;2,50763
568,17003;2,45954
566,11887;2,4235
564,06772;2,39227
562,01656;2,36702
559,96541;2,3651
557,91425;2,37729
555,8631;2,39294
553,81194;2,4208
551,76079;2,45646
549,70963;2,4822
547,65848;2,49025
545,60732;2,48189
543,55616;2,47271
541,50501;2,47149
539,45385;2,47554
537,4027;2,48536
535,35154;2,49089
533,30039;2,49368
531,24923;2,51435
529,19808;2,53481
527,14692;2,53549
525,09577;2,54094
523,04461;2,54387
520,99346;2,52694
518,9423;2,52816
516,89115;2,56445
514,83999;2,58636
512,78883;2,58041
510,73768;2,582
508,68652;2,59136
506,63537;2,58886
504,58421;2,58566
502,53306;2,59921
500,4819;2,57133
498,43075;2,50267
496,37959;2,48065
494,32844;2,52811
492,27728;2,58544
490,22613;2,59508
488,17497;2,58684
486,12382;2,58484
484,07266;2,57171
482,0215;2,5698
479,97035;2,58197
477,91919;2,57246
475,86804;2,57312
473,81688;2,569
471,76573;2,52432
469,71457;2,49913
467,66342;2,52523
465,61226;2,57573
463,56111;2,59714
461,50995;2,5813
459,4588;2,54454
457,40764;2,49945
455,35649;2,47724
453,30533;2,48171
451,25417;2,49435
449,20302;2,53333
447,15186;2,58514
445,10071;2,58791
443,04955;2,59695
440,9984;2,63102
438,94724;2,62716
436,89609;2,63675
434,84493;2,71529
432,79378;2,75754
430,74262;2,75194
428,69147;2,67846
426,64031;2,56679
424,58916;2,51389
422,538;2,50723
420,48684;2,47671
418,43569;2,44227
416,38453;2,46198
414,33338;2,49971
412,28222;2,52196
410,23107;2,53502
408,17991;2,52469
406,12876;2,51048
404,0776;2,52767
402,02645;2,62123
399,97529;2,79815
