Data from sienaNatWhite_Reflection__3__34.txt Node;
"Date: Wed Sep 10 12:22:52 CEST 2025 User: sycur Spectrometer: SR400348 Trigger mode: 0 Integration Time (sec): 1,000000E-2 Scans to average: 10 Electric dark correction enabled: true Nonlinearity correction enabled: false Boxcar width: 10 XAxis mode: Wavelengths Number of Pixels in Spectrum: 3648 >>>>>Begin Spectral Data<<<<<";
186,01;35,67
186,281;49,86
186,552;27,55
186,822;49,49
187,093;-433,33
187,364;419,24
187,635;139,27
187,905;79,86
188,176;59,06
188,447;45,79
188,717;38,12
188,988;33,11
189,258;38,33
189,529;39,99
189,8;34,25
190,07;32,63
190,341;30,06
190,611;29,06
190,882;28,6
191,152;25,1
191,423;24,84
191,693;24,76
191,964;24,29
192,234;24,65
192,505;24,18
192,775;24,71
193,045;22,85
193,316;20,1
193,586;19,31
193,856;18,16
194,127;18,34
194,397;18,87
194,667;19,05
194,938;17,09
195,208;17,54
195,478;18,68
195,748;17,36
196,019;17,68
196,289;16,4
196,559;15,18
196,829;14,55
197,099;15,74
197,37;14,53
197,64;14,79
197,91;14,61
198,18;13,78
198,45;13,6
198,72;13,04
198,99;13,74
199,26;13,65
199,53;14,39
199,8;14,28
200,07;13,53
200,34;12,46
200,61;12,81
200,88;11,94
201,15;11,66
201,42;11,46
201,69;10,71
201,96;10,89
202,23;11,72
202,499;12,26
202,769;11,34
203,039;11,33
203,309;9,55
203,579;9,33
203,849;9,6
204,118;9,66
204,388;9,46
204,658;8,87
204,927;8,6
205,197;8,12
205,467;8,2
205,736;8,5
206,006;8,87
206,276;9,11
206,545;9,18
206,815;8,69
207,085;8,67
207,354;8,98
207,624;8,66
207,893;8,34
208,163;8,06
208,432;8,09
208,702;8,09
208,971;8,15
209,241;8,36
209,51;8,26
209,78;7,91
210,049;7,86
210,318;8,19
210,588;8,2
210,857;8,34
211,127;8,33
211,396;7,99
211,665;7,73
211,935;7,64
212,204;7,45
212,473;7,47
212,742;7,28
213,012;7,19
213,281;7,23
213,55;7,27
213,819;7,11
214,088;6,99
214,358;6,59
214,627;7,01
214,896;6,83
215,165;6,56
215,434;6,37
215,703;6,38
215,972;6,07
216,241;6,06
216,51;5,85
216,779;5,62
217,048;5,67
217,317;5,51
217,586;5,45
217,855;5,5
218,124;5,53
218,393;5,46
218,662;5,42
218,931;5,38
219,2;5,3
219,469;5,37
219,738;5,33
220,006;5,48
220,275;5,33
220,544;5,21
220,813;5,19
221,082;5,26
221,35;5,2
221,619;5,28
221,888;5,25
222,157;5,26
222,425;5,32
222,694;5,19
222,963;5,28
223,231;5,28
223,5;5,18
223,769;5,1
224,037;5,09
224,306;4,95
224,574;5,03
224,843;4,9
225,111;4,8
225,38;4,72
225,648;4,65
225,917;4,6
226,185;4,7
226,454;4,75
226,722;4,77
226,991;4,76
227,259;4,71
227,528;4,65
227,796;4,62
228,064;4,53
228,333;4,54
228,601;4,48
228,869;4,39
229,138;4,4
229,406;4,45
229,674;4,44
229,942;4,49
230,211;4,43
230,479;4,49
230,747;4,51
231,015;4,56
231,283;4,56
231,552;4,55
231,82;4,43
232,088;4,37
232,356;4,31
232,624;4,29
232,892;4,29
233,16;4,34
233,428;4,34
233,696;4,34
233,964;4,32
234,232;4,37
234,5;4,39
234,768;4,36
235,036;4,32
235,304;4,33
235,572;4,33
235,84;4,25
236,108;4,19
236,376;4,17
236,644;4,11
236,912;4,1
237,179;4,07
237,447;4,08
237,715;4,03
237,983;4,03
238,251;4,02
238,518;4,01
238,786;3,97
239,054;3,97
239,322;3,96
239,589;3,92
239,857;3,87
240,125;3,86
240,392;3,86
240,66;3,85
240,927;3,82
241,195;3,77
241,463;3,83
241,73;3,84
241,998;3,86
242,265;3,85
242,533;3,84
242,8;3,83
243,068;3,8
243,335;3,81
243,603;3,81
243,87;3,8
244,138;3,76
244,405;3,74
244,672;3,74
244,94;3,71
245,207;3,74
245,474;3,72
245,742;3,69
246,009;3,66
246,276;3,65
246,544;3,63
246,811;3,63
247,078;3,62
247,345;3,63
247,613;3,58
247,88;3,57
248,147;3,55
248,414;3,55
248,681;3,57
248,948;3,6
249,215;3,59
249,483;3,58
249,75;3,59
250,017;3,56
250,284;3,54
250,551;3,53
250,818;3,5
251,085;3,51
251,352;3,51
251,619;3,53
251,886;3,53
252,153;3,55
252,42;3,55
252,687;3,52
252,953;3,5
253,22;3,49
253,487;3,5
253,754;3,49
254,021;3,49
254,288;3,49
254,555;3,48
254,821;3,47
255,088;3,42
255,355;3,41
255,622;3,43
255,888;3,43
256,155;3,42
256,422;3,43
256,688;3,43
256,955;3,43
257,222;3,41
257,488;3,43
257,755;3,43
258,022;3,4
258,288;3,39
258,555;3,39
258,821;3,4
259,088;3,41
259,354;3,41
259,621;3,39
259,887;3,4
260,154;3,41
260,42;3,39
260,687;3,44
260,953;3,46
261,219;3,47
261,486;3,45
261,752;3,47
262,019;3,46
262,285;3,44
262,551;3,41
262,818;3,4
263,084;3,37
263,35;3,35
263,616;3,37
263,883;3,39
264,149;3,37
264,415;3,38
264,681;3,35
264,947;3,37
265,214;3,39
265,48;3,39
265,746;3,38
266,012;3,4
266,278;3,37
266,544;3,39
266,81;3,4
267,076;3,4
267,342;3,37
267,608;3,37
267,874;3,36
268,14;3,39
268,406;3,4
268,672;3,4
268,938;3,41
269,204;3,38
269,47;3,37
269,736;3,38
270,002;3,38
270,268;3,4
270,533;3,38
270,799;3,34
271,065;3,3
271,331;3,28
271,597;3,3
271,862;3,31
272,128;3,29
272,394;3,29
272,66;3,31
272,925;3,33
273,191;3,33
273,457;3,35
273,722;3,35
273,988;3,34
274,254;3,36
274,519;3,37
274,785;3,39
275,05;3,39
275,316;3,4
275,582;3,4
275,847;3,4
276,113;3,4
276,378;3,42
276,644;3,43
276,909;3,42
277,174;3,43
277,44;3,46
277,705;3,43
277,971;3,4
278,236;3,39
278,501;3,39
278,767;3,42
279,032;3,42
279,297;3,41
279,563;3,41
279,828;3,4
280,093;3,38
280,358;3,36
280,624;3,36
280,889;3,34
281,154;3,33
281,419;3,33
281,684;3,33
281,95;3,32
282,215;3,32
282,48;3,35
282,745;3,32
283,01;3,28
283,275;3,29
283,54;3,3
283,805;3,28
284,07;3,29
284,335;3,26
284,6;3,23
284,865;3,24
285,13;3,21
285,395;3,22
285,66;3,22
285,925;3,23
286,19;3,24
286,455;3,23
286,72;3,24
286,985;3,23
287,249;3,22
287,514;3,23
287,779;3,22
288,044;3,2
288,309;3,18
288,573;3,19
288,838;3,22
289,103;3,22
289,367;3,21
289,632;3,22
289,897;3,2
290,161;3,23
290,426;3,24
290,691;3,3
290,955;3,26
291,22;3,24
291,484;3,23
291,749;3,2
292,014;3,2
292,278;3,18
292,543;3,18
292,807;3,2
293,072;3,2
293,336;3,19
293,6;3,18
293,865;3,18
294,129;3,17
294,394;3,17
294,658;3,16
294,922;3,13
295,187;3,12
295,451;3,13
295,715;3,11
295,98;3,1
296,244;3,08
296,508;3,09
296,773;3,12
297,037;3,15
297,301;3,18
297,565;3,21
297,829;3,21
298,094;3,21
298,358;3,19
298,622;3,19
298,886;3,2
299,15;3,23
299,414;3,24
299,678;3,24
299,942;3,25
300,206;3,26
300,47;3,3
300,734;3,3
300,998;3,3
301,262;3,29
301,526;3,28
301,79;3,26
302,054;3,29
302,318;3,28
302,582;3,28
302,846;3,24
303,11;3,23
303,374;3,23
303,637;3,24
303,901;3,25
304,165;3,23
304,429;3,24
304,693;3,22
304,956;3,23
305,22;3,24
305,484;3,22
305,747;3,22
306,011;3,21
306,275;3,2
306,538;3,21
306,802;3,23
307,066;3,24
307,329;3,23
307,593;3,24
307,856;3,22
308,12;3,19
308,384;3,21
308,647;3,22
308,911;3,23
309,174;3,21
309,438;3,21
309,701;3,21
309,964;3,23
310,228;3,23
310,491;3,21
310,755;3,24
311,018;3,24
311,281;3,24
311,545;3,23
311,808;3,22
312,071;3,2
312,335;3,18
312,598;3,17
312,861;3,18
313,124;3,18
313,388;3,24
313,651;3,25
313,914;3,23
314,177;3,22
314,44;3,22
314,704;3,22
314,967;3,21
315,23;3,23
315,493;3,22
315,756;3,21
316,019;3,23
316,282;3,22
316,545;3,22
316,808;3,24
317,071;3,25
317,334;3,27
317,597;3,31
317,86;3,31
318,123;3,34
318,386;3,33
318,649;3,32
318,912;3,29
319,175;3,31
319,437;3,31
319,7;3,3
319,963;3,3
320,226;3,29
320,489;3,29
320,751;3,29
321,014;3,29
321,277;3,31
321,54;3,28
321,802;3,26
322,065;3,27
322,328;3,27
322,59;3,27
322,853;3,27
323,116;3,26
323,378;3,25
323,641;3,23
323,903;3,26
324,166;3,25
324,428;3,23
324,691;3,24
324,953;3,24
325,216;3,26
325,478;3,23
325,741;3,23
326,003;3,23
326,266;3,21
326,528;3,19
326,791;3,18
327,053;3,21
327,315;3,18
327,578;3,19
327,84;3,17
328,102;3,14
328,365;3,15
328,627;3,13
328,889;3,12
329,151;3,1
329,414;3,09
329,676;3,09
329,938;3,09
330,2;3,09
330,462;3,1
330,725;3,08
330,987;3,12
331,249;3,13
331,511;3,11
331,773;3,09
332,035;3,15
332,297;3,18
332,559;3,15
332,821;3,15
333,083;3,13
333,345;3,1
333,607;3,14
333,869;3,19
334,131;3,2
334,393;3,24
334,655;3,25
334,917;3,2
335,179;3,18
335,44;3,22
335,702;3,2
335,964;3,19
336,226;3,23
336,488;3,21
336,749;3,21
337,011;3,23
337,273;3,27
337,535;3,23
337,796;3,15
338,058;3,17
338,32;3,18
338,581;3,19
338,843;3,21
339,105;3,22
339,366;3,18
339,628;3,17
339,889;3,18
340,151;3,19
340,412;3,19
340,674;3,2
340,935;3,17
341,197;3,19
341,458;3,18
341,72;3,14
341,981;3,14
342,243;3,15
342,504;3,2
342,766;3,2
343,027;3,19
343,288;3,25
343,55;3,26
343,811;3,28
344,072;3,23
344,334;3,21
344,595;3,15
344,856;3,16
345,117;3,19
345,379;3,17
345,64;3,21
345,901;3,24
346,162;3,27
346,423;3,29
346,684;3,27
346,946;3,3
347,207;3,29
347,468;3,3
347,729;3,25
347,99;3,24
348,251;3,24
348,512;3,27
348,773;3,22
349,034;3,23
349,295;3,24
349,556;3,31
349,817;3,35
350,078;3,41
350,339;3,35
350,6;3,35
350,86;3,36
351,121;3,3
351,382;3,33
351,643;3,28
351,904;3,27
352,165;3,28
352,425;3,23
352,686;3,26
352,947;3,26
353,208;3,3
353,468;3,27
353,729;3,26
353,99;3,22
354,25;3,27
354,511;3,28
354,772;3,27
355,032;3,27
355,293;3,26
355,553;3,28
355,814;3,32
356,074;3,29
356,335;3,27
356,596;3,31
356,856;3,29
357,116;3,32
357,377;3,34
357,637;3,33
357,898;3,33
358,158;3,35
358,419;3,33
358,679;3,32
358,939;3,32
359,2;3,33
359,46;3,34
359,72;3,32
359,981;3,31
360,241;3,27
360,501;3,23
360,761;3,25
361,022;3,2
361,282;3,21
361,542;3,21
361,802;3,22
362,062;3,21
362,323;3,17
362,583;3,17
362,843;3,13
363,103;3,14
363,363;3,17
363,623;3,13
363,883;3,17
364,143;3,18
364,403;3,15
364,663;3,16
364,923;3,17
365,183;3,22
365,443;3,23
365,703;3,23
365,963;3,28
366,223;3,28
366,483;3,27
366,743;3,25
367,002;3,26
367,262;3,22
367,522;3,24
367,782;3,26
368,042;3,25
368,301;3,3
368,561;3,29
368,821;3,26
369,081;3,28
369,34;3,26
369,6;3,22
369,86;3,24
370,119;3,25
370,379;3,27
370,638;3,22
370,898;3,21
371,158;3,24
371,417;3,21
371,677;3,17
371,936;3,19
372,196;3,2
372,455;3,17
372,715;3,21
372,974;3,22
373,234;3,19
373,493;3,24
373,753;3,2
374,012;3,2
374,271;3,21
374,531;3,2
374,79;3,22
375,049;3,25
375,309;3,23
375,568;3,2
375,827;3,17
376,086;3,17
376,346;3,18
376,605;3,18
376,864;3,18
377,123;3,17
377,383;3,14
377,642;3,15
377,901;3,18
378,16;3,16
378,419;3,16
378,678;3,15
378,937;3,12
379,196;3,12
379,455;3,17
379,714;3,17
379,973;3,21
380,232;3,18
380,491;3,14
380,75;3,13
381,009;3,14
381,268;3,15
381,527;3,15
381,786;3,15
382,045;3,12
382,304;3,13
382,563;3,13
382,821;3,18
383,08;3,18
383,339;3,19
383,598;3,22
383,857;3,2
384,115;3,19
384,374;3,15
384,633;3,2
384,891;3,16
385,15;3,13
385,409;3,15
385,667;3,17
385,926;3,19
386,185;3,2
386,443;3,2
386,702;3,19
386,96;3,2
387,219;3,21
387,477;3,26
387,736;3,23
387,994;3,26
388,253;3,2
388,511;3,2
388,77;3,22
389,028;3,23
389,287;3,24
389,545;3,29
389,803;3,32
390,062;3,26
390,32;3,28
390,578;3,3
390,837;3,26
391,095;3,28
391,353;3,33
391,612;3,35
391,87;3,33
392,128;3,35
392,386;3,36
392,644;3,36
392,903;3,34
393,161;3,38
393,419;3,37
393,677;3,42
393,935;3,41
394,193;3,39
394,451;3,36
394,709;3,28
394,967;3,29
395,225;3,3
395,483;3,37
395,741;3,37
395,999;3,37
396,257;3,43
396,515;3,42
396,773;3,39
397,031;3,38
397,289;3,41
397,547;3,4
397,805;3,38
398,062;3,44
398,32;3,41
398,578;3,44
398,836;3,41
399,094;3,38
399,351;3,34
399,609;3,35
399,867;3,34
400,124;3,44
400,382;3,44
400,64;3,41
400,897;3,39
401,155;3,41
401,413;3,39
401,67;3,39
401,928;3,41
402,185;3,41
402,443;3,43
402,701;3,39
402,958;3,4
403,216;3,4
403,473;3,35
403,73;3,36
403,988;3,35
404,245;3,38
404,503;3,37
404,76;3,38
405,018;3,36
405,275;3,43
405,532;3,41
405,79;3,4
406,047;3,4
406,304;3,39
406,561;3,42
406,819;3,49
407,076;3,44
407,333;3,49
407,59;3,53
407,848;3,53
408,105;3,57
408,362;3,61
408,619;3,66
408,876;3,65
409,133;3,66
409,39;3,68
409,647;3,75
409,904;3,72
410,161;3,78
410,418;3,8
410,675;3,74
410,932;3,72
411,189;3,75
411,446;3,77
411,703;3,74
411,96;3,65
412,217;3,61
412,474;3,6
412,731;3,56
412,988;3,52
413,245;3,53
413,501;3,5
413,758;3,47
414,015;3,42
414,272;3,4
414,529;3,42
414,785;3,42
415,042;3,4
415,299;3,5
415,555;3,46
415,812;3,44
416,069;3,44
416,325;3,42
416,582;3,43
416,838;3,48
417,095;3,46
417,352;3,5
417,608;3,54
417,865;3,57
418,121;3,56
418,378;3,56
418,634;3,55
418,891;3,65
419,147;3,7
419,403;3,71
419,66;3,73
419,916;3,75
420,173;3,73
420,429;3,71
420,685;3,7
420,942;3,74
421,198;3,77
421,454;3,77
421,711;3,78
421,967;3,8
422,223;3,79
422,479;3,82
422,735;3,81
422,992;3,81
423,248;3,77
423,504;3,81
423,76;3,83
424,016;3,87
424,272;3,86
424,528;3,81
424,784;3,76
425,041;3,77
425,297;3,76
425,553;3,8
425,809;3,86
426,065;3,81
426,32;3,8
426,576;3,81
426,832;3,83
427,088;3,85
427,344;3,8
427,6;3,83
427,856;3,84
428,112;3,86
428,368;3,86
428,623;3,91
428,879;3,9
429,135;3,93
429,391;3,9
429,646;3,92
429,902;3,95
430,158;4,03
430,414;4,02
430,669;4,04
430,925;4,01
431,181;4
431,436;4,05
431,692;4,04
431,947;4,07
432,203;4,12
432,458;4,11
432,714;4,14
432,97;4,12
433,225;4,15
433,481;4,15
433,736;4,18
433,991;4,21
434,247;4,27
434,502;4,27
434,758;4,3
435,013;4,26
435,268;4,27
435,524;4,24
435,779;4,23
436,034;4,24
436,29;4,3
436,545;4,28
436,8;4,29
437,056;4,34
437,311;4,33
437,566;4,3
437,821;4,33
438,076;4,36
438,331;4,36
438,587;4,38
438,842;4,4
439,097;4,41
439,352;4,39
439,607;4,33
439,862;4,3
440,117;4,32
440,372;4,33
440,627;4,37
440,882;4,38
441,137;4,41
441,392;4,41
441,647;4,39
441,902;4,42
442,157;4,45
442,412;4,44
442,667;4,44
442,921;4,47
443,176;4,52
443,431;4,54
443,686;4,57
443,941;4,56
444,195;4,55
444,45;4,49
444,705;4,53
444,96;4,57
445,214;4,62
445,469;4,59
445,724;4,6
445,978;4,63
446,233;4,62
446,487;4,64
446,742;4,68
446,997;4,65
447,251;4,65
447,506;4,62
447,76;4,65
448,015;4,67
448,269;4,68
448,524;4,66
448,778;4,65
449,033;4,62
449,287;4,6
449,541;4,62
449,796;4,68
450,05;4,69
450,305;4,71
450,559;4,7
450,813;4,75
451,067;4,76
451,322;4,7
451,576;4,75
451,83;4,78
452,084;4,75
452,339;4,81
452,593;4,82
452,847;4,8
453,101;4,83
453,355;4,87
453,609;4,85
453,864;4,83
454,118;4,83
454,372;4,84
454,626;4,86
454,88;4,9
455,134;4,91
455,388;4,91
455,642;4,89
455,896;4,92
456,15;4,88
456,404;4,89
456,658;4,85
456,912;4,81
457,165;4,77
457,419;4,77
457,673;4,72
457,927;4,67
458,181;4,7
458,435;4,63
458,688;4,6
458,942;4,6
459,196;4,6
459,45;4,6
459,703;4,62
459,957;4,63
460,211;4,57
460,464;4,58
460,718;4,55
460,972;4,55
461,225;4,47
461,479;4,51
461,732;4,46
461,986;4,53
462,239;4,54
462,493;4,55
462,746;4,56
463;4,54
463,253;4,6
463,507;4,57
463,76;4,59
464,014;4,6
464,267;4,61
464,52;4,65
464,774;4,67
465,027;4,67
465,28;4,69
465,534;4,69
465,787;4,68
466,04;4,65
466,294;4,63
466,547;4,69
466,8;4,67
467,053;4,69
467,306;4,69
467,56;4,68
467,813;4,67
468,066;4,66
468,319;4,69
468,572;4,66
468,825;4,71
469,078;4,71
469,331;4,7
469,584;4,68
469,837;4,65
470,09;4,65
470,343;4,61
470,596;4,59
470,849;4,63
471,102;4,63
471,355;4,69
471,608;4,71
471,861;4,7
472,114;4,71
472,367;4,7
472,619;4,71
472,872;4,73
473,125;4,75
473,378;4,77
473,631;4,78
473,883;4,78
474,136;4,74
474,389;4,77
474,641;4,77
474,894;4,77
475,147;4,75
475,399;4,73
475,652;4,75
475,905;4,75
476,157;4,73
476,41;4,75
476,662;4,73
476,915;4,75
477,167;4,78
477,42;4,79
477,672;4,81
477,925;4,81
478,177;4,83
478,43;4,83
478,682;4,81
478,934;4,78
479,187;4,8
479,439;4,81
479,691;4,82
479,944;4,84
480,196;4,86
480,448;4,93
480,701;4,94
480,953;4,95
481,205;4,96
481,457;4,96
481,709;4,95
481,962;4,97
482,214;4,97
482,466;4,95
482,718;4,98
482,97;5,01
483,222;5,01
483,474;5,03
483,726;5,07
483,978;5,1
484,23;5,16
484,482;5,16
484,734;5,18
484,986;5,18
485,238;5,19
485,49;5,18
485,742;5,17
485,994;5,19
486,246;5,2
486,498;5,21
486,75;5,24
487,001;5,25
487,253;5,25
487,505;5,25
487,757;5,26
488,009;5,26
488,26;5,25
488,512;5,3
488,764;5,29
489,015;5,3
489,267;5,3
489,519;5,28
489,77;5,29
490,022;5,29
490,274;5,31
490,525;5,31
490,777;5,33
491,028;5,35
491,28;5,33
491,531;5,35
491,783;5,37
492,034;5,4
492,286;5,42
492,537;5,47
492,789;5,49
493,04;5,51
493,291;5,51
493,543;5,54
493,794;5,52
494,045;5,54
494,297;5,52
494,548;5,53
494,799;5,53
495,051;5,53
495,302;5,56
495,553;5,58
495,804;5,62
496,056;5,66
496,307;5,66
496,558;5,68
496,809;5,7
497,06;5,71
497,311;5,69
497,562;5,72
497,813;5,72
498,064;5,73
498,316;5,74
498,567;5,77
498,818;5,73
499,069;5,76
499,319;5,79
499,57;5,82
499,821;5,83
500,072;5,87
500,323;5,9
500,574;5,93
500,825;5,95
501,076;5,96
501,327;5,97
501,577;6,01
501,828;6,03
502,079;6,05
502,33;6,07
502,58;6,1
502,831;6,1
503,082;6,12
503,333;6,16
503,583;6,19
503,834;6,23
504,084;6,3
504,335;6,32
504,586;6,33
504,836;6,36
505,087;6,39
505,337;6,41
505,588;6,41
505,838;6,43
506,089;6,46
506,339;6,47
506,59;6,5
506,84;6,53
507,091;6,59
507,341;6,61
507,591;6,64
507,842;6,69
508,092;6,71
508,343;6,73
508,593;6,74
508,843;6,74
509,093;6,72
509,344;6,73
509,594;6,77
509,844;6,8
510,094;6,84
510,345;6,86
510,595;6,9
510,845;6,94
511,095;6,96
511,345;6,98
511,595;7,01
511,845;7,03
512,095;7,07
512,345;7,08
512,595;7,11
512,845;7,15
513,095;7,15
513,345;7,19
513,595;7,21
513,845;7,23
514,095;7,29
514,345;7,36
514,595;7,39
514,845;7,39
515,095;7,41
515,345;7,43
515,594;7,46
515,844;7,49
516,094;7,53
516,344;7,56
516,593;7,56
516,843;7,57
517,093;7,59
517,343;7,6
517,592;7,64
517,842;7,67
518,092;7,7
518,341;7,72
518,591;7,77
518,84;7,8
519,09;7,86
519,34;7,9
519,589;7,9
519,839;7,94
520,088;7,98
520,338;8
520,587;8,04
520,836;8,08
521,086;8,11
521,335;8,13
521,585;8,17
521,834;8,22
522,083;8,28
522,333;8,33
522,582;8,39
522,831;8,42
523,081;8,45
523,33;8,47
523,579;8,54
523,828;8,57
524,078;8,6
524,327;8,63
524,576;8,63
524,825;8,7
525,074;8,75
525,323;8,8
525,573;8,87
525,822;8,92
526,071;8,96
526,32;9,02
526,569;9,05
526,818;9,11
527,067;9,14
527,316;9,2
527,565;9,24
527,814;9,25
528,063;9,28
528,312;9,32
528,56;9,36
528,809;9,4
529,058;9,45
529,307;9,51
529,556;9,57
529,805;9,63
530,053;9,69
530,302;9,73
530,551;9,79
530,8;9,81
531,048;9,86
531,297;9,91
531,546;9,95
531,794;10,01
532,043;10,05
532,292;10,12
532,54;10,15
532,789;10,21
533,037;10,28
533,286;10,32
533,535;10,38
533,783;10,44
534,032;10,52
534,28;10,55
534,528;10,63
534,777;10,67
535,025;10,76
535,274;10,8
535,522;10,87
535,771;10,89
536,019;10,99
536,267;11,04
536,516;11,11
536,764;11,17
537,012;11,24
537,26;11,29
537,509;11,35
537,757;11,42
538,005;11,48
538,253;11,53
538,501;11,64
538,75;11,69
538,998;11,77
539,246;11,79
539,494;11,87
539,742;11,9
539,99;11,97
540,238;12,02
540,486;12,08
540,734;12,11
540,982;12,19
541,23;12,24
541,478;12,29
541,726;12,32
541,974;12,39
542,222;12,45
542,47;12,54
542,718;12,57
542,966;12,63
543,213;12,67
543,461;12,75
543,709;12,79
543,957;12,86
544,205;12,91
544,452;13,01
544,7;13,05
544,948;13,15
545,196;13,2
545,443;13,27
545,691;13,35
545,939;13,46
546,186;13,53
546,434;13,6
546,681;13,66
546,929;13,76
547,176;13,81
547,424;13,87
547,671;13,91
547,919;14,01
548,166;14,11
548,414;14,21
548,661;14,29
548,909;14,37
549,156;14,45
549,404;14,53
549,651;14,6
549,898;14,67
550,146;14,75
550,393;14,83
550,64;14,9
550,888;14,98
551,135;15,05
551,382;15,13
551,629;15,24
551,876;15,33
552,124;15,39
552,371;15,5
552,618;15,58
552,865;15,68
553,112;15,75
553,359;15,81
553,606;15,87
553,854;15,94
554,101;16,01
554,348;16,1
554,595;16,18
554,842;16,25
555,089;16,33
555,336;16,41
555,582;16,5
555,829;16,58
556,076;16,64
556,323;16,74
556,57;16,8
556,817;16,86
557,064;16,95
557,311;17,02
557,557;17,08
557,804;17,18
558,051;17,23
558,298;17,32
558,544;17,41
558,791;17,48
559,038;17,53
559,284;17,63
559,531;17,7
559,778;17,77
560,024;17,84
560,271;17,91
560,517;17,98
560,764;18,03
561,011;18,08
561,257;18,16
561,504;18,23
561,75;18,29
561,997;18,34
562,243;18,42
562,489;18,5
562,736;18,58
562,982;18,67
563,229;18,77
563,475;18,84
563,721;18,93
563,968;19,04
564,214;19,12
564,46;19,21
564,707;19,29
564,953;19,36
565,199;19,46
565,445;19,57
565,691;19,66
565,938;19,75
566,184;19,84
566,43;19,97
566,676;20,07
566,922;20,16
567,168;20,26
567,414;20,35
567,66;20,45
567,906;20,56
568,152;20,63
568,398;20,72
568,644;20,8
568,89;20,87
569,136;20,96
569,382;21,03
569,628;21,11
569,874;21,18
570,12;21,27
570,366;21,34
570,612;21,42
570,857;21,5
571,103;21,6
571,349;21,69
571,595;21,73
571,84;21,78
572,086;21,89
572,332;21,98
572,578;22,05
572,823;22,12
573,069;22,18
573,315;22,26
573,56;22,33
573,806;22,4
574,051;22,49
574,297;22,54
574,542;22,62
574,788;22,68
575,034;22,77
575,279;22,83
575,524;22,91
575,77;22,98
576,015;23,04
576,261;23,09
576,506;23,16
576,752;23,23
576,997;23,32
577,242;23,36
577,488;23,42
577,733;23,47
577,978;23,53
578,223;23,6
578,469;23,66
578,714;23,73
578,959;23,79
579,204;23,84
579,45;23,9
579,695;23,94
579,94;24
580,185;24,03
580,43;24,09
580,675;24,11
580,92;24,17
581,165;24,21
581,41;24,27
581,655;24,33
581,9;24,39
582,145;24,42
582,39;24,47
582,635;24,52
582,88;24,57
583,125;24,63
583,37;24,67
583,615;24,69
583,86;24,74
584,105;24,8
584,349;24,86
584,594;24,89
584,839;24,98
585,084;25,02
585,328;25,08
585,573;25,14
585,818;25,19
586,063;25,22
586,307;25,25
586,552;25,27
586,797;25,32
587,041;25,34
587,286;25,36
587,53;25,4
587,775;25,44
588,019;25,47
588,264;25,51
588,508;25,54
588,753;25,6
588,997;25,63
589,242;25,64
589,486;25,69
589,731;25,75
589,975;25,77
590,22;25,83
590,464;25,87
590,708;25,91
590,953;25,93
591,197;25,98
591,441;26,02
591,685;26,07
591,93;26,09
592,174;26,15
592,418;26,21
592,662;26,24
592,907;26,26
593,151;26,29
593,395;26,33
593,639;26,34
593,883;26,39
594,127;26,42
594,371;26,44
594,615;26,45
594,859;26,48
595,103;26,52
595,347;26,53
595,591;26,56
595,835;26,58
596,079;26,65
596,323;26,7
596,567;26,72
596,811;26,74
597,055;26,78
597,299;26,78
597,542;26,81
597,786;26,85
598,03;26,89
598,274;26,93
598,518;26,95
598,761;27
599,005;27,01
599,249;27,04
599,492;27,09
599,736;27,1
599,98;27,13
600,223;27,15
600,467;27,17
600,711;27,18
600,954;27,2
601,198;27,21
601,441;27,23
601,685;27,24
601,928;27,28
602,172;27,29
602,415;27,34
602,659;27,38
602,902;27,4
603,145;27,42
603,389;27,43
603,632;27,46
603,876;27,5
604,119;27,53
604,362;27,54
604,606;27,55
604,849;27,6
605,092;27,62
605,335;27,66
605,579;27,67
605,822;27,69
606,065;27,69
606,308;27,72
606,551;27,72
606,794;27,77
607,037;27,79
607,281;27,81
607,524;27,82
607,767;27,82
608,01;27,82
608,253;27,84
608,496;27,85
608,739;27,87
608,982;27,89
609,225;27,89
609,468;27,91
609,711;27,93
609,953;27,94
610,196;27,97
610,439;27,97
610,682;28
610,925;28,02
611,168;28,05
611,41;28,07
611,653;28,09
611,896;28,1
612,139;28,11
612,381;28,13
612,624;28,15
612,867;28,15
613,109;28,18
613,352;28,19
613,595;28,23
613,837;28,23
614,08;28,22
614,322;28,24
614,565;28,27
614,807;28,28
615,05;28,27
615,292;28,27
615,535;28,27
615,777;28,26
616,02;28,28
616,262;28,31
616,505;28,33
616,747;28,35
616,989;28,36
617,232;28,38
617,474;28,39
617,716;28,39
617,959;28,42
618,201;28,42
618,443;28,45
618,685;28,44
618,927;28,47
619,17;28,49
619,412;28,53
619,654;28,53
619,896;28,56
620,138;28,59
620,38;28,6
620,622;28,65
620,864;28,69
621,107;28,68
621,349;28,69
621,591;28,69
621,833;28,71
622,075;28,72
622,316;28,75
622,558;28,79
622,8;28,82
623,042;28,84
623,284;28,9
623,526;28,9
623,768;28,93
624,01;28,95
624,251;28,98
624,493;28,98
624,735;29,01
624,977;29,03
625,218;29,02
625,46;29,04
625,702;29,04
625,943;29,06
626,185;29,09
626,427;29,07
626,668;29,1
626,91;29,1
627,152;29,12
627,393;29,1
627,635;29,09
627,876;29,08
628,118;29,1
628,359;29,08
628,601;29,07
628,842;29,07
629,084;29,05
629,325;29,01
629,566;29,02
629,808;29,02
630,049;29,02
630,29;29,06
630,532;29,06
630,773;29,07
631,014;29,05
631,256;29,06
631,497;29,09
631,738;29,07
631,979;29,09
632,22;29,08
632,462;29,09
632,703;29,11
632,944;29,14
633,185;29,12
633,426;29,14
633,667;29,18
633,908;29,2
634,149;29,2
634,39;29,23
634,631;29,23
634,872;29,23
635,113;29,23
635,354;29,2
635,595;29,21
635,836;29,22
636,077;29,22
636,318;29,25
636,559;29,25
636,8;29,29
637,04;29,29
637,281;29,28
637,522;29,3
637,763;29,28
638,003;29,27
638,244;29,31
638,485;29,29
638,726;29,3
638,966;29,29
639,207;29,33
639,448;29,35
639,688;29,35
639,929;29,37
640,169;29,4
640,41;29,42
640,65;29,44
640,891;29,48
641,131;29,48
641,372;29,49
641,612;29,5
641,853;29,51
642,093;29,54
642,334;29,58
642,574;29,59
642,814;29,62
643,055;29,6
643,295;29,62
643,535;29,64
643,776;29,62
644,016;29,67
644,256;29,67
644,496;29,65
644,737;29,66
644,977;29,67
645,217;29,66
645,457;29,7
645,697;29,69
645,938;29,68
646,178;29,71
646,418;29,73
646,658;29,74
646,898;29,74
647,138;29,75
647,378;29,76
647,618;29,75
647,858;29,74
648,098;29,79
648,338;29,81
648,578;29,82
648,818;29,85
649,057;29,84
649,297;29,86
649,537;29,88
649,777;29,92
650,017;29,93
650,257;29,94
650,496;29,94
650,736;29,98
650,976;30
661,028;30,5
661,267;30,53
661,506;30,56
661,744;30,59
661,983;30,59
662,222;30,6
662,461;30,63
662,7;30,65
662,939;30,65
663,177;30,66
663,416;30,66
663,655;30,67
663,894;30,7
664,132;30,71
664,371;30,72
664,61;30,7
664,848;30,74
665,087;30,76
665,326;30,76
665,564;30,79
665,803;30,83
666,041;30,86
666,28;30,9
666,518;30,9
666,757;30,92
666,995;30,95
667,234;30,98
667,472;31
667,711;31,01
667,949;31,06
668,187;31,08
668,426;31,1
668,664;31,13
668,902;31,14
669,141;31,15
669,379;31,21
669,617;31,24
669,856;31,26
670,094;31,28
670,332;31,3
670,57;31,28
670,808;31,29
671,046;31,3
671,285;31,32
671,523;31,36
671,761;31,39
671,999;31,38
672,237;31,45
672,475;31,48
672,713;31,49
672,951;31,51
673,189;31,52
673,427;31,54
673,665;31,56
673,903;31,57
674,141;31,63
674,379;31,66
674,617;31,7
674,854;31,72
675,092;31,75
675,33;31,77
675,568;31,82
675,806;31,88
676,043;31,9
676,281;31,94
676,519;31,97
676,756;31,97
676,994;32,01
677,232;32,01
677,469;32
677,707;32,04
677,945;32,04
678,182;32,08
678,42;32,1
678,657;32,12
678,895;32,12
679,132;32,12
679,37;32,1
679,607;32,07
679,845;32,08
680,082;32,14
680,32;32,15
680,557;32,17
680,794;32,17
681,032;32,17
681,269;32,17
681,507;32,18
681,744;32,22
681,981;32,28
682,218;32,27
682,456;32,31
682,693;32,34
682,93;32,36
683,167;32,39
683,404;32,4
683,642;32,43
683,879;32,46
684,116;32,49
684,353;32,51
684,59;32,58
684,827;32,59
685,064;32,58
685,301;32,58
685,538;32,58
685,775;32,6
686,012;32,62
686,249;32,66
686,486;32,67
686,723;32,69
686,96;32,67
687,197;32,7
687,433;32,7
687,67;32,72
687,907;32,72
688,144;32,74
688,381;32,77
688,617;32,79
688,854;32,82
689,091;32,83
689,327;32,87
689,564;32,88
689,801;32,9
690,037;32,94
690,274;32,99
690,511;33,02
690,747;33,06
690,984;33,07
691,22;33,09
691,457;33,11
691,693;33,14
691,93;33,19
692,166;33,24
692,403;33,31
692,639;33,33
692,876;33,35
693,112;33,36
693,348;33,36
693,585;33,34
693,821;33,37
694,057;33,38
694,294;33,4
694,53;33,41
694,766;33,44
695,002;33,43
695,239;33,46
695,475;33,48
695,711;33,49
695,947;33,54
696,183;33,55
696,419;33,59
696,656;33,6
696,892;33,61
697,128;33,62
697,364;33,61
697,6;33,63
697,836;33,63
698,072;33,65
698,308;33,73
698,544;33,77
698,78;33,77
699,016;33,8
699,251;33,84
699,487;33,89
699,723;33,91
699,959;33,94
700,195;33,95
700,431;33,99
700,666;34
700,902;33,99
701,138;34,02
701,374;34,03
701,609;34,09
701,845;34,1
702,081;34,13
702,316;34,16
702,552;34,18
702,788;34,24
703,023;34,29
703,259;34,3
703,494;34,33
703,73;34,39
703,965;34,41
704,201;34,43
704,436;34,43
704,672;34,44
704,907;34,48
705,143;34,52
705,378;34,55
705,613;34,57
705,849;34,58
706,084;34,57
706,319;34,6
706,555;34,6
706,79;34,62
707,025;34,62
707,26;34,65
707,496;34,67
707,731;34,71
707,966;34,73
708,201;34,74
708,436;34,78
708,671;34,76
708,907;34,81
709,142;34,84
709,377;34,88
709,612;34,93
709,847;34,93
710,082;34,95
710,317;34,97
710,552;35,03
710,787;35,08
711,022;35,12
711,257;35,16
711,492;35,19
711,726;35,22
711,961;35,27
712,196;35,3
712,431;35,34
712,666;35,35
712,901;35,38
713,135;35,39
713,37;35,43
713,605;35,48
713,839;35,5
714,074;35,51
714,309;35,53
714,543;35,56
714,778;35,58
715,013;35,61
715,247;35,64
715,482;35,63
715,716;35,65
715,951;35,7
716,185;35,73
716,42;35,74
716,654;35,75
716,889;35,76
717,123;35,76
717,358;35,76
717,592;35,76
717,827;35,76
718,061;35,79
718,295;35,79
718,53;35,79
718,764;35,8
718,998;35,81
719,232;35,83
719,467;35,85
719,701;35,87
719,935;35,86
720,169;35,87
720,403;35,89
720,638;35,93
720,872;35,91
721,106;35,91
721,34;35,93
721,574;35,95
721,808;35,94
722,042;35,99
722,276;35,99
722,51;36,03
722,744;36,05
722,978;36,07
723,212;36,09
723,446;36,13
723,68;36,15
723,914;36,22
724,147;36,25
724,381;36,27
724,615;36,28
724,849;36,32
725,083;36,37
725,316;36,38
725,55;36,42
725,784;36,47
726,018;36,49
726,251;36,54
726,485;36,59
726,719;36,64
726,952;36,67
727,186;36,75
727,419;36,77
727,653;36,85
727,887;36,9
728,12;36,95
728,354;36,99
728,587;37,01
728,821;36,99
729,054;37,03
729,287;37,07
729,521;37,16
729,754;37,16
729,988;37,13
730,221;37,21
730,454;37,22
730,688;37,24
730,921;37,26
731,154;37,26
731,387;37,27
731,621;37,33
731,854;37,34
732,087;37,37
732,32;37,41
732,553;37,4
732,787;37,41
733,02;37,45
733,253;37,42
733,486;37,43
733,719;37,46
733,952;37,47
734,185;37,45
734,418;37,44
734,651;37,48
734,884;37,53
735,117;37,49
735,35;37,5
735,583;37,51
735,816;37,55
736,049;37,57
736,281;37,6
736,514;37,57
736,747;37,61
736,98;37,61
737,213;37,65
737,445;37,64
737,678;37,66
737,911;37,61
738,144;37,65
738,376;37,73
738,609;37,78
738,842;37,76
739,074;37,8
739,307;37,82
739,539;37,85
739,772;37,87
740,004;37,91
740,237;37,96
740,469;37,99
740,702;37,97
740,934;38,02
741,167;38,03
741,399;38,06
741,632;38,05
741,864;38,06
742,096;38,07
742,329;38,09
742,561;38,09
742,793;38,13
743,026;38,15
743,258;38,15
743,49;38,08
743,723;38,11
743,955;38,09
744,187;38,12
744,419;38,11
744,651;38,1
744,883;38,09
745,115;38,11
745,348;38,11
745,58;38,12
745,812;38,11
746,044;38,13
746,276;38,16
746,508;38,22
746,74;38,23
746,972;38,27
747,204;38,3
747,436;38,31
747,667;38,32
747,899;38,34
748,131;38,35
748,363;38,42
748,595;38,46
748,827;38,5
749,058;38,5
749,29;38,5
749,522;38,51
749,754;38,53
749,985;38,49
750,217;38,49
750,449;38,53
750,68;38,52
750,912;38,57
751,144;38,57
751,375;38,53
751,607;38,55
751,838;38,55
752,07;38,51
752,301;38,54
752,533;38,52
752,764;38,5
752,996;38,49
753,227;38,51
753,459;38,52
753,69;38,51
753,921;38,52
754,153;38,55
754,384;38,59
754,615;38,61
754,847;38,65
755,078;38,72
755,309;38,74
755,54;38,76
755,772;38,71
756,003;38,75
756,234;38,75
756,465;38,76
756,696;38,76
756,927;38,79
757,159;38,77
757,39;38,83
757,621;38,88
757,852;38,9
758,083;38,9
758,314;38,91
758,545;38,94
758,776;38,91
759,007;38,9
759,238;38,87
759,469;38,89
759,699;38,87
759,93;38,82
760,161;38,79
760,392;38,8
760,623;38,82
760,854;38,8
761,084;38,81
761,315;38,78
761,546;38,76
761,776;38,75
762,007;38,76
762,238;38,77
762,468;38,74
762,699;38,76
762,93;38,76
763,16;38,74
763,391;38,71
763,621;38,76
763,852;38,81
764,083;38,83
764,313;38,82
764,543;38,8
764,774;38,81
765,004;38,82
765,235;38,83
765,465;38,82
765,696;38,8
765,926;38,82
766,156;38,83
766,387;38,85
766,617;38,88
766,847;38,9
767,077;38,87
767,308;38,88
767,538;38,88
767,768;38,85
767,998;38,82
768,228;38,82
768,459;38,8
768,689;38,79
768,919;38,83
769,149;38,87
769,379;38,86
769,609;38,88
769,839;38,87
770,069;38,86
770,299;38,82
770,529;38,83
770,759;38,84
770,989;38,85
771,219;38,83
771,449;38,79
771,678;38,78
771,908;38,8
772,138;38,81
772,368;38,83
772,598;38,81
772,827;38,85
773,057;38,86
773,287;38,88
773,517;38,88
773,746;38,85
773,976;38,79
774,206;38,85
774,435;38,84
774,665;38,86
774,894;38,85
775,124;38,86
775,354;38,84
775,583;38,84
775,813;38,82
776,042;38,84
776,272;38,83
776,501;38,84
776,73;38,83
776,96;38,86
777,189;38,82
777,419;38,87
777,648;38,84
777,877;38,81
778,107;38,78
778,336;38,78
778,565;38,77
778,794;38,79
779,024;38,74
779,253;38,73
779,482;38,7
779,711;38,72
779,94;38,76
780,17;38,75
780,399;38,72
780,628;38,77
780,857;38,8
781,086;38,81
781,315;38,81
781,544;38,83
781,773;38,76
782,002;38,76
782,231;38,78
782,46;38,79
782,689;38,8
782,918;38,79
783,147;38,76
783,375;38,73
783,604;38,75
783,833;38,73
784,062;38,69
784,291;38,68
784,519;38,68
784,748;38,64
784,977;38,62
785,206;38,62
785,434;38,59
785,663;38,55
785,892;38,56
786,12;38,56
786,349;38,53
786,577;38,54
786,806;38,53
787,034;38,47
787,263;38,45
787,492;38,47
787,72;38,46
787,948;38,45
788,177;38,46
788,405;38,44
788,634;38,45
788,862;38,44
789,09;38,43
789,319;38,4
789,547;38,39
789,775;38,37
790,004;38,33
790,232;38,35
790,46;38,3
790,688;38,25
790,917;38,22
791,145;38,21
791,373;38,2
791,601;38,16
791,829;38,15
792,057;38,14
792,286;38,11
792,514;38,1
792,742;38,06
792,97;38,04
793,198;37,99
793,426;37,98
793,654;37,99
793,882;38
794,109;38
794,337;38,02
794,565;37,99
794,793;38
795,021;37,91
795,249;37,94
795,477;37,91
795,704;37,88
795,932;37,86
796,16;37,87
796,388;37,87
796,615;37,85
796,843;37,85
797,071;37,84
797,298;37,81
797,526;37,82
797,754;37,78
797,981;37,79
798,209;37,74
798,436;37,7
798,664;37,66
798,891;37,6
799,119;37,54
799,346;37,52
799,574;37,52
799,801;37,59
800,029;37,54
800,256;37,58
800,483;37,56
800,711;37,51
800,938;37,39
801,165;37,39
801,393;37,4
801,62;37,35
801,847;37,35
802,074;37,35
802,302;37,31
802,529;37,31
802,756;37,29
802,983;37,35
803,21;37,35
803,437;37,37
803,665;37,4
803,892;37,39
804,119;37,38
804,346;37,37
804,573;37,27
804,8;37,28
805,027;37,22
805,254;37,16
805,481;37,17
805,708;37,22
805,934;37,14
806,161;37,08
806,388;37,06
806,615;37
806,842;37
807,069;37,01
807,295;36,98
807,522;36,99
807,749;36,93
807,976;36,89
808,202;36,88
808,429;36,82
808,656;36,8
808,882;36,87
809,109;36,81
809,335;36,83
809,562;36,8
809,789;36,75
810,015;36,74
810,242;36,75
810,468;36,75
810,695;36,74
810,921;36,73
811,147;36,71
811,374;36,7
811,6;36,7
811,827;36,64
812,053;36,61
812,279;36,54
812,506;36,52
812,732;36,54
812,958;36,5
813,185;36,48
813,411;36,43
813,637;36,41
813,863;36,39
814,089;36,39
814,315;36,37
814,542;36,43
814,768;36,38
814,994;36,35
815,22;36,3
815,446;36,32
815,672;36,31
815,898;36,34
816,124;36,3
816,35;36,2
816,576;36,25
816,802;36,29
817,028;36,28
817,254;36,27
817,48;36,23
817,705;36,23
817,931;36,24
818,157;36,23
818,383;36,16
818,609;36,15
818,834;36,09
819,06;36,06
819,286;36,01
819,512;36,06
819,737;35,98
819,963;35,99
820,189;35,94
820,414;35,92
820,64;35,84
820,865;35,86
821,091;35,87
821,316;35,81
821,542;35,73
821,767;35,7
821,993;35,7
822,218;35,67
822,444;35,61
822,669;35,6
822,895;35,62
823,12;35,64
823,345;35,63
823,571;35,56
823,796;35,55
824,021;35,45
824,247;35,47
824,472;35,45
824,697;35,39
824,922;35,42
825,147;35,43
825,373;35,45
825,598;35,38
825,823;35,37
826,048;35,36
826,273;35,33
826,498;35,38
826,723;35,32
826,948;35,31
827,173;35,27
827,398;35,23
827,623;35,17
827,848;35,12
828,073;35,14
828,298;35,15
828,523;35,14
828,748;35,18
828,973;35,09
829,197;35,12
829,422;35,08
829,647;35,02
829,872;34,98
830,097;34,96
830,321;35,02
830,546;35,04
830,771;35,06
830,995;35,06
831,22;34,99
831,445;34,94
831,669;34,97
831,894;34,94
832,118;34,95
832,343;34,95
832,567;34,88
832,792;34,86
833,016;34,83
833,241;34,82
833,465;34,77
833,69;34,75
833,914;34,77
834,139;34,84
834,363;34,86
834,587;34,84
834,812;34,83
835,036;34,76
835,26;34,77
835,485;34,71
835,709;34,73
835,933;34,73
836,157;34,67
836,381;34,61
836,606;34,63
836,83;34,6
837,054;34,56
837,278;34,55
837,502;34,5
837,726;34,52
837,95;34,5
838,174;34,56
838,398;34,56
838,622;34,52
838,846;34,46
839,07;34,4
839,294;34,38
839,518;34,37
839,742;34,34
839,966;34,33
840,189;34,32
840,413;34,3
840,637;34,3
840,861;34,36
841,085;34,3
841,308;34,26
841,532;34,28
841,756;34,33
841,979;34,33
842,203;34,34
842,427;34,33
842,65;34,28
842,874;34,22
843,098;34,26
843,321;34,28
843,545;34,32
843,768;34,29
843,992;34,26
844,215;34,26
844,439;34,27
844,662;34,2
844,886;34,24
845,109;34,24
845,332;34,22
845,556;34,22
845,779;34,18
846,002;34,22
846,226;34,16
846,449;34,1
846,672;34,08
846,895;34,07
847,119;34,04
847,342;34,07
847,565;34,07
847,788;33,99
848,011;33,91
848,234;33,83
848,457;33,81
848,681;33,81
848,904;33,76
849,127;33,73
849,35;33,69
849,573;33,65
849,796;33,65
850,019;33,56
850,241;33,54
850,464;33,54
850,687;33,59
850,91;33,58
851,133;33,54
851,356;33,59
851,579;33,6
851,801;33,57
852,024;33,53
852,247;33,48
852,47;33,43
852,692;33,45
852,915;33,46
853,138;33,48
853,36;33,5
853,583;33,45
853,806;33,5
854,028;33,47
854,251;33,4
854,473;33,37
854,696;33,43
854,918;33,44
855,141;33,52
855,363;33,45
855,586;33,42
855,808;33,43
856,031;33,36
856,253;33,27
856,475;33,29
856,698;33,23
856,92;33,21
857,142;33,32
857,365;33,3
857,587;33,19
857,809;33,17
858,031;33,15
858,253;33,16
858,476;33,11
858,698;33,07
858,92;33,06
859,142;33,07
859,364;33,01
859,586;32,98
859,808;32,94
860,03;32,88
860,252;32,88
860,474;32,92
860,696;32,96
860,918;32,97
861,14;32,96
861,362;33,03
861,584;33,08
861,806;33,03
862,028;32,98
862,25;33,09
862,471;33,09
862,693;33,08
862,915;33,06
863,137;32,95
863,358;33,01
863,58;33,05
863,802;32,97
864,024;32,97
864,245;32,96
864,467;32,94
864,688;32,97
864,91;33,06
865,132;32,94
865,353;32,9
865,575;32,95
865,796;32,91
866,018;32,87
866,239;32,8
866,461;32,8
866,682;32,8
866,903;32,79
867,125;32,75
867,346;32,78
867,567;32,81
867,789;32,88
868,01;32,79
868,231;32,64
868,453;32,67
868,674;32,71
868,895;32,72
869,116;32,7
869,337;32,7
869,559;32,58
869,78;32,6
870,001;32,57
870,222;32,51
870,443;32,53
870,664;32,47
870,885;32,48
871,106;32,46
871,327;32,52
871,548;32,49
871,769;32,48
871,99;32,51
872,211;32,44
872,432;32,48
872,653;32,56
872,874;32,78
873,094;32,77
873,315;32,7
873,536;32,69
873,757;32,65
873,978;32,63
874,198;32,62
874,419;32,66
874,64;32,62
874,86;32,59
875,081;32,61
875,302;32,68
875,522;32,73
875,743;32,68
875,963;32,59
876,184;32,51
876,404;32,5
876,625;32,43
876,845;32,48
877,066;32,42
877,286;32,4
877,507;32,37
877,727;32,4
877,947;32,45
878,168;32,34
878,388;32,37
878,609;32,4
878,829;32,46
879,049;32,51
879,269;32,51
879,49;32,53
879,71;32,48
879,93;32,42
880,15;32,38
880,37;32,43
880,59;32,49
880,811;32,57
881,031;32,58
881,251;32,61
881,471;32,58
881,691;32,62
881,911;32,61
882,131;32,52
882,351;32,47
882,571;32,39
882,791;32,48
883,011;32,48
883,23;32,39
883,45;32,33
883,67;32,24
883,89;32,23
884,11;32,27
884,33;32,28
884,549;32,26
884,769;32,21
884,989;32,17
885,209;32,18
885,428;32,23
885,648;32,14
885,868;32,21
886,087;32,19
886,307;32,14
886,526;32,16
886,746;32,19
886,965;32,22
887,185;32,33
887,404;32,24
887,624;32,32
887,843;32,39
888,063;32,41
888,282;32,47
888,502;32,58
888,721;32,61
888,94;32,61
889,16;32,63
889,379;32,64
889,598;32,69
889,818;32,68
890,037;32,64
890,256;32,8
890,475;32,73
890,694;32,75
890,914;32,78
891,133;32,69
891,352;32,71
891,571;32,57
891,79;32,51
892,009;32,45
892,228;32,38
892,447;32,35
892,666;32,43
892,885;32,42
893,104;32,29
893,323;32,3
893,542;32,38
893,761;32,46
893,98;32,41
894,199;32,35
894,417;32,18
894,636;32,19
894,855;32,12
895,074;32,07
895,293;32,03
895,511;32,03
895,73;32,13
895,949;32,04
896,167;32,11
896,386;32,18
896,605;32,37
896,823;32,35
897,042;32,38
897,26;32,24
897,479;32,26
897,697;32,38
897,916;32,34
898,134;32,27
898,353;32,31
898,571;32,35
898,79;32,36
899,008;32,49
899,227;32,44
899,445;32,37
899,663;32,27
899,882;32,3
900,1;32,42
900,318;32,42
900,536;32,56
900,755;32,63
900,973;32,45
901,191;32,33
901,409;32,28
901,627;32,18
901,846;32,29
902,064;32,16
902,282;32,19
902,5;32,14
902,718;32,13
902,936;31,99
903,154;32,04
903,372;31,99
903,59;31,98
903,808;32,06
904,026;32,1
904,244;32,23
904,462;32,15
904,679;31,97
904,897;32
905,115;31,88
905,333;31,92
905,551;32,07
905,768;32,14
905,986;32,24
906,204;32,27
906,422;32,24
906,639;32,32
906,857;32,27
907,074;32,25
907,292;32,27
907,51;32,38
907,727;32,35
907,945;32,51
908,162;32,51
908,38;32,48
908,597;32,5
908,815;32,57
909,032;32,65
909,25;32,69
909,467;32,65
909,684;32,74
909,902;32,71
910,119;32,65
910,337;32,69
910,554;32,69
910,771;32,77
910,988;32,81
911,206;32,77
911,423;32,88
911,64;33
911,857;33,01
912,074;33
912,291;32,92
912,509;32,85
912,726;32,86
912,943;32,88
913,16;32,96
913,377;32,92
913,594;32,92
913,811;32,96
914,028;32,91
914,245;32,87
914,462;32,75
914,679;32,78
914,896;32,81
915,112;32,76
915,329;32,81
915,546;32,65
915,763;32,7
915,98;32,53
916,196;32,37
916,413;32,44
916,63;32,41
916,847;32,51
917,063;32,45
917,28;32,51
917,497;32,51
917,713;32,45
917,93;32,53
918,146;32,63
918,363;32,65
918,579;32,65
918,796;32,68
919,012;32,9
919,229;32,93
919,445;32,93
919,662;32,99
919,878;32,97
920,095;33,13
920,311;33,21
920,527;33,26
920,744;33,4
920,96;33,36
921,176;33,31
921,392;33,35
921,609;33,58
921,825;33,63
922,041;33,71
922,257;33,56
922,473;33,59
922,69;33,64
922,906;33,6
923,122;33,79
923,338;33,72
923,554;33,59
923,77;33,54
923,986;33,52
924,202;33,57
924,418;33,51
924,634;33,44
924,85;33,29
925,066;33,29
925,282;33,22
925,497;33,21
925,713;33,36
925,929;33,37
926,145;33,24
926,361;33,19
926,576;33,15
926,792;33,2
927,008;33,11
927,224;33,05
927,439;33,05
927,655;32,96
927,871;32,94
928,086;33,04
928,302;33,03
928,517;32,99
928,733;33,05
928,948;33,12
929,164;33,15
929,379;33,12
929,595;33,12
929,81;33,14
930,026;33,05
930,241;32,97
930,456;32,81
930,672;32,83
930,887;32,77
931,102;32,76
931,318;32,92
931,533;32,84
931,748;32,8
931,964;32,78
932,179;32,76
932,394;32,69
932,609;32,62
932,824;32,63
933,039;32,64
933,255;32,53
933,47;32,38
933,685;32,38
933,9;32,55
934,115;32,57
934,33;32,58
934,545;32,66
934,76;32,77
934,975;32,96
935,19;32,96
935,404;32,93
935,619;33,03
935,834;33,11
936,049;33,29
936,264;33,32
936,479;33,43
936,693;33,53
936,908;34,06
937,123;34,17
937,338;34,36
937,552;34,36
937,767;34,45
937,982;34,99
938,196;35,25
938,411;35,37
938,625;35,49
938,84;35,65
939,055;35,83
939,269;35,81
939,484;36,13
939,698;36,31
939,912;36,4
940,127;36,47
940,341;36,17
940,556;35,87
940,77;36,36
940,984;36,53
941,199;36,82
941,413;36,51
941,627;36,8
941,842;36,88
942,056;37,19
942,27;37,1
942,484;36,91
942,699;36,96
942,913;36,48
943,127;36,39
943,341;36,72
943,555;37,23
943,769;37,08
943,983;37,02
944,197;36,69
944,411;36,8
944,625;36,61
944,839;37,37
945,053;38,06
945,267;37,79
945,481;37,67
945,695;37,83
945,909;37,84
946,123;37,7
946,336;37,87
946,55;38,05
946,764;38,68
946,978;38,27
947,192;38,22
947,405;38,94
947,619;39,41
947,833;39,78
948,046;39,37
948,26;39,54
948,474;39,16
948,687;39,74
948,901;39,98
949,114;39,76
949,328;39,7
949,541;39,33
949,755;39,13
949,968;39,36
950,182;38,8
950,395;38,31
950,609;38,61
950,822;38,73
951,035;38,62
951,249;38,01
951,462;38,77
951,675;38,59
951,889;37,72
952,102;37,37
952,315;37,15
952,528;37,13
952,741;36,67
952,955;36,92
953,168;36,89
953,381;36,91
953,594;36,99
953,807;36,91
954,02;37,01
954,233;36,85
954,446;36,61
954,659;37,41
954,872;37,27
955,085;36,98
955,298;36,9
955,511;36,7
955,724;36,95
955,937;36,47
956,15;36,5
956,362;36,9
956,575;36,99
956,788;36,55
957,001;36,77
957,214;36,88
957,426;36,86
957,639;36,82
957,852;36,68
958,064;36,73
958,277;36,62
958,49;36,27
958,702;36,44
958,915;36,54
959,127;36,02
959,34;36,57
959,552;36,41
959,765;36,05
959,977;36,22
960,19;36,16
960,402;36,22
960,615;36,29
960,827;36,16
961,039;35,65
961,252;35,61
961,464;35,16
961,676;35,51
961,889;35,58
962,101;35,71
962,313;35,93
962,525;35,93
962,738;35,95
962,95;36,29
963,162;36,6
963,374;36,77
963,586;36,57
963,798;36,6
964,01;36,8
964,222;36,94
964,434;36,87
964,646;36,75
964,858;36,54
965,07;36,66
965,282;36,66
965,494;37
965,706;37,37
965,918;37,82
966,13;37,7
966,342;37,51
966,553;37,22
966,765;37,1
966,977;37,62
967,189;37,67
967,401;37,98
967,612;37,62
967,824;37,47
968,036;37,51
968,247;37,19
968,459;37,28
968,67;37,39
968,882;37,17
969,094;37,17
969,305;37,3
969,517;37,12
969,728;37,59
969,94;37,88
970,151;37,33
970,362;37,09
970,574;37,18
970,785;37,2
970,997;37,25
971,208;37,3
971,419;36,76
971,631;36,68
971,842;36,76
972,053;37,08
972,264;37,38
972,476;37,5
972,687;37,61
972,898;37,44
973,109;37,67
973,32;38,09
973,531;38,14
973,742;38,06
973,954;38,21
974,165;38,05
974,376;37,82
974,587;38,45
974,798;38,6
975,009;38,6
975,22;38,84
975,43;39,14
975,641;39,38
975,852;39,69
976,063;39,72
976,274;39,51
976,485;39,35
976,695;38,95
976,906;38,95
977,117;39,49
977,328;39,77
977,538;39,46
977,749;39,27
977,96;39,66
978,17;39,84
978,381;39,97
978,592;40,07
978,802;40,4
979,013;40,36
979,223;40,7
979,434;40,67
979,644;40,63
979,855;40,79
980,065;40,9
980,276;40,79
980,486;40,78
980,696;40,25
980,907;40,11
981,117;40,31
981,327;40,37
981,538;39,8
981,748;39,42
981,958;39,83
982,169;40,06
982,379;39,75
982,589;39,48
982,799;39,33
983,009;39,35
983,219;39,25
983,43;38,97
983,64;38,82
983,85;39,11
984,06;39,47
984,27;38,43
984,48;38,48
984,69;38,26
984,9;38,17
985,11;38,92
985,32;39,22
985,529;39,08
985,739;38,93
985,949;39,44
986,159;39,36
986,369;39,15
986,579;39,16
986,788;39,73
986,998;39,77
987,208;39,66
987,417;39,21
987,627;39,28
987,837;39,16
988,046;38,81
988,256;38,2
988,466;37,67
988,675;38,18
988,885;38,11
989,094;38,58
989,304;38,71
989,513;38,61
989,723;38,74
989,932;38,99
990,142;39,01
990,351;38,58
990,56;39,01
990,77;39,09
990,979;38,81
991,188;38,73
991,398;39,38
991,607;39,34
991,816;39,99
992,025;40,02
992,235;40,03
992,444;40,76
992,653;41,96
992,862;42,33
993,071;42,49
993,28;42,33
993,489;42,24
993,698;42,12
993,908;42,58
994,117;42,16
994,326;42,24
994,534;42,2
994,743;42,69
994,952;43,12
995,161;42,52
995,37;43,3
995,579;43,48
995,788;43,4
995,997;43,29
996,205;43,25
996,414;43,28
996,623;43,66
996,832;43,4
997,04;42,91
997,249;42,61
997,458;42,78
997,666;43,27
997,875;43,69
998,084;43,24
998,292;42,19
998,501;42,55
998,709;42,38
998,918;42,85
999,126;42,3
999,335;41,8
999,543;42,69
999,752;42,47
999,96;42,27
1000,169;41,8
1000,377;41,87
1000,585;41,21
1000,794;41,23
1001,002;41,34
1001,21;40,56
1001,418;40,22
1001,627;40,46
1001,835;40,59
1002,043;40,38
1002,251;40,21
1002,459;40,83
1002,668;40,84
1002,876;40,99
1003,084;41,14
1003,292;40,74
1003,5;41,16
1003,708;41,18
1003,916;40,67
1004,124;40,14
1004,332;39,78
1004,54;40,26
1004,748;40,65
1004,956;41,1
1005,163;40,78
1005,371;40,69
1005,579;41,84
1005,787;42,75
1005,995;42,94
1006,202;43,04
1006,41;43,58
1006,618;42,77
1006,826;43,49
1007,033;44,03
1007,241;43,7
1007,449;43,75
1007,656;43,97
1007,864;44,21
1008,071;44,35
1008,279;44,73
1008,486;45,56
1008,694;45,56
1008,901;45,28
1009,109;44,59
1009,316;45,13
1009,524;45,9
1009,731;46,12
1009,938;46,26
1010,146;46,12
1010,353;46,4
1010,56;45,68
1010,768;45,64
1010,975;46,44
1011,182;45,99
1011,389;45,19
1011,597;46,31
1011,804;46,15
1012,011;46,42
1012,218;45,25
1012,425;45,68
1012,632;46,06
1012,839;46,38
1013,046;46,47
1013,253;46,82
1013,46;48,09
1013,667;47,9
1013,874;47,5
1014,081;48,12
1014,288;47,32
1014,495;46,32
1014,702;45,42
1014,909;45,62
1015,116;44,24
1015,323;44,2
1015,529;44,63
1015,736;46,07
1015,943;45,43
1016,15;44,42
1016,356;44,56
1016,563;45,6
1016,77;44,88
1016,976;45,13
1017,183;44,06
1017,389;44,86
1017,596;45,53
1017,803;44,83
1018,009;44,02
1018,216;43,65
1018,422;43,53
1018,629;44,49
1018,835;44,64
1019,041;45,48
1019,248;46,18
1019,454;46,89
1019,661;47,09
1019,867;46,3
1020,073;46,56
1020,279;47,16
1020,486;48,21
1020,692;49,01
1020,898;48,41
1021,104;49,32
1021,311;47,55
1021,517;46,79
1021,723;46,9
1021,929;47,04
1022,135;46,88
1022,341;47,94
1022,547;48,78
1022,753;47,48
1022,959;46,46
1023,165;46,73
1023,371;46,92
1023,577;45,99
1023,783;45,32
1023,989;45,28
1024,195;45
1024,401;45,09
1024,607;44,59
1024,812;45,9
1025,018;45,73
1025,224;46,49
1025,43;45,88
1025,635;45,91
1025,841;48,38
1026,047;45,79
1026,252;45,97
1026,458;48,86
1026,664;48,55
1026,869;49,5
1027,075;50,09
1027,28;49,21
1027,486;49,62
1027,691;49,75
1027,897;51,08
1028,102;51,45
1028,308;50,78
1028,513;50,33
1028,719;48,67
1028,924;48,47
1029,129;46,66
1029,335;46,85
1029,54;47,3
1029,745;47,3
1029,95;48,39
1030,156;47,66
1030,361;49,5
1030,566;49,41
1030,771;47,56
1030,976;48,02
1031,182;47,54
1031,387;48,17
1031,592;49,81
1031,797;48,47
1032,002;47,45
1032,207;47,7
1032,412;48,21
1032,617;49,31
1032,822;49,59
1033,027;52,23
1033,232;51,87
1033,437;53,76
1033,642;50,7
1033,846;50,55
1034,051;50,71
1034,256;50,79
1034,461;50,57
1034,666;50,15
1034,87;47,75
1035,075;46,22
1035,28;45,5
1035,484;45,03
1035,689;43,25
1035,894;44,45
1036,098;44,78
1036,303;45,74
1036,507;44,8
1036,712;45,54
1036,917;46,49
1037,121;50,84
1037,325;48,95
1037,53;52,27
1037,734;50,6
1037,939;54,99
1038,143;56,06
1038,348;56,45
1038,552;57,38
1038,756;58,8
1038,961;58,38
1039,165;59,13
1039,369;60,81
1039,573;60,11
1039,778;60,93
1039,982;62,1
1040,186;61,44
1040,39;62,77
1040,594;63,38
1040,798;63,26
1041,002;62,73
1041,206;61,11
1041,41;58,27
1041,614;58,77
1041,818;55,17
1042,022;52,84
1042,226;51,09
1042,43;50,51
1042,634;50,22
1042,838;48,23
1043,042;47,22
1043,246;47,63
1043,45;48,03
1043,653;45,08
1043,857;47,22
1044,061;46,23
1044,265;46,1
1044,468;45,43
1044,672;46,61
1044,876;43,94
1045,079;41,52
1045,283;42,41
1045,487;42,84
1045,69;41,38
1045,894;41,31
1046,097;42,37
1046,301;45,7
1046,504;47,77
1046,708;47,2
1046,911;48,72
1047,115;50,62
1047,318;49,54
1047,522;53,74
1047,725;53,67
1047,928;58,81
1048,132;59,09
1048,335;59,62
1048,538;60,54
1048,741;60,47
1048,945;59,85
1049,148;63,21
1049,351;62,67
1049,554;64,65
1049,757;70,59
1049,96;71,04
1050,163;73,51
1050,367;74,74
1050,57;77,44
1050,773;75,51
1050,976;74,93
1051,179;72,45
1051,382;74,36
1051,585;74,97
1051,787;71,69
1051,99;71,29
1052,193;70,57
1052,396;72,84
1052,599;70,36
1052,802;73,18
1053,005;71,3
1053,207;72,19
1053,41;70,19
1053,613;72,65
1053,815;70,77
1054,018;65,45
1054,221;70,59
1054,423;70,67
1054,626;68,78
1054,829;66,4
1055,031;67,1
1055,234;67,99
1055,436;69,99
1055,639;66,88
1055,841;64,59
1056,044;67,37
1056,246;69,99
