Data from sienaNatWhite_Reflection__4__35.txt Node;
"Date: Wed Sep 10 12:23:52 CEST 2025 User: sycur Spectrometer: SR400348 Trigger mode: 0 Integration Time (sec): 1,000000E-2 Scans to average: 10 Electric dark correction enabled: true Nonlinearity correction enabled: false Boxcar width: 10 XAxis mode: Wavelengths Number of Pixels in Spectrum: 3648 >>>>>Begin Spectral Data<<<<<";
186,01;5,7
186,281;25,78
186,552;25,5
186,822;13,19
187,093;333,33
187,364;157,43
187,635;-8,09
187,905;-14,49
188,176;2,95
188,447;9,81
188,717;15,07
188,988;15,38
189,258;12
189,529;22,04
189,8;16,35
190,07;19,38
190,341;12,82
190,611;14,83
190,882;12,2
191,152;12,41
191,423;12,12
191,693;14,05
191,964;13,87
192,234;16,09
192,505;14,85
192,775;16,1
193,045;15,91
193,316;15,91
193,586;15,74
193,856;16,27
194,127;15,52
194,397;14,69
194,667;14,87
194,938;16,53
195,208;14,92
195,478;15,96
195,748;14,84
196,019;15,02
196,289;14,49
196,559;13,3
196,829;13,54
197,099;14,9
197,37;14,31
197,64;13,66
197,91;12,54
198,18;12,65
198,45;12,34
198,72;12,13
198,99;12,07
199,26;11,9
199,53;11,5
199,8;11,52
200,07;11,29
200,34;10,56
200,61;9,4
200,88;9,62
201,15;9,28
201,42;9,74
201,69;9,95
201,96;9,51
202,23;10,2
202,499;9,79
202,769;8,59
203,039;7,23
203,309;6,64
203,579;6,91
203,849;7,18
204,118;6,61
204,388;6,34
204,658;6,14
204,927;6,1
205,197;5,39
205,467;5,12
205,736;5,19
206,006;5,5
206,276;5,95
206,545;6,02
206,815;5,84
207,085;5,8
207,354;6,06
207,624;6,05
207,893;6,01
208,163;5,68
208,432;6,02
208,702;6,09
208,971;6,52
209,241;6,21
209,51;5,97
209,78;6,12
210,049;6,04
210,318;6,21
210,588;6,12
210,857;6,3
211,127;6,32
211,396;6,06
211,665;5,81
211,935;5,88
212,204;5,75
212,473;5,73
212,742;5,5
213,012;5,56
213,281;5,52
213,55;5,5
213,819;5,32
214,088;5,25
214,358;5,39
214,627;5,19
214,896;5,05
215,165;4,87
215,434;4,6
215,703;4,54
215,972;4,53
216,241;4,71
216,51;4,55
216,779;4,4
217,048;4,45
217,317;4,33
217,586;4,3
217,855;4,25
218,124;4,24
218,393;4,08
218,662;4,03
218,931;3,9
219,2;3,58
219,469;3,66
219,738;3,7
220,006;3,75
220,275;3,73
220,544;3,86
220,813;4
221,082;4,03
221,35;4
221,619;3,94
221,888;3,73
222,157;3,88
222,425;3,95
222,694;3,91
222,963;4,04
223,231;3,93
223,5;3,94
223,769;3,82
224,037;3,88
224,306;3,76
224,574;3,79
224,843;3,89
225,111;3,88
225,38;3,69
225,648;3,48
225,917;3,43
226,185;3,39
226,454;3,34
226,722;3,36
226,991;3,4
227,259;3,37
227,528;3,34
227,796;3,27
228,064;3,19
228,333;3,2
228,601;3,14
228,869;3,12
229,138;3,09
229,406;3,17
229,674;3,14
229,942;3,19
230,211;3,21
230,479;3,16
230,747;3,18
231,015;3,23
231,283;3,29
231,552;3,3
231,82;3,24
232,088;3,22
232,356;3,23
232,624;3,19
232,892;3,23
233,16;3,27
233,428;3,22
233,696;3,23
233,964;3,19
234,232;3,24
234,5;3,22
234,768;3,2
235,036;3,16
235,304;3,21
235,572;3,21
235,84;3,14
236,108;3,13
236,376;3,1
236,644;3,09
236,912;3,1
237,179;3,07
237,447;3,05
237,715;3,02
237,983;3
238,251;3,01
238,518;2,93
238,786;2,91
239,054;2,87
239,322;2,9
239,589;2,91
239,857;2,85
240,125;2,87
240,392;2,87
240,66;2,89
240,927;2,8
241,195;2,72
241,463;2,76
241,73;2,78
241,998;2,78
242,265;2,73
242,533;2,74
242,8;2,74
243,068;2,75
243,335;2,73
243,603;2,67
243,87;2,62
244,138;2,65
244,405;2,66
244,672;2,69
244,94;2,63
245,207;2,61
245,474;2,63
245,742;2,6
246,009;2,53
246,276;2,53
246,544;2,54
246,811;2,55
247,078;2,54
247,345;2,56
247,613;2,53
247,88;2,51
248,147;2,49
248,414;2,49
248,681;2,48
248,948;2,51
249,215;2,51
249,483;2,52
249,75;2,52
250,017;2,49
250,284;2,45
250,551;2,46
250,818;2,46
251,085;2,44
251,352;2,44
251,619;2,49
251,886;2,46
252,153;2,46
252,42;2,45
252,687;2,43
252,953;2,4
253,22;2,39
253,487;2,41
253,754;2,43
254,021;2,43
254,288;2,43
254,555;2,42
254,821;2,45
255,088;2,45
255,355;2,43
255,622;2,45
255,888;2,47
256,155;2,46
256,422;2,45
256,688;2,45
256,955;2,45
257,222;2,42
257,488;2,44
257,755;2,45
258,022;2,45
258,288;2,43
258,555;2,41
258,821;2,41
259,088;2,42
259,354;2,37
259,621;2,37
259,887;2,38
260,154;2,39
260,42;2,35
260,687;2,35
260,953;2,35
261,219;2,35
261,486;2,32
261,752;2,34
262,019;2,35
262,285;2,33
262,551;2,34
262,818;2,36
263,084;2,32
263,35;2,3
263,616;2,28
263,883;2,29
264,149;2,32
264,415;2,32
264,681;2,32
264,947;2,34
265,214;2,33
265,48;2,3
265,746;2,31
266,012;2,33
266,278;2,3
266,544;2,3
266,81;2,31
267,076;2,35
267,342;2,33
267,608;2,33
267,874;2,32
268,14;2,32
268,406;2,31
268,672;2,35
268,938;2,35
269,204;2,36
269,47;2,36
269,736;2,34
270,002;2,32
270,268;2,33
270,533;2,32
270,799;2,33
271,065;2,33
271,331;2,31
271,597;2,31
271,862;2,33
272,128;2,33
272,394;2,33
272,66;2,31
272,925;2,32
273,191;2,31
273,457;2,33
273,722;2,3
273,988;2,3
274,254;2,29
274,519;2,31
274,785;2,3
275,05;2,3
275,316;2,3
275,582;2,3
275,847;2,31
276,113;2,29
276,378;2,28
276,644;2,29
276,909;2,28
277,174;2,27
277,44;2,28
277,705;2,26
277,971;2,26
278,236;2,27
278,501;2,26
278,767;2,28
279,032;2,29
279,297;2,31
279,563;2,27
279,828;2,26
280,093;2,23
280,358;2,22
280,624;2,22
280,889;2,23
281,154;2,24
281,419;2,23
281,684;2,23
281,95;2,23
282,215;2,23
282,48;2,24
282,745;2,25
283,01;2,23
283,275;2,24
283,54;2,22
283,805;2,21
284,07;2,21
284,335;2,2
284,6;2,18
284,865;2,18
285,13;2,19
285,395;2,2
285,66;2,22
285,925;2,26
286,19;2,25
286,455;2,24
286,72;2,22
286,985;2,22
287,249;2,21
287,514;2,2
287,779;2,19
288,044;2,18
288,309;2,16
288,573;2,15
288,838;2,19
289,103;2,2
289,367;2,17
289,632;2,19
289,897;2,16
290,161;2,17
290,426;2,18
290,691;2,19
290,955;2,18
291,22;2,15
291,484;2,15
291,749;2,12
292,014;2,1
292,278;2,12
292,543;2,13
292,807;2,16
293,072;2,19
293,336;2,16
293,6;2,15
293,865;2,16
294,129;2,16
294,394;2,14
294,658;2,15
294,922;2,15
295,187;2,12
295,451;2,13
295,715;2,12
295,98;2,11
296,244;2,12
296,508;2,1
296,773;2,12
297,037;2,14
297,301;2,18
297,565;2,23
297,829;2,2
298,094;2,2
298,358;2,19
298,622;2,17
298,886;2,19
299,15;2,22
299,414;2,22
299,678;2,24
299,942;2,25
300,206;2,24
300,47;2,25
300,734;2,28
300,998;2,29
301,262;2,29
301,526;2,29
301,79;2,3
302,054;2,32
302,318;2,32
302,582;2,32
302,846;2,27
303,11;2,27
303,374;2,3
303,637;2,28
303,901;2,29
304,165;2,29
304,429;2,3
304,693;2,3
304,956;2,3
305,22;2,31
305,484;2,31
305,747;2,32
306,011;2,34
306,275;2,33
306,538;2,32
306,802;2,34
307,066;2,35
307,329;2,33
307,593;2,34
307,856;2,31
308,12;2,3
308,384;2,36
308,647;2,36
308,911;2,36
309,174;2,39
309,438;2,38
309,701;2,39
309,964;2,38
310,228;2,35
310,491;2,34
310,755;2,33
311,018;2,35
311,281;2,34
311,545;2,34
311,808;2,34
312,071;2,33
312,335;2,29
312,598;2,3
312,861;2,32
313,124;2,34
313,388;2,39
313,651;2,39
313,914;2,37
314,177;2,33
314,44;2,33
314,704;2,3
314,967;2,29
315,23;2,3
315,493;2,32
315,756;2,36
316,019;2,35
316,282;2,36
316,545;2,36
316,808;2,37
317,071;2,37
317,334;2,39
317,597;2,4
317,86;2,44
318,123;2,48
318,386;2,47
318,649;2,45
318,912;2,43
319,175;2,43
319,437;2,44
319,7;2,46
319,963;2,44
320,226;2,45
320,489;2,47
320,751;2,46
321,014;2,44
321,277;2,44
321,54;2,44
321,802;2,43
322,065;2,42
322,328;2,43
322,59;2,44
322,853;2,43
323,116;2,44
323,378;2,4
323,641;2,38
323,903;2,38
324,166;2,4
324,428;2,39
324,691;2,41
324,953;2,4
325,216;2,4
325,478;2,38
325,741;2,35
326,003;2,34
326,266;2,33
326,528;2,32
326,791;2,3
327,053;2,32
327,315;2,3
327,578;2,34
327,84;2,32
328,102;2,27
328,365;2,28
328,627;2,24
328,889;2,26
329,151;2,27
329,414;2,28
329,676;2,26
329,938;2,26
330,2;2,22
330,462;2,21
330,725;2,21
330,987;2,22
331,249;2,27
331,511;2,27
331,773;2,27
332,035;2,31
332,297;2,33
332,559;2,29
332,821;2,29
333,083;2,26
333,345;2,25
333,607;2,29
333,869;2,3
334,131;2,33
334,393;2,36
334,655;2,3
334,917;2,27
335,179;2,26
335,44;2,28
335,702;2,31
335,964;2,31
336,226;2,32
336,488;2,31
336,749;2,3
337,011;2,29
337,273;2,3
337,535;2,27
337,796;2,23
338,058;2,26
338,32;2,27
338,581;2,25
338,843;2,22
339,105;2,24
339,366;2,24
339,628;2,26
339,889;2,23
340,151;2,27
340,412;2,24
340,674;2,25
340,935;2,24
341,197;2,22
341,458;2,22
341,72;2,21
341,981;2,2
342,243;2,16
342,504;2,19
342,766;2,2
343,027;2,18
343,288;2,19
343,55;2,22
343,811;2,24
344,072;2,21
344,334;2,23
344,595;2,2
344,856;2,16
345,117;2,18
345,379;2,17
345,64;2,19
345,901;2,23
346,162;2,23
346,423;2,23
346,684;2,22
346,946;2,24
347,207;2,25
347,468;2,28
347,729;2,31
347,99;2,34
348,251;2,34
348,512;2,36
348,773;2,37
349,034;2,37
349,295;2,37
349,556;2,4
349,817;2,43
350,078;2,45
350,339;2,45
350,6;2,45
350,86;2,45
351,121;2,42
351,382;2,44
351,643;2,4
351,904;2,38
352,165;2,35
352,425;2,37
352,686;2,41
352,947;2,41
353,208;2,4
353,468;2,35
353,729;2,34
353,99;2,36
354,25;2,4
354,511;2,36
354,772;2,36
355,032;2,39
355,293;2,39
355,553;2,38
355,814;2,41
356,074;2,37
356,335;2,39
356,596;2,41
356,856;2,39
357,116;2,43
357,377;2,49
357,637;2,5
357,898;2,49
358,158;2,46
358,419;2,44
358,679;2,45
358,939;2,48
359,2;2,46
359,46;2,46
359,72;2,41
359,981;2,45
360,241;2,43
360,501;2,43
360,761;2,41
361,022;2,41
361,282;2,4
361,542;2,44
361,802;2,38
362,062;2,36
362,323;2,34
362,583;2,37
362,843;2,32
363,103;2,34
363,363;2,34
363,623;2,33
363,883;2,36
364,143;2,37
364,403;2,37
364,663;2,4
364,923;2,42
365,183;2,45
365,443;2,47
365,703;2,46
365,963;2,47
366,223;2,49
366,483;2,49
366,743;2,5
367,002;2,51
367,262;2,52
367,522;2,55
367,782;2,55
368,042;2,53
368,301;2,53
368,561;2,53
368,821;2,49
369,081;2,52
369,34;2,46
369,6;2,44
369,86;2,47
370,119;2,49
370,379;2,45
370,638;2,44
370,898;2,38
371,158;2,35
371,417;2,33
371,677;2,34
371,936;2,32
372,196;2,3
372,455;2,31
372,715;2,28
372,974;2,29
373,234;2,3
373,493;2,29
373,753;2,31
374,012;2,27
374,271;2,32
374,531;2,27
374,79;2,34
375,049;2,36
375,309;2,33
375,568;2,27
375,827;2,24
376,086;2,25
376,346;2,28
376,605;2,32
376,864;2,32
377,123;2,29
377,383;2,28
377,642;2,33
377,901;2,29
378,16;2,31
378,419;2,29
378,678;2,29
378,937;2,29
379,196;2,25
379,455;2,32
379,714;2,29
379,973;2,33
380,232;2,29
380,491;2,27
380,75;2,25
381,009;2,25
381,268;2,3
381,527;2,29
381,786;2,3
382,045;2,31
382,304;2,33
382,563;2,36
382,821;2,39
383,08;2,38
383,339;2,43
383,598;2,5
383,857;2,5
384,115;2,48
384,374;2,51
384,633;2,53
384,891;2,49
385,15;2,47
385,409;2,52
385,667;2,54
385,926;2,54
386,185;2,55
386,443;2,6
386,702;2,57
386,96;2,54
387,219;2,53
387,477;2,56
387,736;2,49
387,994;2,47
388,253;2,46
388,511;2,45
388,77;2,42
389,028;2,38
389,287;2,34
389,545;2,39
389,803;2,37
390,062;2,37
390,32;2,4
390,578;2,41
390,837;2,37
391,095;2,4
391,353;2,44
391,612;2,47
391,87;2,44
392,128;2,42
392,386;2,46
392,644;2,44
392,903;2,4
393,161;2,41
393,419;2,41
393,677;2,46
393,935;2,45
394,193;2,45
394,451;2,45
394,709;2,44
394,967;2,44
395,225;2,43
395,483;2,43
395,741;2,47
395,999;2,47
396,257;2,52
396,515;2,49
396,773;2,48
397,031;2,45
397,289;2,47
397,547;2,5
397,805;2,51
398,062;2,53
398,32;2,55
398,578;2,58
398,836;2,52
399,094;2,46
399,351;2,47
399,609;2,48
399,867;2,48
400,124;2,52
400,382;2,55
400,64;2,62
400,897;2,65
401,155;2,65
401,413;2,62
401,67;2,6
401,928;2,64
402,185;2,64
402,443;2,65
402,701;2,63
402,958;2,6
403,216;2,57
403,473;2,6
403,73;2,62
403,988;2,64
404,245;2,68
404,503;2,68
404,76;2,66
405,018;2,64
405,275;2,69
405,532;2,68
405,79;2,62
406,047;2,53
406,304;2,52
406,561;2,5
406,819;2,57
407,076;2,53
407,333;2,53
407,59;2,52
407,848;2,52
408,105;2,55
408,362;2,59
408,619;2,62
408,876;2,57
409,133;2,53
409,39;2,5
409,647;2,56
409,904;2,54
410,161;2,59
410,418;2,61
410,675;2,56
410,932;2,55
411,189;2,62
411,446;2,62
411,703;2,6
411,96;2,57
412,217;2,57
412,474;2,57
412,731;2,53
412,988;2,55
413,245;2,6
413,501;2,58
413,758;2,58
414,015;2,54
414,272;2,56
414,529;2,64
414,785;2,68
415,042;2,69
415,299;2,77
415,555;2,75
415,812;2,7
416,069;2,73
416,325;2,75
416,582;2,74
416,838;2,82
417,095;2,81
417,352;2,85
417,608;2,88
417,865;2,94
418,121;2,97
418,378;2,95
418,634;2,95
418,891;3,01
419,147;3,04
419,403;3,09
419,66;3,09
419,916;3,06
420,173;3,01
420,429;2,99
420,685;2,97
420,942;2,98
421,198;3,02
421,454;3,04
421,711;3,05
421,967;3,05
422,223;3,01
422,479;3,05
422,735;3,09
422,992;3,04
423,248;3
423,504;3,01
423,76;3,05
424,016;3,03
424,272;3,01
424,528;3,02
424,784;2,99
425,041;2,99
425,297;2,97
425,553;3,01
425,809;2,99
426,065;2,95
426,32;2,97
426,576;2,94
426,832;2,9
427,088;2,93
427,344;2,89
427,6;2,93
427,856;2,9
428,112;2,85
428,368;2,89
428,623;2,88
428,879;2,92
429,135;2,94
429,391;2,95
429,646;2,99
429,902;3
430,158;3,02
430,414;3,02
430,669;3,1
430,925;3,11
431,181;3,16
431,436;3,26
431,692;3,25
431,947;3,3
432,203;3,33
432,458;3,29
432,714;3,36
432,97;3,39
433,225;3,44
433,481;3,46
433,736;3,45
433,991;3,52
434,247;3,47
434,502;3,48
434,758;3,52
435,013;3,46
435,268;3,44
435,524;3,43
435,779;3,43
436,034;3,39
436,29;3,45
436,545;3,41
436,8;3,38
437,056;3,44
437,311;3,43
437,566;3,43
437,821;3,47
438,076;3,45
438,331;3,45
438,587;3,46
438,842;3,46
439,097;3,49
439,352;3,48
439,607;3,5
439,862;3,47
440,117;3,44
440,372;3,46
440,627;3,51
440,882;3,54
441,137;3,58
441,392;3,59
441,647;3,54
441,902;3,65
442,157;3,65
442,412;3,67
442,667;3,72
442,921;3,74
443,176;3,78
443,431;3,81
443,686;3,81
443,941;3,82
444,195;3,84
444,45;3,79
444,705;3,8
444,96;3,84
445,214;3,86
445,469;3,85
445,724;3,89
445,978;3,91
446,233;3,92
446,487;3,94
446,742;3,96
446,997;3,98
447,251;3,93
447,506;3,92
447,76;3,91
448,015;3,87
448,269;3,93
448,524;3,92
448,778;3,9
449,033;3,85
449,287;3,83
449,541;3,87
449,796;3,91
450,05;3,93
450,305;3,91
450,559;3,92
450,813;3,94
451,067;3,9
451,322;3,86
451,576;3,87
451,83;3,9
452,084;3,89
452,339;3,96
452,593;3,98
452,847;4,01
453,101;3,98
453,355;4
453,609;3,98
453,864;3,99
454,118;3,95
454,372;3,99
454,626;4,03
454,88;4,07
455,134;4,08
455,388;4,07
455,642;4,06
455,896;4,06
456,15;4,03
456,404;4,07
456,658;4,05
456,912;4,05
457,165;4
457,419;4
457,673;3,93
457,927;3,86
458,181;3,85
458,435;3,84
458,688;3,84
458,942;3,82
459,196;3,78
459,45;3,81
459,703;3,81
459,957;3,75
460,211;3,67
460,464;3,66
460,718;3,66
460,972;3,67
461,225;3,65
461,479;3,66
461,732;3,65
461,986;3,7
462,239;3,68
462,493;3,66
462,746;3,71
463;3,72
463,253;3,74
463,507;3,7
463,76;3,73
464,014;3,71
464,267;3,74
464,52;3,76
464,774;3,78
465,027;3,81
465,28;3,86
465,534;3,85
465,787;3,88
466,04;3,87
466,294;3,85
466,547;3,87
466,8;3,91
467,053;3,9
467,306;3,89
467,56;3,92
467,813;3,91
468,066;3,85
468,319;3,84
468,572;3,84
468,825;3,86
469,078;3,87
469,331;3,87
469,584;3,85
469,837;3,86
470,09;3,86
470,343;3,82
470,596;3,82
470,849;3,82
471,102;3,78
471,355;3,81
471,608;3,84
471,861;3,87
472,114;3,87
472,367;3,86
472,619;3,86
472,872;3,84
473,125;3,86
473,378;3,91
473,631;3,93
473,883;3,94
474,136;3,94
474,389;3,98
474,641;4
474,894;3,97
475,147;3,97
475,399;3,98
475,652;4,02
475,905;4
476,157;4,03
476,41;4,05
476,662;4,04
476,915;4,03
477,167;4,01
477,42;4,02
477,672;4,02
477,925;4,01
478,177;4,04
478,43;4,06
478,682;4,05
478,934;4,03
479,187;4,07
479,439;4,08
479,691;4,08
479,944;4,11
480,196;4,14
480,448;4,16
480,701;4,16
480,953;4,17
481,205;4,17
481,457;4,17
481,709;4,17
481,962;4,18
482,214;4,19
482,466;4,22
482,718;4,23
482,97;4,29
483,222;4,33
483,474;4,35
483,726;4,37
483,978;4,39
484,23;4,43
484,482;4,43
484,734;4,43
484,986;4,42
485,238;4,41
485,49;4,42
485,742;4,42
485,994;4,42
486,246;4,41
486,498;4,43
486,75;4,44
487,001;4,46
487,253;4,47
487,505;4,47
487,757;4,47
488,009;4,47
488,26;4,46
488,512;4,47
488,764;4,46
489,015;4,47
489,267;4,47
489,519;4,45
489,77;4,47
490,022;4,48
490,274;4,49
490,525;4,53
490,777;4,54
491,028;4,53
491,28;4,54
491,531;4,55
491,783;4,56
492,034;4,58
492,286;4,58
492,537;4,62
492,789;4,64
493,04;4,64
493,291;4,66
493,543;4,68
493,794;4,69
494,045;4,71
494,297;4,72
494,548;4,73
494,799;4,75
495,051;4,73
495,302;4,77
495,553;4,78
495,804;4,78
496,056;4,79
496,307;4,81
496,558;4,85
496,809;4,88
497,06;4,91
497,311;4,9
497,562;4,92
497,813;4,93
498,064;4,96
498,316;4,99
498,567;5
498,818;5
499,069;5
499,319;5,02
499,57;5,03
499,821;5,03
500,072;5,07
500,323;5,09
500,574;5,1
500,825;5,11
501,076;5,11
501,327;5,12
501,577;5,15
501,828;5,14
502,079;5,14
502,33;5,18
502,58;5,2
502,831;5,22
503,082;5,23
503,333;5,26
503,583;5,28
503,834;5,31
504,084;5,33
504,335;5,37
504,586;5,38
504,836;5,38
505,087;5,41
505,337;5,44
505,588;5,44
505,838;5,46
506,089;5,52
506,339;5,54
506,59;5,6
506,84;5,61
507,091;5,69
507,341;5,72
507,591;5,75
507,842;5,8
508,092;5,83
508,343;5,86
508,593;5,85
508,843;5,87
509,093;5,87
509,344;5,93
509,594;5,97
509,844;5,99
510,094;6,05
510,345;6,07
510,595;6,08
510,845;6,12
511,095;6,15
511,345;6,16
511,595;6,2
511,845;6,22
512,095;6,27
512,345;6,25
512,595;6,29
512,845;6,31
513,095;6,32
513,345;6,34
513,595;6,36
513,845;6,39
514,095;6,42
514,345;6,47
514,595;6,47
514,845;6,48
515,095;6,5
515,345;6,53
515,594;6,55
515,844;6,58
516,094;6,63
516,344;6,68
516,593;6,7
516,843;6,72
517,093;6,76
517,343;6,78
517,592;6,83
517,842;6,87
518,092;6,9
518,341;6,92
518,591;6,97
518,84;6,99
519,09;7,04
519,34;7,08
519,589;7,1
519,839;7,13
520,088;7,17
520,338;7,21
520,587;7,23
520,836;7,27
521,086;7,3
521,335;7,32
521,585;7,34
521,834;7,37
522,083;7,39
522,333;7,42
522,582;7,46
522,831;7,49
523,081;7,5
523,33;7,51
523,579;7,57
523,828;7,59
524,078;7,62
524,327;7,65
524,576;7,7
524,825;7,73
525,074;7,78
525,323;7,8
525,573;7,86
525,822;7,91
526,071;7,96
526,32;8
526,569;8,06
526,818;8,11
527,067;8,16
527,316;8,23
527,565;8,29
527,814;8,32
528,063;8,36
528,312;8,4
528,56;8,47
528,809;8,51
529,058;8,59
529,307;8,66
529,556;8,71
529,805;8,74
530,053;8,8
530,302;8,86
530,551;8,93
530,8;8,97
531,048;9,04
531,297;9,08
531,546;9,14
531,794;9,19
532,043;9,24
532,292;9,3
532,54;9,35
532,789;9,39
533,037;9,44
533,286;9,48
533,535;9,57
533,783;9,62
534,032;9,69
534,28;9,72
534,528;9,78
534,777;9,83
535,025;9,92
535,274;10
535,522;10,07
535,771;10,1
536,019;10,17
536,267;10,21
536,516;10,27
536,764;10,34
537,012;10,39
537,26;10,45
537,509;10,52
537,757;10,6
538,005;10,66
538,253;10,72
538,501;10,81
538,75;10,83
538,998;10,89
539,246;10,93
539,494;11
539,742;11,04
539,99;11,11
540,238;11,15
540,486;11,19
540,734;11,21
540,982;11,3
541,23;11,36
541,478;11,44
541,726;11,5
541,974;11,56
542,222;11,65
542,47;11,73
542,718;11,79
542,966;11,84
543,213;11,89
543,461;11,96
543,709;12,01
543,957;12,1
544,205;12,18
544,452;12,27
544,7;12,32
544,948;12,42
545,196;12,49
545,443;12,59
545,691;12,66
545,939;12,75
546,186;12,82
546,434;12,91
546,681;12,96
546,929;13,05
547,176;13,11
547,424;13,17
547,671;13,24
547,919;13,3
548,166;13,38
548,414;13,48
548,661;13,57
548,909;13,68
549,156;13,73
549,404;13,82
549,651;13,89
549,898;14
550,146;14,07
550,393;14,18
550,64;14,25
550,888;14,33
551,135;14,42
551,382;14,49
551,629;14,56
551,876;14,66
552,124;14,77
552,371;14,86
552,618;14,93
552,865;15
553,112;15,06
553,359;15,14
553,606;15,22
553,854;15,3
554,101;15,35
554,348;15,45
554,595;15,52
554,842;15,59
555,089;15,65
555,336;15,72
555,582;15,77
555,829;15,84
556,076;15,92
556,323;16
556,57;16,08
556,817;16,15
557,064;16,23
557,311;16,3
557,557;16,37
557,804;16,45
558,051;16,54
558,298;16,65
558,544;16,74
558,791;16,83
559,038;16,87
559,284;16,96
559,531;17,02
559,778;17,1
560,024;17,19
560,271;17,27
560,517;17,33
560,764;17,42
561,011;17,48
561,257;17,57
561,504;17,66
561,75;17,74
561,997;17,8
562,243;17,88
562,489;17,94
562,736;18,01
562,982;18,11
563,229;18,19
563,475;18,25
563,721;18,35
563,968;18,46
564,214;18,55
564,46;18,64
564,707;18,75
564,953;18,84
565,199;18,94
565,445;19,05
565,691;19,16
565,938;19,25
566,184;19,35
566,43;19,44
566,676;19,55
566,922;19,66
567,168;19,78
567,414;19,9
567,66;20,01
567,906;20,12
568,152;20,23
568,398;20,34
568,644;20,47
568,89;20,54
569,136;20,63
569,382;20,74
569,628;20,83
569,874;20,89
570,12;20,99
570,366;21,08
570,612;21,18
570,857;21,25
571,103;21,35
571,349;21,46
571,595;21,54
571,84;21,64
572,086;21,73
572,332;21,83
572,578;21,9
572,823;21,98
573,069;22,05
573,315;22,12
573,56;22,2
573,806;22,27
574,051;22,37
574,297;22,42
574,542;22,52
574,788;22,59
575,034;22,68
575,279;22,74
575,524;22,81
575,77;22,87
576,015;22,96
576,261;23,02
576,506;23,09
576,752;23,16
576,997;23,21
577,242;23,27
577,488;23,32
577,733;23,37
577,978;23,44
578,223;23,52
578,469;23,6
578,714;23,66
578,959;23,72
579,204;23,78
579,45;23,85
579,695;23,89
579,94;23,96
580,185;24,01
580,43;24,06
580,675;24,11
580,92;24,17
581,165;24,21
581,41;24,27
581,655;24,31
581,9;24,36
582,145;24,42
582,39;24,47
582,635;24,52
582,88;24,58
583,125;24,63
583,37;24,67
583,615;24,68
583,86;24,72
584,105;24,77
584,349;24,81
584,594;24,85
584,839;24,89
585,084;24,94
585,328;25
585,573;25,06
585,818;25,1
586,063;25,12
586,307;25,17
586,552;25,19
586,797;25,23
587,041;25,27
587,286;25,28
587,53;25,32
587,775;25,36
588,019;25,39
588,264;25,41
588,508;25,42
588,753;25,48
588,997;25,5
589,242;25,53
589,486;25,56
589,731;25,61
589,975;25,67
590,22;25,71
590,464;25,75
590,708;25,79
590,953;25,81
591,197;25,84
591,441;25,89
591,685;25,96
591,93;25,96
592,174;25,99
592,418;26,04
592,662;26,06
592,907;26,08
593,151;26,1
593,395;26,13
593,639;26,18
593,883;26,23
594,127;26,26
594,371;26,27
594,615;26,28
594,859;26,29
595,103;26,3
595,347;26,31
595,591;26,33
595,835;26,33
596,079;26,39
596,323;26,43
596,567;26,43
596,811;26,43
597,055;26,47
597,299;26,49
597,542;26,5
597,786;26,54
598,03;26,59
598,274;26,61
598,518;26,64
598,761;26,66
599,005;26,66
599,249;26,68
599,492;26,73
599,736;26,77
599,98;26,83
600,223;26,86
600,467;26,89
600,711;26,9
600,954;26,93
601,198;26,94
601,441;26,97
601,685;27,01
601,928;27,03
602,172;27,06
602,415;27,09
602,659;27,12
602,902;27,13
603,145;27,15
603,389;27,17
603,632;27,19
603,876;27,22
604,119;27,27
604,362;27,3
604,606;27,29
604,849;27,33
605,092;27,32
605,335;27,36
605,579;27,37
605,822;27,39
606,065;27,4
606,308;27,41
606,551;27,41
606,794;27,45
607,037;27,49
607,281;27,5
607,524;27,49
607,767;27,52
608,01;27,54
608,253;27,54
608,496;27,56
608,739;27,59
608,982;27,61
609,225;27,61
609,468;27,63
609,711;27,67
609,953;27,66
610,196;27,68
610,439;27,67
610,682;27,68
610,925;27,71
611,168;27,73
611,41;27,75
611,653;27,75
611,896;27,74
612,139;27,7
612,381;27,73
612,624;27,76
612,867;27,75
613,109;27,75
613,352;27,78
613,595;27,8
613,837;27,78
614,08;27,78
614,322;27,77
614,565;27,77
614,807;27,76
615,05;27,76
615,292;27,76
615,535;27,78
615,777;27,78
616,02;27,79
616,262;27,81
616,505;27,84
616,747;27,85
616,989;27,87
617,232;27,92
617,474;27,93
617,716;27,92
617,959;27,93
618,201;27,96
618,443;27,96
618,685;27,96
618,927;27,97
619,17;27,97
619,412;28,01
619,654;28,02
619,896;28,06
620,138;28,09
620,38;28,11
620,622;28,11
620,864;28,13
621,107;28,13
621,349;28,12
621,591;28,12
621,833;28,13
622,075;28,15
622,316;28,17
622,558;28,2
622,8;28,23
623,042;28,25
623,284;28,26
623,526;28,26
623,768;28,27
624,01;28,31
624,251;28,34
624,493;28,34
624,735;28,34
624,977;28,34
625,218;28,34
625,46;28,34
625,702;28,36
625,943;28,37
626,185;28,37
626,427;28,38
626,668;28,4
626,91;28,42
627,152;28,42
627,393;28,41
627,635;28,39
627,876;28,38
628,118;28,39
628,359;28,4
628,601;28,39
628,842;28,42
629,084;28,4
629,325;28,36
629,566;28,36
629,808;28,37
630,049;28,37
630,29;28,38
630,532;28,39
630,773;28,4
631,014;28,4
631,256;28,4
631,497;28,43
631,738;28,39
631,979;28,39
632,22;28,37
632,462;28,37
632,703;28,38
632,944;28,4
633,185;28,38
633,426;28,39
633,667;28,39
633,908;28,36
634,149;28,36
634,39;28,43
634,631;28,44
634,872;28,46
635,113;28,45
635,354;28,47
635,595;28,45
635,836;28,45
636,077;28,44
636,318;28,45
636,559;28,44
636,8;28,48
637,04;28,48
637,281;28,48
637,522;28,48
637,763;28,49
638,003;28,47
638,244;28,47
638,485;28,47
638,726;28,47
638,966;28,48
639,207;28,51
639,448;28,47
639,688;28,46
639,929;28,45
640,169;28,46
640,41;28,42
640,65;28,45
640,891;28,44
641,131;28,44
641,372;28,45
641,612;28,44
641,853;28,45
642,093;28,47
642,334;28,48
642,574;28,5
642,814;28,5
643,055;28,51
643,295;28,55
643,535;28,56
643,776;28,59
644,016;28,59
644,256;28,6
644,496;28,62
644,737;28,65
644,977;28,66
645,217;28,7
645,457;28,76
645,697;28,77
645,938;28,79
646,178;28,82
646,418;28,83
646,658;28,86
646,898;28,86
647,138;28,87
647,378;28,88
647,618;28,91
647,858;28,91
648,098;28,92
648,338;28,92
648,578;28,94
648,818;28,95
649,057;28,98
649,297;28,99
649,537;28,99
649,777;29,02
650,017;29,02
650,257;29,01
650,496;29,03
650,736;29,06
650,976;29,07
661,028;29,64
661,267;29,67
661,506;29,67
661,744;29,69
661,983;29,69
662,222;29,69
662,461;29,72
662,7;29,71
662,939;29,71
663,177;29,7
663,416;29,71
663,655;29,71
663,894;29,72
664,132;29,76
664,371;29,77
664,61;29,77
664,848;29,8
665,087;29,84
665,326;29,86
665,564;29,89
665,803;29,9
666,041;29,9
666,28;29,9
666,518;29,91
666,757;29,91
666,995;29,94
667,234;29,96
667,472;29,98
667,711;29,99
667,949;30,03
668,187;30,07
668,426;30,11
668,664;30,13
668,902;30,13
669,141;30,12
669,379;30,15
669,617;30,19
669,856;30,22
670,094;30,25
670,332;30,26
670,57;30,27
670,808;30,28
671,046;30,3
671,285;30,32
671,523;30,33
671,761;30,34
671,999;30,34
672,237;30,38
672,475;30,38
672,713;30,43
672,951;30,46
673,189;30,49
673,427;30,5
673,665;30,53
673,903;30,58
674,141;30,61
674,379;30,62
674,617;30,62
674,854;30,61
675,092;30,62
675,33;30,62
675,568;30,66
675,806;30,72
676,043;30,74
676,281;30,76
676,519;30,79
676,756;30,81
676,994;30,84
677,232;30,87
677,469;30,89
677,707;30,92
677,945;30,91
678,182;30,92
678,42;30,95
678,657;30,97
678,895;31
679,132;31,02
679,37;31,04
679,607;31,04
679,845;31,06
680,082;31,08
680,32;31,09
680,557;31,07
680,794;31,07
681,032;31,09
681,269;31,14
681,507;31,18
681,744;31,21
681,981;31,27
682,218;31,25
682,456;31,28
682,693;31,3
682,93;31,33
683,167;31,34
683,404;31,36
683,642;31,4
683,879;31,41
684,116;31,44
684,353;31,45
684,59;31,47
684,827;31,5
685,064;31,54
685,301;31,57
685,538;31,6
685,775;31,62
686,012;31,65
686,249;31,65
686,486;31,64
686,723;31,66
686,96;31,68
687,197;31,72
687,433;31,75
687,67;31,79
687,907;31,81
688,144;31,84
688,381;31,86
688,617;31,86
688,854;31,87
689,091;31,85
689,327;31,9
689,564;31,91
689,801;31,91
690,037;31,93
690,274;31,97
690,511;32,02
690,747;32,08
690,984;32,07
691,22;32,1
691,457;32,12
691,693;32,13
691,93;32,15
692,166;32,16
692,403;32,18
692,639;32,17
692,876;32,19
693,112;32,2
693,348;32,24
693,585;32,28
693,821;32,31
694,057;32,34
694,294;32,39
694,53;32,43
694,766;32,47
695,002;32,48
695,239;32,53
695,475;32,53
695,711;32,52
695,947;32,57
696,183;32,55
696,419;32,6
696,656;32,65
696,892;32,66
697,128;32,7
697,364;32,7
697,6;32,71
697,836;32,73
698,072;32,76
698,308;32,76
698,544;32,76
698,78;32,8
699,016;32,81
699,251;32,8
699,487;32,85
699,723;32,88
699,959;32,9
700,195;32,9
700,431;32,94
700,666;32,95
700,902;32,97
701,138;33,04
701,374;33,04
701,609;33,03
701,845;33,06
702,081;33,09
702,316;33,12
702,552;33,15
702,788;33,17
703,023;33,2
703,259;33,2
703,494;33,24
703,73;33,25
703,965;33,31
704,201;33,35
704,436;33,35
704,672;33,35
704,907;33,37
705,143;33,38
705,378;33,4
705,613;33,43
705,849;33,44
706,084;33,45
706,319;33,47
706,555;33,51
706,79;33,53
707,025;33,55
707,26;33,61
707,496;33,64
707,731;33,66
707,966;33,69
708,201;33,72
708,436;33,73
708,671;33,78
708,907;33,79
709,142;33,8
709,377;33,85
709,612;33,92
709,847;33,94
710,082;33,95
710,317;33,99
710,552;34,06
710,787;34,09
711,022;34,13
711,257;34,18
711,492;34,22
711,726;34,25
711,961;34,25
712,196;34,26
712,431;34,28
712,666;34,31
712,901;34,33
713,135;34,38
713,37;34,44
713,605;34,43
713,839;34,44
714,074;34,47
714,309;34,48
714,543;34,47
714,778;34,51
715,013;34,56
715,247;34,56
715,482;34,55
715,716;34,57
715,951;34,59
716,185;34,63
716,42;34,64
716,654;34,65
716,889;34,68
717,123;34,68
717,358;34,73
717,592;34,76
717,827;34,77
718,061;34,81
718,295;34,8
718,53;34,83
718,764;34,83
718,998;34,86
719,232;34,89
719,467;34,9
719,701;34,89
719,935;34,91
720,169;34,95
720,403;34,95
720,638;35
720,872;35
721,106;35,01
721,34;35,01
721,574;35,03
721,808;35,02
722,042;35,06
722,276;35,05
722,51;35,08
722,744;35,16
722,978;35,15
723,212;35,17
723,446;35,2
723,68;35,26
723,914;35,27
724,147;35,29
724,381;35,34
724,615;35,39
724,849;35,38
725,083;35,39
725,316;35,42
725,55;35,41
725,784;35,46
726,018;35,48
726,251;35,54
726,485;35,59
726,719;35,65
726,952;35,68
727,186;35,75
727,419;35,78
727,653;35,79
727,887;35,86
728,12;35,91
728,354;35,92
728,587;35,97
728,821;35,97
729,054;36
729,287;36,04
729,521;36,07
729,754;36,13
729,988;36,15
730,221;36,21
730,454;36,27
730,688;36,29
730,921;36,32
731,154;36,31
731,387;36,33
731,621;36,36
731,854;36,36
732,087;36,38
732,32;36,41
732,553;36,4
732,787;36,4
733,02;36,43
733,253;36,44
733,486;36,41
733,719;36,44
733,952;36,44
734,185;36,42
734,418;36,44
734,651;36,45
734,884;36,48
735,117;36,48
735,35;36,46
735,583;36,49
735,816;36,51
736,049;36,55
736,281;36,54
736,514;36,54
736,747;36,58
736,98;36,59
737,213;36,62
737,445;36,64
737,678;36,64
737,911;36,62
738,144;36,61
738,376;36,68
738,609;36,74
738,842;36,79
739,074;36,83
739,307;36,86
739,539;36,89
739,772;36,91
740,004;36,93
740,237;36,98
740,469;36,98
740,702;36,99
740,934;37,01
741,167;37,04
741,399;37,04
741,632;37,05
741,864;37,08
742,096;37,07
742,329;37,09
742,561;37,11
742,793;37,12
743,026;37,18
743,258;37,17
743,49;37,1
743,723;37,06
743,955;37,04
744,187;37,01
744,419;37
744,651;36,98
744,883;36,96
745,115;36,97
745,348;36,98
745,58;36,96
745,812;36,96
746,044;36,98
746,276;37
746,508;37,02
746,74;36,99
746,972;37,04
747,204;37,05
747,436;37,07
747,667;37,09
747,899;37,09
748,131;37,1
748,363;37,14
748,595;37,19
748,827;37,24
749,058;37,27
749,29;37,28
749,522;37,32
749,754;37,35
749,985;37,34
750,217;37,35
750,449;37,38
750,68;37,39
750,912;37,39
751,144;37,45
751,375;37,45
751,607;37,47
751,838;37,47
752,07;37,47
752,301;37,47
752,533;37,48
752,764;37,48
752,996;37,46
753,227;37,49
753,459;37,47
753,69;37,49
753,921;37,51
754,153;37,55
754,384;37,56
754,615;37,56
754,847;37,59
755,078;37,64
755,309;37,68
755,54;37,68
755,772;37,69
756,003;37,65
756,234;37,63
756,465;37,63
756,696;37,59
756,927;37,61
757,159;37,61
757,39;37,65
757,621;37,66
757,852;37,68
758,083;37,67
758,314;37,69
758,545;37,68
758,776;37,67
759,007;37,64
759,238;37,64
759,469;37,67
759,699;37,69
759,93;37,64
760,161;37,6
760,392;37,56
760,623;37,53
760,854;37,57
761,084;37,6
761,315;37,59
761,546;37,59
761,776;37,55
762,007;37,58
762,238;37,59
762,468;37,57
762,699;37,63
762,93;37,64
763,16;37,64
763,391;37,64
763,621;37,65
763,852;37,7
764,083;37,66
764,313;37,64
764,543;37,6
764,774;37,59
765,004;37,59
765,235;37,64
765,465;37,67
765,696;37,65
765,926;37,65
766,156;37,64
766,387;37,66
766,617;37,67
766,847;37,66
767,077;37,62
767,308;37,65
767,538;37,65
767,768;37,61
767,998;37,62
768,228;37,62
768,459;37,6
768,689;37,6
768,919;37,64
769,149;37,67
769,379;37,7
769,609;37,72
769,839;37,74
770,069;37,76
770,299;37,74
770,529;37,69
770,759;37,68
770,989;37,69
771,219;37,69
771,449;37,66
771,678;37,62
771,908;37,64
772,138;37,63
772,368;37,61
772,598;37,59
772,827;37,61
773,057;37,59
773,287;37,59
773,517;37,55
773,746;37,48
773,976;37,44
774,206;37,44
774,435;37,41
774,665;37,4
774,894;37,35
775,124;37,35
775,354;37,37
775,583;37,36
775,813;37,36
776,042;37,37
776,272;37,4
776,501;37,39
776,73;37,37
776,96;37,36
777,189;37,32
777,419;37,37
777,648;37,31
777,877;37,34
778,107;37,3
778,336;37,33
778,565;37,37
778,794;37,39
779,024;37,39
779,253;37,39
779,482;37,42
779,711;37,43
779,94;37,41
780,17;37,44
780,399;37,45
780,628;37,44
780,857;37,43
781,086;37,49
781,315;37,53
781,544;37,53
781,773;37,56
782,002;37,6
782,231;37,58
782,46;37,6
782,689;37,56
782,918;37,53
783,147;37,46
783,375;37,42
783,604;37,4
783,833;37,42
784,062;37,4
784,291;37,35
784,519;37,36
784,748;37,37
784,977;37,31
785,206;37,32
785,434;37,29
785,663;37,25
785,892;37,17
786,12;37,14
786,349;37,14
786,577;37,12
786,806;37,09
787,034;37,07
787,263;37,06
787,492;37,05
787,72;37,09
787,948;37,14
788,177;37,14
788,405;37,12
788,634;37,04
788,862;37,06
789,09;37,03
789,319;36,98
789,547;36,94
789,775;36,92
790,004;36,91
790,232;36,89
790,46;36,91
790,688;36,91
790,917;36,87
791,145;36,84
791,373;36,8
791,601;36,78
791,829;36,81
792,057;36,81
792,286;36,83
792,514;36,85
792,742;36,81
792,97;36,81
793,198;36,81
793,426;36,82
793,654;36,77
793,882;36,78
794,109;36,8
794,337;36,85
794,565;36,85
794,793;36,83
795,021;36,84
795,249;36,82
795,477;36,82
795,704;36,81
795,932;36,73
796,16;36,75
796,388;36,71
796,615;36,61
796,843;36,59
797,071;36,52
797,298;36,5
797,526;36,5
797,754;36,43
797,981;36,39
798,209;36,37
798,436;36,34
798,664;36,33
798,891;36,29
799,119;36,19
799,346;36,16
799,574;36,16
799,801;36,16
800,029;36,12
800,256;36,1
800,483;36,12
800,711;36,14
800,938;36,05
801,165;36,07
801,393;36,11
801,62;36,08
801,847;36,08
802,074;36
802,302;35,98
802,529;36,01
802,756;36,01
802,983;36,01
803,21;36,01
803,437;35,94
803,665;35,94
803,892;35,98
804,119;35,92
804,346;35,88
804,573;35,83
804,8;35,82
805,027;35,83
805,254;35,76
805,481;35,78
805,708;35,81
805,934;35,76
806,161;35,74
806,388;35,72
806,615;35,68
806,842;35,72
807,069;35,67
807,295;35,67
807,522;35,64
807,749;35,65
807,976;35,59
808,202;35,61
808,429;35,56
808,656;35,53
808,882;35,57
809,109;35,5
809,335;35,47
809,562;35,44
809,789;35,36
810,015;35,36
810,242;35,34
810,468;35,3
810,695;35,25
810,921;35,24
811,147;35,24
811,374;35,23
811,6;35,19
811,827;35,19
812,053;35,14
812,279;35,14
812,506;35,1
812,732;35,13
812,958;35,09
813,185;35,1
813,411;35,05
813,637;35,01
813,863;35,02
814,089;35,06
814,315;35,04
814,542;35,01
814,768;35,04
814,994;34,97
815,22;34,96
815,446;34,99
815,672;34,95
815,898;34,91
816,124;34,87
816,35;34,81
816,576;34,75
816,802;34,73
817,028;34,67
817,254;34,64
817,48;34,57
817,705;34,56
817,931;34,55
818,157;34,6
818,383;34,61
818,609;34,54
818,834;34,49
819,06;34,51
819,286;34,54
819,512;34,54
819,737;34,49
819,963;34,47
820,189;34,44
820,414;34,39
820,64;34,36
820,865;34,41
821,091;34,44
821,316;34,4
821,542;34,34
821,767;34,31
821,993;34,27
822,218;34,31
822,444;34,3
822,669;34,2
822,895;34,11
823,12;34,14
823,345;34,17
823,571;34,1
823,796;34,07
824,021;34,02
824,247;34
824,472;33,98
824,697;33,93
824,922;33,96
825,147;33,97
825,373;34
825,598;33,94
825,823;33,87
826,048;33,91
826,273;33,91
826,498;33,95
826,723;33,95
826,948;33,9
827,173;33,89
827,398;33,88
827,623;33,87
827,848;33,78
828,073;33,75
828,298;33,72
828,523;33,71
828,748;33,68
828,973;33,59
829,197;33,66
829,422;33,64
829,647;33,48
829,872;33,44
830,097;33,44
830,321;33,45
830,546;33,45
830,771;33,44
830,995;33,49
831,22;33,47
831,445;33,43
831,669;33,41
831,894;33,36
832,118;33,37
832,343;33,39
832,567;33,39
832,792;33,39
833,016;33,43
833,241;33,41
833,465;33,41
833,69;33,37
833,914;33,32
834,139;33,35
834,363;33,43
834,587;33,41
834,812;33,35
835,036;33,3
835,26;33,33
835,485;33,24
835,709;33,17
835,933;33,16
836,157;33,14
836,381;33,1
836,606;33,13
836,83;33,13
837,054;33,1
837,278;33
837,502;32,94
837,726;32,93
837,95;32,88
838,174;32,83
838,398;32,83
838,622;32,79
838,846;32,7
839,07;32,65
839,294;32,58
839,518;32,55
839,742;32,48
839,966;32,47
840,189;32,51
840,413;32,49
840,637;32,42
840,861;32,43
841,085;32,41
841,308;32,3
841,532;32,29
841,756;32,25
841,979;32,31
842,203;32,35
842,427;32,31
842,65;32,25
842,874;32,23
843,098;32,17
843,321;32,2
843,545;32,21
843,768;32,17
843,992;32,17
844,215;32,2
844,439;32,23
844,662;32,16
844,886;32,19
845,109;32,23
845,332;32,16
845,556;32,08
845,779;32,07
846,002;32,14
846,226;32,13
846,449;32,11
846,672;32,02
846,895;31,97
847,119;31,9
847,342;31,95
847,565;31,96
847,788;31,98
848,011;31,98
848,234;31,94
848,457;31,93
848,681;31,95
848,904;31,9
849,127;31,89
849,35;31,92
849,573;31,85
849,796;31,82
850,019;31,84
850,241;31,9
850,464;31,9
850,687;31,9
850,91;31,91
851,133;31,9
851,356;31,96
851,579;31,98
851,801;32,03
852,024;32,04
852,247;31,98
852,47;31,94
852,692;31,9
852,915;31,98
853,138;32,01
853,36;32,05
853,583;32
853,806;31,97
854,028;31,89
854,251;31,82
854,473;31,8
854,696;31,77
854,918;31,73
855,141;31,72
855,363;31,67
855,586;31,56
855,808;31,48
856,031;31,45
856,253;31,44
856,475;31,38
856,698;31,23
856,92;31,27
857,142;31,28
857,365;31,24
857,587;31,1
857,809;31,11
858,031;31,1
858,253;31,06
858,476;31,05
858,698;31,05
858,92;31,06
859,142;31,07
859,364;31,1
859,586;31,13
859,808;31,14
860,03;31,14
860,252;31,17
860,474;31,3
860,696;31,36
860,918;31,28
861,14;31,32
861,362;31,43
861,584;31,37
861,806;31,35
862,028;31,38
862,25;31,37
862,471;31,36
862,693;31,29
862,915;31,3
863,137;31,29
863,358;31,32
863,58;31,37
863,802;31,3
864,024;31,3
864,245;31,19
864,467;31,2
864,688;31,2
864,91;31,15
865,132;31,09
865,353;31,02
865,575;31,05
865,796;30,97
866,018;31,03
866,239;31,07
866,461;31,04
866,682;31,02
866,903;31,05
867,125;31,05
867,346;31,02
867,567;31,07
867,789;31,04
868,01;30,98
868,231;30,84
868,453;30,8
868,674;30,76
868,895;30,8
869,116;30,69
869,337;30,75
869,559;30,77
869,78;30,78
870,001;30,76
870,222;30,71
870,443;30,75
870,664;30,61
870,885;30,59
871,106;30,62
871,327;30,69
871,548;30,67
871,769;30,56
871,99;30,64
872,211;30,58
872,432;30,6
872,653;30,6
872,874;30,71
873,094;30,73
873,315;30,77
873,536;30,72
873,757;30,8
873,978;30,79
874,198;30,77
874,419;30,7
874,64;30,7
874,86;30,67
875,081;30,68
875,302;30,74
875,522;30,66
875,743;30,67
875,963;30,64
876,184;30,69
876,404;30,7
876,625;30,65
876,845;30,72
877,066;30,69
877,286;30,74
877,507;30,73
877,727;30,72
877,947;30,67
878,168;30,75
878,388;30,72
878,609;30,65
878,829;30,68
879,049;30,76
879,269;30,76
879,49;30,84
879,71;30,79
879,93;30,8
880,15;30,87
880,37;30,78
880,59;30,7
880,811;30,64
881,031;30,6
881,251;30,59
881,471;30,51
881,691;30,57
881,911;30,54
882,131;30,4
882,351;30,35
882,571;30,35
882,791;30,26
883,011;30,22
883,23;30,21
883,45;30,19
883,67;30,2
883,89;30,18
884,11;30,11
884,33;30,06
884,549;30,05
884,769;30,03
884,989;30,16
885,209;30,2
885,428;30,23
885,648;30,2
885,868;30,2
886,087;30,21
886,307;30,1
886,526;30,05
886,746;30,15
886,965;30,11
887,185;30,16
887,404;30,22
887,624;30,37
887,843;30,35
888,063;30,33
888,282;30,28
888,502;30,24
888,721;30,34
888,94;30,42
889,16;30,39
889,379;30,26
889,598;30,19
889,818;30,16
890,037;30,16
890,256;30,19
890,475;30,18
890,694;30,18
890,914;30,24
891,133;30,32
891,352;30,31
891,571;30,41
891,79;30,42
892,009;30,36
892,228;30,36
892,447;30,4
892,666;30,42
892,885;30,47
893,104;30,48
893,323;30,48
893,542;30,53
893,761;30,55
893,98;30,68
894,199;30,65
894,417;30,54
894,636;30,58
894,855;30,66
895,074;30,63
895,293;30,63
895,511;30,67
895,73;30,69
895,949;30,69
896,167;30,73
896,386;30,73
896,605;30,79
896,823;30,7
897,042;30,71
897,26;30,63
897,479;30,64
897,697;30,69
897,916;30,69
898,134;30,66
898,353;30,71
898,571;30,72
898,79;30,73
899,008;30,8
899,227;30,68
899,445;30,71
899,663;30,77
899,882;30,75
900,1;30,75
900,318;30,73
900,536;30,83
900,755;30,81
900,973;30,67
901,191;30,67
901,409;30,65
901,627;30,62
901,846;30,71
902,064;30,64
902,282;30,69
902,5;30,64
902,718;30,57
902,936;30,51
903,154;30,49
903,372;30,48
903,59;30,53
903,808;30,58
904,026;30,56
904,244;30,52
904,462;30,5
904,679;30,49
904,897;30,52
905,115;30,51
905,333;30,5
905,551;30,55
905,768;30,51
905,986;30,48
906,204;30,48
906,422;30,43
906,639;30,42
906,857;30,44
907,074;30,3
907,292;30,35
907,51;30,49
907,727;30,53
907,945;30,59
908,162;30,57
908,38;30,65
908,597;30,53
908,815;30,66
909,032;30,72
909,25;30,73
909,467;30,71
909,684;30,62
909,902;30,68
910,119;30,82
910,337;30,82
910,554;30,82
910,771;30,76
910,988;30,84
911,206;30,77
911,423;30,7
911,64;30,79
911,857;30,66
912,074;30,64
912,291;30,52
912,509;30,45
912,726;30,48
912,943;30,48
913,16;30,61
913,377;30,44
913,594;30,38
913,811;30,41
914,028;30,37
914,245;30,35
914,462;30,29
914,679;30,11
914,896;30,25
915,112;30,28
915,329;30,44
915,546;30,37
915,763;30,55
915,98;30,47
916,196;30,53
916,413;30,77
916,63;30,77
916,847;30,88
917,063;30,87
917,28;30,79
917,497;30,82
917,713;30,86
917,93;31,08
918,146;31,11
918,363;31,12
918,579;31,25
918,796;31,3
919,012;31,4
919,229;31,46
919,445;31,56
919,662;31,71
919,878;31,61
920,095;31,69
920,311;31,62
920,527;31,65
920,744;31,74
920,96;31,56
921,176;31,6
921,392;31,64
921,609;31,62
921,825;31,76
922,041;31,74
922,257;31,73
922,473;31,61
922,69;31,59
922,906;31,4
923,122;31,38
923,338;31,39
923,554;31,27
923,77;31,27
923,986;31,03
924,202;31,03
924,418;31,18
924,634;31,16
924,85;31,21
925,066;31,31
925,282;31,2
925,497;31,33
925,713;31,21
925,929;31,24
926,145;31,27
926,361;31,23
926,576;31,18
926,792;31,05
927,008;31,01
927,224;31,2
927,439;31,35
927,655;31,22
927,871;31,15
928,086;31,23
928,302;31,24
928,517;31,22
928,733;31,06
928,948;30,93
929,164;30,94
929,379;30,94
929,595;30,91
929,81;30,94
930,026;30,85
930,241;30,89
930,456;30,75
930,672;30,87
930,887;30,92
931,102;30,93
931,318;31,12
931,533;31,13
931,748;30,97
931,964;30,85
932,179;30,86
932,394;30,96
932,609;30,96
932,824;31,05
933,039;31,12
933,255;31,18
933,47;31,1
933,685;31,03
933,9;31,01
934,115;30,99
934,33;30,99
934,545;31,03
934,76;30,97
934,975;31,11
935,19;31,13
935,404;31
935,619;31,24
935,834;31,34
936,049;31,39
936,264;31,4
936,479;31,5
936,693;31,43
936,908;31,66
937,123;31,7
937,338;31,75
937,552;31,7
937,767;31,73
937,982;31,9
938,196;32,3
938,411;32,39
938,625;32,54
938,84;33,01
939,055;32,96
939,269;33,36
939,484;33,71
939,698;33,6
939,912;33,81
940,127;33,58
940,341;33,31
940,556;32,98
940,77;33,41
940,984;33,59
941,199;34,32
941,413;34,07
941,627;34,14
941,842;34,29
942,056;34,59
942,27;34,89
942,484;35,27
942,699;35,3
942,913;35,04
943,127;34,78
943,341;33,94
943,555;34,27
943,769;34,14
943,983;33,93
944,197;34,19
944,411;34,09
944,625;34,21
944,839;34,8
945,053;35,59
945,267;35,53
945,481;35,21
945,695;35,27
945,909;35,38
946,123;35,57
946,336;35,35
946,55;35,55
946,764;35,38
946,978;35,47
947,192;35,5
947,405;35,79
947,619;36,3
947,833;36,65
948,046;36,81
948,26;36,92
948,474;36,61
948,687;36,6
948,901;37,22
949,114;37,52
949,328;37,02
949,541;36,58
949,755;36,7
949,968;37,16
950,182;36,62
950,395;36,5
950,609;36,37
950,822;36,28
951,035;36,49
951,249;36,47
951,462;36,75
951,675;36,22
951,889;35,99
952,102;36,1
952,315;36,43
952,528;36,19
952,741;35,95
952,955;36,12
953,168;35,9
953,381;35,6
953,594;34,98
953,807;34,93
954,02;35,05
954,233;34,91
954,446;34,83
954,659;35,31
954,872;35
955,085;35,01
955,298;35,28
955,511;34,65
955,724;34,47
955,937;34,02
956,15;33,93
956,362;34,19
956,575;34,31
956,788;34,14
957,001;34,26
957,214;34,28
957,426;34,26
957,639;34,26
957,852;34,11
958,064;34,27
958,277;34,53
958,49;34,74
958,702;34,72
958,915;34,74
959,127;34,16
959,34;34,43
959,552;34,23
959,765;34,26
959,977;34,86
960,19;35,46
960,402;35,55
960,615;35,7
960,827;35,77
961,039;35,16
961,252;34,9
961,464;34,84
961,676;34,74
961,889;34,55
962,101;34,54
962,313;34,86
962,525;34,72
962,738;34,73
962,95;34,8
963,162;34,88
963,374;34,85
963,586;35,12
963,798;35,09
964,01;35,14
964,222;34,9
964,434;34,63
964,646;34,38
964,858;34,34
965,07;34,56
965,282;34,7
965,494;35,15
965,706;35,56
965,918;35,84
966,13;36
966,342;36,13
966,553;36,18
966,765;35,97
966,977;36,41
967,189;36,21
967,401;36,11
967,612;35,86
967,824;36,05
968,036;35,8
968,247;35,69
968,459;35,64
968,67;35,83
968,882;35,93
969,094;36,06
969,305;36,07
969,517;36,06
969,728;35,74
969,94;35,74
970,151;35,61
970,362;35,64
970,574;35,82
970,785;36,08
970,997;36,17
971,208;36,09
971,419;35,66
971,631;35,88
971,842;35,98
972,053;36,5
972,264;36,16
972,476;36,48
972,687;36,38
972,898;36,37
973,109;36,21
973,32;36,42
973,531;36,07
973,742;36,04
973,954;35,65
974,165;35,57
974,376;35,58
974,587;35,66
974,798;35,33
975,009;35,14
975,22;34,8
975,43;34,81
975,641;35,36
975,852;35,6
976,063;35,75
976,274;35,55
976,485;35,38
976,695;35,58
976,906;35,63
977,117;36,06
977,328;36,26
977,538;36,23
977,749;35,83
977,96;36,39
978,17;36,51
978,381;36,97
978,592;37,1
978,802;37,39
979,013;37,37
979,223;37,59
979,434;37,65
979,644;37,89
979,855;38,2
980,065;38,01
980,276;38,12
980,486;38
980,696;37,86
980,907;37,51
981,117;37,74
981,327;37,9
981,538;37,6
981,748;37,61
981,958;37,92
982,169;37,99
982,379;37,67
982,589;37,44
982,799;37,65
983,009;37,59
983,219;37,55
983,43;37,04
983,64;36,9
983,85;36,92
984,06;36,89
984,27;36,28
984,48;36,35
984,69;36,22
984,9;35,87
985,11;36,51
985,32;36,64
985,529;36,45
985,739;35,9
985,949;35,78
986,159;36,09
986,369;36,02
986,579;36,27
986,788;36,61
986,998;36,48
987,208;35,81
987,417;35,92
987,627;35,66
987,837;36,14
988,046;36,34
988,256;36,03
988,466;36,02
988,675;36,61
988,885;36,24
989,094;36,79
989,304;37,26
989,513;37,23
989,723;37,51
989,932;37,57
990,142;37,93
990,351;38,41
990,56;38,1
990,77;38,71
990,979;38,51
991,188;38,41
991,398;38,53
991,607;39,1
991,816;39,65
992,025;39,63
992,235;39,55
992,444;40,41
992,653;40,93
992,862;41,13
993,071;41,22
993,28;41,77
993,489;41,44
993,698;41,5
993,908;41,35
994,117;41,14
994,326;41,59
994,534;41,45
994,743;41,33
994,952;41,5
995,161;40,09
995,37;40,27
995,579;40,71
995,788;41,68
995,997;41,12
996,205;40,89
996,414;40,82
996,623;41,22
996,832;40,88
997,04;41,4
997,249;41,01
997,458;40,65
997,666;40,49
997,875;40,41
998,084;40,19
998,292;40,25
998,501;40,47
998,709;39,46
998,918;39,58
999,126;39,55
999,335;39,65
999,543;41,04
999,752;41,51
999,96;41,04
1000,169;40,06
1000,377;40,4
1000,585;40,29
1000,794;40,18
1001,002;40,11
1001,21;39,91
1001,418;39,61
1001,627;39,84
1001,835;40,55
1002,043;41,26
1002,251;40,62
1002,459;41,45
1002,668;41,13
1002,876;41,1
1003,084;42,22
1003,292;42,2
1003,5;41,98
1003,708;42,22
1003,916;41,72
1004,124;41,08
1004,332;40,5
1004,54;41,7
1004,748;41,74
1004,956;42,02
1005,163;42,37
1005,371;41,73
1005,579;41,22
1005,787;41,23
1005,995;41,53
1006,202;41,39
1006,41;40,48
1006,618;40,89
1006,826;39,89
1007,033;40,49
1007,241;40,36
1007,449;39,87
1007,656;40,01
1007,864;39,94
1008,071;39,15
1008,279;39,85
1008,486;39,76
1008,694;40,35
1008,901;39,5
1009,109;39,93
1009,316;39,68
1009,524;39,63
1009,731;40,22
1009,938;40,89
1010,146;39,68
1010,353;39,68
1010,56;39,19
1010,768;39,9
1010,975;40,71
1011,182;40,68
1011,389;39,73
1011,597;40,23
1011,804;40,26
1012,011;40,43
1012,218;41,04
1012,425;41,85
1012,632;41,12
1012,839;41,67
1013,046;41,2
1013,253;41,29
1013,46;40,49
1013,667;40,48
1013,874;40,14
1014,081;39,86
1014,288;38,87
1014,495;40,34
1014,702;39,52
1014,909;39,89
1015,116;39,64
1015,323;40,01
1015,529;40,91
1015,736;41,83
1015,943;41,35
1016,15;41,33
1016,356;42
1016,563;42,58
1016,77;42,63
1016,976;43,48
1017,183;42,62
1017,389;42,88
1017,596;43,92
1017,803;44,22
1018,009;45,12
1018,216;46,11
1018,422;46,23
1018,629;47,71
1018,835;47,34
1019,041;48,68
1019,248;49,32
1019,454;49,42
1019,661;49,85
1019,867;49,27
1020,073;50
1020,279;50,3
1020,486;49,68
1020,692;49,58
1020,898;48,14
1021,104;47,57
1021,311;45,29
1021,517;44,64
1021,723;44,23
1021,929;44,42
1022,135;44,84
1022,341;44,27
1022,547;43,42
1022,753;43,64
1022,959;42,37
1023,165;42,21
1023,371;41,94
1023,577;39,97
1023,783;38,76
1023,989;38,65
1024,195;39,34
1024,401;38,92
1024,607;39,39
1024,812;40,63
1025,018;40,84
1025,224;40,91
1025,43;41,28
1025,635;42,32
1025,841;44,51
1026,047;44,86
1026,252;44,15
1026,458;43,84
1026,664;43,87
1026,869;45,26
1027,075;46,37
1027,28;46,75
1027,486;47,64
1027,691;46,04
1027,897;46,78
1028,102;46,87
1028,308;45,99
1028,513;43,85
1028,719;42,39
1028,924;42,86
1029,129;41,81
1029,335;41,19
1029,54;41,42
1029,745;41,05
1029,95;40,89
1030,156;40,71
1030,361;41,26
1030,566;42,3
1030,771;42,19
1030,976;42,61
1031,182;42,25
1031,387;40,8
1031,592;41,2
1031,797;40,98
1032,002;40,88
1032,207;41,24
1032,412;43,59
1032,617;44
1032,822;45,17
1033,027;48,07
1033,232;48,23
1033,437;49,27
1033,642;49,61
1033,846;50,54
1034,051;51,38
1034,256;52,35
1034,461;51,86
1034,666;51,63
1034,87;50,05
1035,075;49,04
1035,28;48,38
1035,484;48,39
1035,689;47,84
1035,894;46,63
1036,098;44,22
1036,303;46,76
1036,507;46,74
1036,712;44,52
1036,917;44,44
1037,121;43,93
1037,325;41,69
1037,53;40,91
1037,734;40,16
1037,939;41,3
1038,143;42,09
1038,348;41,92
1038,552;43,03
1038,756;41,43
1038,961;41,16
1039,165;39,77
1039,369;41,84
1039,573;41,86
1039,778;41,39
1039,982;42,61
1040,186;41,31
1040,39;42,49
1040,594;41,38
1040,798;40,17
1041,002;40,59
1041,206;39,64
1041,41;41,23
1041,614;41
1041,818;40,92
1042,022;39,54
1042,226;39,61
1042,43;41,22
1042,634;41,31
1042,838;41,31
1043,042;43,36
1043,246;41,55
1043,45;43,07
1043,653;42,17
1043,857;44,18
1044,061;42,95
1044,265;41,55
1044,468;44,34
1044,672;46,18
1044,876;45,44
1045,079;44,99
1045,283;48,12
1045,487;47,05
1045,69;45,99
1045,894;46,61
1046,097;46,57
1046,301;47,8
1046,504;48,01
1046,708;46,22
1046,911;46,96
1047,115;44,93
1047,318;43,91
1047,522;46,27
1047,725;44,84
1047,928;47,31
1048,132;44,45
1048,335;45,22
1048,538;44,42
1048,741;43,62
1048,945;42,81
1049,148;42,36
1049,351;44,88
1049,554;42,42
1049,757;47,14
1049,96;45,09
1050,163;44,82
1050,367;44,68
1050,57;46,51
1050,773;42,46
1050,976;41,18
1051,179;39,45
1051,382;40,9
1051,585;44,25
1051,787;49,71
1051,99;51,34
1052,193;51,08
1052,396;49,23
1052,599;50,45
1052,802;53,56
1053,005;52,94
1053,207;52,89
1053,41;52,82
1053,613;51,44
1053,815;47,17
1054,018;43,52
1054,221;46,24
1054,423;45,88
1054,626;45,71
1054,829;44,21
1055,031;46,91
1055,234;47,42
1055,436;49,69
1055,639;48,88
1055,841;43,45
1056,044;34,46
1056,246;31,78
