Data from sienaNatWhite_Reflection__2__33.txt Node;
"Date: Wed Sep 10 12:22:02 CEST 2025 User: sycur Spectrometer: SR400348 Trigger mode: 0 Integration Time (sec): 1,000000E-2 Scans to average: 10 Electric dark correction enabled: true Nonlinearity correction enabled: false Boxcar width: 10 XAxis mode: Wavelengths Number of Pixels in Spectrum: 3648 >>>>>Begin Spectral Data<<<<<";
186,01;95,74
186,281;55,08
186,552;50,92
186,822;69,78
187,093;66,67
187,364;749,75
187,635;243,05
187,905;126,24
188,176;108,73
188,447;84,31
188,717;71,9
188,988;56,24
189,258;47,99
189,529;50,18
189,8;51,06
190,07;45,77
190,341;37,08
190,611;38,7
190,882;36,34
191,152;35,41
191,423;32,36
191,693;33,36
191,964;32,44
192,234;33,37
192,505;31,86
192,775;32,48
193,045;29,2
193,316;25,08
193,586;24,77
193,856;24,68
194,127;22,56
194,397;21,55
194,667;22,57
194,938;21,11
195,208;18,47
195,478;19,66
195,748;20,23
196,019;21,83
196,289;20,11
196,559;18,26
196,829;16,88
197,099;16,44
197,37;16,65
197,64;17,23
197,91;15,42
198,18;15,04
198,45;14,11
198,72;13,7
198,99;15,18
199,26;14,56
199,53;14,14
199,8;14,54
200,07;13,96
200,34;12,75
200,61;12,26
200,88;12,15
201,15;11,14
201,42;10,17
201,69;9,17
201,96;8,62
202,23;9,01
202,499;9,44
202,769;9,25
203,039;8,81
203,309;8,12
203,579;8,83
203,849;9,03
204,118;8,83
204,388;8,76
204,658;7,54
204,927;7,41
205,197;6,55
205,467;6,58
205,736;6,61
206,006;6,5
206,276;6,89
206,545;6,94
206,815;7,12
207,085;7,12
207,354;7,07
207,624;6,66
207,893;6,77
208,163;6,32
208,432;6,38
208,702;6,01
208,971;5,74
209,241;5,59
209,51;5,44
209,78;5,45
210,049;5,36
210,318;5,7
210,588;5,76
210,857;5,65
211,127;5,62
211,396;5,1
211,665;5,31
211,935;5,45
212,204;5,19
212,473;4,79
212,742;4,69
213,012;4,91
213,281;5,08
213,55;5,07
213,819;5,21
214,088;5,17
214,358;5,39
214,627;5,63
214,896;5,34
215,165;5,3
215,434;5,24
215,703;5,21
215,972;5,1
216,241;5,17
216,51;5,27
216,779;5,1
217,048;5,49
217,317;5,19
217,586;5
217,855;5,02
218,124;5,03
218,393;4,96
218,662;4,95
218,931;4,94
219,2;4,81
219,469;4,65
219,738;4,51
220,006;4,38
220,275;4,19
220,544;4,23
220,813;4,21
221,082;4,13
221,35;4,06
221,619;4,09
221,888;3,93
222,157;3,86
222,425;3,94
222,694;3,68
222,963;3,71
223,231;3,79
223,5;3,8
223,769;3,69
224,037;3,66
224,306;3,53
224,574;3,54
224,843;3,46
225,111;3,43
225,38;3,34
225,648;3,22
225,917;3,23
226,185;3,27
226,454;3,22
226,722;3,31
226,991;3,25
227,259;3,24
227,528;3,2
227,796;3,16
228,064;3,09
228,333;3,18
228,601;3,17
228,869;3,08
229,138;3
229,406;3,07
229,674;3,07
229,942;3,1
230,211;3,14
230,479;3,19
230,747;3,22
231,015;3,3
231,283;3,37
231,552;3,32
231,82;3,18
232,088;3,21
232,356;3,16
232,624;3,17
232,892;3,12
233,16;3,14
233,428;3,12
233,696;3,14
233,964;3,11
234,232;3,08
234,5;3,07
234,768;3,09
235,036;3,11
235,304;3,14
235,572;3,15
235,84;3,07
236,108;3,03
236,376;3,02
236,644;2,98
236,912;2,94
237,179;2,96
237,447;2,97
237,715;2,92
237,983;2,92
238,251;2,9
238,518;2,88
238,786;2,86
239,054;2,84
239,322;2,82
239,589;2,78
239,857;2,78
240,125;2,78
240,392;2,75
240,66;2,73
240,927;2,66
241,195;2,59
241,463;2,62
241,73;2,6
241,998;2,59
242,265;2,57
242,533;2,59
242,8;2,56
243,068;2,58
243,335;2,55
243,603;2,52
243,87;2,51
244,138;2,51
244,405;2,51
244,672;2,54
244,94;2,52
245,207;2,54
245,474;2,54
245,742;2,52
246,009;2,51
246,276;2,5
246,544;2,49
246,811;2,49
247,078;2,49
247,345;2,52
247,613;2,5
247,88;2,48
248,147;2,46
248,414;2,48
248,681;2,49
248,948;2,5
249,215;2,47
249,483;2,47
249,75;2,45
250,017;2,45
250,284;2,45
250,551;2,46
250,818;2,46
251,085;2,45
251,352;2,41
251,619;2,44
251,886;2,44
252,153;2,46
252,42;2,47
252,687;2,45
252,953;2,45
253,22;2,44
253,487;2,45
253,754;2,46
254,021;2,46
254,288;2,43
254,555;2,43
254,821;2,48
255,088;2,47
255,355;2,49
255,622;2,48
255,888;2,45
256,155;2,41
256,422;2,36
256,688;2,35
256,955;2,39
257,222;2,37
257,488;2,38
257,755;2,37
258,022;2,37
258,288;2,35
258,555;2,32
258,821;2,31
259,088;2,33
259,354;2,3
259,621;2,28
259,887;2,3
260,154;2,32
260,42;2,26
260,687;2,27
260,953;2,29
261,219;2,31
261,486;2,29
261,752;2,33
262,019;2,38
262,285;2,36
262,551;2,35
262,818;2,37
263,084;2,34
263,35;2,35
263,616;2,33
263,883;2,36
264,149;2,36
264,415;2,38
264,681;2,37
264,947;2,39
265,214;2,4
265,48;2,39
265,746;2,39
266,012;2,43
266,278;2,41
266,544;2,39
266,81;2,37
267,076;2,39
267,342;2,36
267,608;2,34
267,874;2,36
268,14;2,4
268,406;2,38
268,672;2,39
268,938;2,38
269,204;2,39
269,47;2,37
269,736;2,38
270,002;2,35
270,268;2,35
270,533;2,34
270,799;2,34
271,065;2,31
271,331;2,3
271,597;2,32
271,862;2,34
272,128;2,34
272,394;2,35
272,66;2,36
272,925;2,38
273,191;2,37
273,457;2,39
273,722;2,34
273,988;2,35
274,254;2,33
274,519;2,34
274,785;2,36
275,05;2,37
275,316;2,36
275,582;2,37
275,847;2,37
276,113;2,35
276,378;2,35
276,644;2,37
276,909;2,35
277,174;2,35
277,44;2,33
277,705;2,34
277,971;2,3
278,236;2,33
278,501;2,32
278,767;2,35
279,032;2,32
279,297;2,34
279,563;2,31
279,828;2,34
280,093;2,31
280,358;2,28
280,624;2,27
280,889;2,27
281,154;2,27
281,419;2,29
281,684;2,29
281,95;2,28
282,215;2,31
282,48;2,32
282,745;2,31
283,01;2,31
283,275;2,3
283,54;2,3
283,805;2,28
284,07;2,3
284,335;2,28
284,6;2,28
284,865;2,28
285,13;2,28
285,395;2,29
285,66;2,3
285,925;2,34
286,19;2,37
286,455;2,36
286,72;2,36
286,985;2,34
287,249;2,33
287,514;2,32
287,779;2,3
288,044;2,3
288,309;2,29
288,573;2,29
288,838;2,33
289,103;2,35
289,367;2,36
289,632;2,34
289,897;2,35
290,161;2,36
290,426;2,38
290,691;2,42
290,955;2,39
291,22;2,38
291,484;2,36
291,749;2,35
292,014;2,34
292,278;2,33
292,543;2,36
292,807;2,39
293,072;2,4
293,336;2,39
293,6;2,39
293,865;2,4
294,129;2,39
294,394;2,38
294,658;2,38
294,922;2,35
295,187;2,33
295,451;2,32
295,715;2,3
295,98;2,27
296,244;2,25
296,508;2,26
296,773;2,28
297,037;2,28
297,301;2,3
297,565;2,31
297,829;2,29
298,094;2,27
298,358;2,25
298,622;2,23
298,886;2,24
299,15;2,26
299,414;2,25
299,678;2,26
299,942;2,24
300,206;2,24
300,47;2,25
300,734;2,26
300,998;2,27
301,262;2,25
301,526;2,27
301,79;2,26
302,054;2,27
302,318;2,27
302,582;2,29
302,846;2,27
303,11;2,28
303,374;2,32
303,637;2,34
303,901;2,34
304,165;2,36
304,429;2,36
304,693;2,35
304,956;2,36
305,22;2,37
305,484;2,39
305,747;2,38
306,011;2,4
306,275;2,39
306,538;2,4
306,802;2,45
307,066;2,45
307,329;2,45
307,593;2,45
307,856;2,44
308,12;2,4
308,384;2,43
308,647;2,43
308,911;2,41
309,174;2,42
309,438;2,4
309,701;2,41
309,964;2,4
310,228;2,41
310,491;2,4
310,755;2,42
311,018;2,42
311,281;2,44
311,545;2,41
311,808;2,42
312,071;2,4
312,335;2,35
312,598;2,34
312,861;2,34
313,124;2,38
313,388;2,44
313,651;2,45
313,914;2,42
314,177;2,39
314,44;2,39
314,704;2,38
314,967;2,4
315,23;2,41
315,493;2,43
315,756;2,41
316,019;2,39
316,282;2,39
316,545;2,36
316,808;2,36
317,071;2,37
317,334;2,39
317,597;2,43
317,86;2,45
318,123;2,48
318,386;2,47
318,649;2,44
318,912;2,42
319,175;2,43
319,437;2,44
319,7;2,46
319,963;2,48
320,226;2,48
320,489;2,46
320,751;2,45
321,014;2,46
321,277;2,5
321,54;2,49
321,802;2,48
322,065;2,51
322,328;2,48
322,59;2,47
322,853;2,49
323,116;2,46
323,378;2,44
323,641;2,42
323,903;2,42
324,166;2,42
324,428;2,39
324,691;2,37
324,953;2,36
325,216;2,38
325,478;2,35
325,741;2,34
326,003;2,35
326,266;2,37
326,528;2,3
326,791;2,29
327,053;2,31
327,315;2,31
327,578;2,33
327,84;2,36
328,102;2,36
328,365;2,36
328,627;2,36
328,889;2,38
329,151;2,4
329,414;2,43
329,676;2,4
329,938;2,4
330,2;2,38
330,462;2,41
330,725;2,35
330,987;2,37
331,249;2,36
331,511;2,35
331,773;2,36
332,035;2,42
332,297;2,43
332,559;2,43
332,821;2,41
333,083;2,38
333,345;2,39
333,607;2,42
333,869;2,45
334,131;2,43
334,393;2,47
334,655;2,46
334,917;2,41
335,179;2,42
335,44;2,45
335,702;2,49
335,964;2,48
336,226;2,53
336,488;2,56
336,749;2,57
337,011;2,59
337,273;2,59
337,535;2,6
337,796;2,55
338,058;2,55
338,32;2,56
338,581;2,55
338,843;2,51
339,105;2,51
339,366;2,48
339,628;2,5
339,889;2,48
340,151;2,47
340,412;2,48
340,674;2,48
340,935;2,46
341,197;2,47
341,458;2,45
341,72;2,41
341,981;2,37
342,243;2,38
342,504;2,41
342,766;2,4
343,027;2,37
343,288;2,41
343,55;2,39
343,811;2,39
344,072;2,35
344,334;2,38
344,595;2,36
344,856;2,37
345,117;2,37
345,379;2,36
345,64;2,38
345,901;2,42
346,162;2,44
346,423;2,43
346,684;2,4
346,946;2,45
347,207;2,45
347,468;2,47
347,729;2,45
347,99;2,44
348,251;2,43
348,512;2,42
348,773;2,37
349,034;2,4
349,295;2,41
349,556;2,49
349,817;2,51
350,078;2,53
350,339;2,52
350,6;2,52
350,86;2,55
351,121;2,52
351,382;2,51
351,643;2,49
351,904;2,48
352,165;2,49
352,425;2,46
352,686;2,51
352,947;2,5
353,208;2,51
353,468;2,5
353,729;2,51
353,99;2,54
354,25;2,58
354,511;2,55
354,772;2,55
355,032;2,57
355,293;2,53
355,553;2,51
355,814;2,54
356,074;2,52
356,335;2,51
356,596;2,56
356,856;2,55
357,116;2,57
357,377;2,62
357,637;2,6
357,898;2,61
358,158;2,57
358,419;2,56
358,679;2,58
358,939;2,57
359,2;2,54
359,46;2,52
359,72;2,5
359,981;2,52
360,241;2,54
360,501;2,49
360,761;2,51
361,022;2,5
361,282;2,46
361,542;2,46
361,802;2,44
362,062;2,38
362,323;2,33
362,583;2,35
362,843;2,28
363,103;2,31
363,363;2,33
363,623;2,34
363,883;2,37
364,143;2,38
364,403;2,4
364,663;2,45
364,923;2,48
365,183;2,5
365,443;2,51
365,703;2,48
365,963;2,5
366,223;2,53
366,483;2,52
366,743;2,55
367,002;2,57
367,262;2,58
367,522;2,62
367,782;2,65
368,042;2,65
368,301;2,7
368,561;2,69
368,821;2,64
369,081;2,64
369,34;2,58
369,6;2,53
369,86;2,5
370,119;2,46
370,379;2,48
370,638;2,51
370,898;2,47
371,158;2,46
371,417;2,44
371,677;2,39
371,936;2,43
372,196;2,43
372,455;2,44
372,715;2,45
372,974;2,49
373,234;2,5
373,493;2,5
373,753;2,52
374,012;2,52
374,271;2,55
374,531;2,53
374,79;2,59
375,049;2,66
375,309;2,68
375,568;2,69
375,827;2,61
376,086;2,57
376,346;2,64
376,605;2,66
376,864;2,64
377,123;2,66
377,383;2,59
377,642;2,62
377,901;2,61
378,16;2,56
378,419;2,51
378,678;2,5
378,937;2,52
379,196;2,47
379,455;2,5
379,714;2,53
379,973;2,57
380,232;2,53
380,491;2,49
380,75;2,46
381,009;2,45
381,268;2,49
381,527;2,5
381,786;2,48
382,045;2,47
382,304;2,48
382,563;2,5
382,821;2,57
383,08;2,53
383,339;2,53
383,598;2,58
383,857;2,6
384,115;2,59
384,374;2,53
384,633;2,6
384,891;2,58
385,15;2,52
385,409;2,52
385,667;2,53
385,926;2,57
386,185;2,59
386,443;2,63
386,702;2,57
386,96;2,55
387,219;2,54
387,477;2,58
387,736;2,55
387,994;2,55
388,253;2,54
388,511;2,57
388,77;2,57
389,028;2,55
389,287;2,54
389,545;2,56
389,803;2,57
390,062;2,54
390,32;2,53
390,578;2,59
390,837;2,59
391,095;2,61
391,353;2,6
391,612;2,59
391,87;2,54
392,128;2,62
392,386;2,66
392,644;2,65
392,903;2,63
393,161;2,64
393,419;2,62
393,677;2,6
393,935;2,59
394,193;2,57
394,451;2,57
394,709;2,55
394,967;2,57
395,225;2,61
395,483;2,62
395,741;2,63
395,999;2,63
396,257;2,66
396,515;2,64
396,773;2,65
397,031;2,64
397,289;2,68
397,547;2,62
397,805;2,65
398,062;2,69
398,32;2,68
398,578;2,73
398,836;2,69
399,094;2,67
399,351;2,62
399,609;2,66
399,867;2,66
400,124;2,68
400,382;2,7
400,64;2,7
400,897;2,68
401,155;2,66
401,413;2,64
401,67;2,6
401,928;2,63
402,185;2,61
402,443;2,65
402,701;2,62
402,958;2,64
403,216;2,63
403,473;2,58
403,73;2,62
403,988;2,63
404,245;2,71
404,503;2,72
404,76;2,73
405,018;2,72
405,275;2,77
405,532;2,77
405,79;2,74
406,047;2,67
406,304;2,69
406,561;2,75
406,819;2,83
407,076;2,83
407,333;2,82
407,59;2,85
407,848;2,83
408,105;2,87
408,362;2,93
408,619;2,97
408,876;2,99
409,133;2,97
409,39;2,96
409,647;2,96
409,904;2,93
410,161;2,97
410,418;2,97
410,675;2,94
410,932;2,95
411,189;2,97
411,446;3,02
411,703;3,01
411,96;2,99
412,217;2,94
412,474;2,92
412,731;2,95
412,988;2,91
413,245;2,95
413,501;2,91
413,758;2,84
414,015;2,75
414,272;2,74
414,529;2,75
414,785;2,74
415,042;2,76
415,299;2,82
415,555;2,77
415,812;2,79
416,069;2,79
416,325;2,82
416,582;2,82
416,838;2,86
417,095;2,81
417,352;2,82
417,608;2,85
417,865;2,91
418,121;2,9
418,378;2,9
418,634;2,9
418,891;2,98
419,147;3,06
419,403;3,12
419,66;3,15
419,916;3,16
420,173;3,16
420,429;3,17
420,685;3,19
420,942;3,24
421,198;3,24
421,454;3,27
421,711;3,21
421,967;3,25
422,223;3,22
422,479;3,27
422,735;3,29
422,992;3,27
423,248;3,24
423,504;3,27
423,76;3,31
424,016;3,29
424,272;3,29
424,528;3,26
424,784;3,25
425,041;3,23
425,297;3,24
425,553;3,29
425,809;3,26
426,065;3,19
426,32;3,21
426,576;3,22
426,832;3,18
427,088;3,22
427,344;3,19
427,6;3,23
427,856;3,23
428,112;3,24
428,368;3,23
428,623;3,24
428,879;3,28
429,135;3,28
429,391;3,34
429,646;3,36
429,902;3,37
430,158;3,42
430,414;3,42
430,669;3,43
430,925;3,4
431,181;3,43
431,436;3,51
431,692;3,5
431,947;3,53
432,203;3,54
432,458;3,54
432,714;3,53
432,97;3,52
433,225;3,57
433,481;3,57
433,736;3,62
433,991;3,63
434,247;3,57
434,502;3,61
434,758;3,61
435,013;3,54
435,268;3,57
435,524;3,54
435,779;3,5
436,034;3,56
436,29;3,6
436,545;3,6
436,8;3,57
437,056;3,56
437,311;3,54
437,566;3,55
437,821;3,56
438,076;3,61
438,331;3,6
438,587;3,64
438,842;3,65
439,097;3,65
439,352;3,65
439,607;3,67
439,862;3,65
440,117;3,68
440,372;3,73
440,627;3,73
440,882;3,75
441,137;3,84
441,392;3,83
441,647;3,82
441,902;3,85
442,157;3,89
442,412;3,92
442,667;3,95
442,921;3,98
443,176;4,01
443,431;4
443,686;4,02
443,941;4
444,195;3,97
444,45;3,92
444,705;3,95
444,96;3,97
445,214;3,95
445,469;3,91
445,724;3,91
445,978;3,96
446,233;4,02
446,487;4,02
446,742;4,01
446,997;3,98
447,251;3,98
447,506;3,98
447,76;3,98
448,015;3,95
448,269;3,96
448,524;3,97
448,778;3,98
449,033;4
449,287;3,98
449,541;4,01
449,796;4,07
450,05;4,08
450,305;4,12
450,559;4,16
450,813;4,18
451,067;4,15
451,322;4,06
451,576;4
451,83;4
452,084;4,04
452,339;4,14
452,593;4,17
452,847;4,14
453,101;4,15
453,355;4,17
453,609;4,17
453,864;4,15
454,118;4,13
454,372;4,08
454,626;4,1
454,88;4,14
455,134;4,16
455,388;4,13
455,642;4,14
455,896;4,15
456,15;4,1
456,404;4,16
456,658;4,15
456,912;4,12
457,165;4,1
457,419;4,06
457,673;3,98
457,927;3,89
458,181;3,9
458,435;3,9
458,688;3,89
458,942;3,87
459,196;3,86
459,45;3,85
459,703;3,86
459,957;3,83
460,211;3,81
460,464;3,8
460,718;3,81
460,972;3,78
461,225;3,75
461,479;3,78
461,732;3,75
461,986;3,78
462,239;3,82
462,493;3,84
462,746;3,85
463;3,83
463,253;3,87
463,507;3,85
463,76;3,83
464,014;3,83
464,267;3,85
464,52;3,88
464,774;3,9
465,027;3,91
465,28;3,9
465,534;3,88
465,787;3,88
466,04;3,88
466,294;3,86
466,547;3,87
466,8;3,92
467,053;3,92
467,306;3,95
467,56;3,95
467,813;3,95
468,066;3,94
468,319;3,99
468,572;3,98
468,825;4,04
469,078;4,06
469,331;4,05
469,584;4,04
469,837;4,02
470,09;4,07
470,343;4,02
470,596;4,05
470,849;4,05
471,102;4,02
471,355;4,03
471,608;4,03
471,861;4,05
472,114;4
472,367;3,99
472,619;4
472,872;3,96
473,125;3,97
473,378;3,95
473,631;3,94
473,883;3,93
474,136;3,93
474,389;3,96
474,641;3,97
474,894;3,95
475,147;3,95
475,399;3,92
475,652;3,98
475,905;4
476,157;4,02
476,41;4,04
476,662;4,03
476,915;4,05
477,167;4,05
477,42;4,08
477,672;4,12
477,925;4,08
478,177;4,12
478,43;4,12
478,682;4,14
478,934;4,14
479,187;4,14
479,439;4,11
479,691;4,12
479,944;4,14
480,196;4,17
480,448;4,19
480,701;4,22
480,953;4,23
481,205;4,21
481,457;4,22
481,709;4,23
481,962;4,26
482,214;4,26
482,466;4,28
482,718;4,28
482,97;4,3
483,222;4,34
483,474;4,36
483,726;4,38
483,978;4,39
484,23;4,42
484,482;4,44
484,734;4,46
484,986;4,45
485,238;4,46
485,49;4,46
485,742;4,46
485,994;4,45
486,246;4,44
486,498;4,44
486,75;4,44
487,001;4,46
487,253;4,45
487,505;4,46
487,757;4,45
488,009;4,43
488,26;4,43
488,512;4,45
488,764;4,44
489,015;4,45
489,267;4,47
489,519;4,45
489,77;4,46
490,022;4,48
490,274;4,49
490,525;4,49
490,777;4,52
491,028;4,54
491,28;4,54
491,531;4,55
491,783;4,57
492,034;4,61
492,286;4,58
492,537;4,63
492,789;4,64
493,04;4,65
493,291;4,67
493,543;4,7
493,794;4,68
494,045;4,7
494,297;4,69
494,548;4,68
494,799;4,69
495,051;4,69
495,302;4,71
495,553;4,73
495,804;4,74
496,056;4,74
496,307;4,75
496,558;4,77
496,809;4,81
497,06;4,81
497,311;4,81
497,562;4,84
497,813;4,83
498,064;4,85
498,316;4,88
498,567;4,9
498,818;4,89
499,069;4,91
499,319;4,92
499,57;4,93
499,821;4,96
500,072;5
500,323;5,03
500,574;5,03
500,825;5,06
501,076;5,08
501,327;5,12
501,577;5,14
501,828;5,13
502,079;5,16
502,33;5,17
502,58;5,18
502,831;5,18
503,082;5,19
503,333;5,2
503,583;5,22
503,834;5,26
504,084;5,28
504,335;5,29
504,586;5,33
504,836;5,36
505,087;5,38
505,337;5,39
505,588;5,4
505,838;5,43
506,089;5,45
506,339;5,46
506,59;5,48
506,84;5,49
507,091;5,56
507,341;5,56
507,591;5,59
507,842;5,65
508,092;5,69
508,343;5,75
508,593;5,76
508,843;5,76
509,093;5,75
509,344;5,76
509,594;5,79
509,844;5,82
510,094;5,84
510,345;5,87
510,595;5,88
510,845;5,89
511,095;5,91
511,345;5,92
511,595;5,96
511,845;5,97
512,095;6,01
512,345;6,01
512,595;6,05
512,845;6,1
513,095;6,11
513,345;6,12
513,595;6,14
513,845;6,16
514,095;6,2
514,345;6,26
514,595;6,3
514,845;6,31
515,095;6,32
515,345;6,36
515,594;6,39
515,844;6,42
516,094;6,46
516,344;6,49
516,593;6,5
516,843;6,52
517,093;6,56
517,343;6,58
517,592;6,61
517,842;6,64
518,092;6,68
518,341;6,68
518,591;6,73
518,84;6,75
519,09;6,81
519,34;6,83
519,589;6,86
519,839;6,88
520,088;6,93
520,338;6,95
520,587;6,95
520,836;6,95
521,086;6,99
521,335;7,01
521,585;7,04
521,834;7,07
522,083;7,09
522,333;7,12
522,582;7,14
522,831;7,17
523,081;7,19
523,33;7,18
523,579;7,24
523,828;7,25
524,078;7,27
524,327;7,27
524,576;7,3
524,825;7,32
525,074;7,36
525,323;7,4
525,573;7,42
525,822;7,47
526,071;7,52
526,32;7,56
526,569;7,6
526,818;7,65
527,067;7,69
527,316;7,73
527,565;7,77
527,814;7,8
528,063;7,81
528,312;7,87
528,56;7,93
528,809;7,96
529,058;8,04
529,307;8,1
529,556;8,13
529,805;8,18
530,053;8,23
530,302;8,29
530,551;8,32
530,8;8,38
531,048;8,44
531,297;8,48
531,546;8,53
531,794;8,6
532,043;8,62
532,292;8,7
532,54;8,74
532,789;8,77
533,037;8,83
533,286;8,87
533,535;8,92
533,783;8,96
534,032;9,01
534,28;9
534,528;9,06
534,777;9,12
535,025;9,15
535,274;9,21
535,522;9,28
535,771;9,32
536,019;9,38
536,267;9,44
536,516;9,48
536,764;9,54
537,012;9,56
537,26;9,61
537,509;9,64
537,757;9,68
538,005;9,77
538,253;9,82
538,501;9,89
538,75;9,92
538,998;9,98
539,246;10,01
539,494;10,08
539,742;10,11
539,99;10,18
540,238;10,24
540,486;10,28
540,734;10,29
540,982;10,34
541,23;10,38
541,478;10,43
541,726;10,49
541,974;10,54
542,222;10,61
542,47;10,65
542,718;10,71
542,966;10,79
543,213;10,83
543,461;10,88
543,709;10,94
543,957;11
544,205;11,05
544,452;11,14
544,7;11,18
544,948;11,26
545,196;11,3
545,443;11,36
545,691;11,43
545,939;11,51
546,186;11,58
546,434;11,64
546,681;11,71
546,929;11,77
547,176;11,82
547,424;11,89
547,671;11,97
547,919;12,04
548,166;12,07
548,414;12,13
548,661;12,2
548,909;12,27
549,156;12,34
549,404;12,39
549,651;12,46
549,898;12,55
550,146;12,61
550,393;12,68
550,64;12,75
550,888;12,81
551,135;12,89
551,382;12,95
551,629;12,99
551,876;13,05
552,124;13,14
552,371;13,24
552,618;13,3
552,865;13,35
553,112;13,4
553,359;13,49
553,606;13,55
553,854;13,62
554,101;13,67
554,348;13,74
554,595;13,81
554,842;13,87
555,089;13,91
555,336;13,98
555,582;14,05
555,829;14,12
556,076;14,15
556,323;14,18
556,57;14,24
556,817;14,33
557,064;14,41
557,311;14,46
557,557;14,49
557,804;14,57
558,051;14,64
558,298;14,71
558,544;14,77
558,791;14,83
559,038;14,87
559,284;14,95
559,531;15,01
559,778;15,07
560,024;15,12
560,271;15,21
560,517;15,26
560,764;15,33
561,011;15,37
561,257;15,48
561,504;15,56
561,75;15,64
561,997;15,69
562,243;15,74
562,489;15,8
562,736;15,87
562,982;15,94
563,229;15,99
563,475;16,05
563,721;16,12
563,968;16,21
564,214;16,3
564,46;16,38
564,707;16,47
564,953;16,53
565,199;16,62
565,445;16,69
565,691;16,76
565,938;16,84
566,184;16,95
566,43;17,04
566,676;17,13
566,922;17,24
567,168;17,35
567,414;17,46
567,66;17,55
567,906;17,65
568,152;17,72
568,398;17,85
568,644;17,95
568,89;18,03
569,136;18,12
569,382;18,2
569,628;18,27
569,874;18,35
570,12;18,45
570,366;18,54
570,612;18,64
570,857;18,72
571,103;18,79
571,349;18,85
571,595;18,91
571,84;18,97
572,086;19,04
572,332;19,1
572,578;19,16
572,823;19,22
573,069;19,29
573,315;19,36
573,56;19,43
573,806;19,48
574,051;19,56
574,297;19,62
574,542;19,69
574,788;19,75
575,034;19,81
575,279;19,86
575,524;19,93
575,77;19,98
576,015;20,05
576,261;20,11
576,506;20,2
576,752;20,24
576,997;20,3
577,242;20,35
577,488;20,4
577,733;20,45
577,978;20,5
578,223;20,56
578,469;20,62
578,714;20,66
578,959;20,73
579,204;20,79
579,45;20,84
579,695;20,88
579,94;20,94
580,185;20,99
580,43;21,04
580,675;21,06
580,92;21,09
581,165;21,12
581,41;21,16
581,655;21,17
581,9;21,23
582,145;21,27
582,39;21,31
582,635;21,35
582,88;21,41
583,125;21,46
583,37;21,5
583,615;21,52
583,86;21,56
584,105;21,58
584,349;21,6
584,594;21,63
584,839;21,68
585,084;21,72
585,328;21,76
585,573;21,81
585,818;21,84
586,063;21,86
586,307;21,91
586,552;21,94
586,797;21,98
587,041;21,99
587,286;22,02
587,53;22,03
587,775;22,04
588,019;22,06
588,264;22,08
588,508;22,09
588,753;22,14
588,997;22,16
589,242;22,19
589,486;22,23
589,731;22,25
589,975;22,29
590,22;22,32
590,464;22,34
590,708;22,36
590,953;22,4
591,197;22,43
591,441;22,46
591,685;22,49
591,93;22,52
592,174;22,57
592,418;22,61
592,662;22,66
592,907;22,7
593,151;22,74
593,395;22,75
593,639;22,78
593,883;22,79
594,127;22,82
594,371;22,84
594,615;22,85
594,859;22,88
595,103;22,91
595,347;22,91
595,591;22,94
595,835;22,97
596,079;23
596,323;23,04
596,567;23,07
596,811;23,1
597,055;23,12
597,299;23,15
597,542;23,15
597,786;23,17
598,03;23,2
598,274;23,2
598,518;23,22
598,761;23,24
599,005;23,26
599,249;23,29
599,492;23,31
599,736;23,34
599,98;23,37
600,223;23,38
600,467;23,41
600,711;23,42
600,954;23,42
601,198;23,44
601,441;23,45
601,685;23,47
601,928;23,48
602,172;23,52
602,415;23,55
602,659;23,58
602,902;23,6
603,145;23,6
603,389;23,62
603,632;23,63
603,876;23,66
604,119;23,68
604,362;23,69
604,606;23,71
604,849;23,74
605,092;23,73
605,335;23,76
605,579;23,76
605,822;23,79
606,065;23,78
606,308;23,81
606,551;23,84
606,794;23,84
607,037;23,84
607,281;23,83
607,524;23,83
607,767;23,82
608,01;23,81
608,253;23,82
608,496;23,82
608,739;23,87
608,982;23,87
609,225;23,86
609,468;23,86
609,711;23,86
609,953;23,85
610,196;23,88
610,439;23,89
610,682;23,92
610,925;23,93
611,168;23,97
611,41;23,97
611,653;23,96
611,896;23,96
612,139;23,96
612,381;23,97
612,624;23,98
612,867;24,01
613,109;24,03
613,352;24,04
613,595;24,07
613,837;24,06
614,08;24,07
614,322;24,08
614,565;24,11
614,807;24,12
615,05;24,1
615,292;24,09
615,535;24,1
615,777;24,08
616,02;24,09
616,262;24,09
616,505;24,1
616,747;24,1
616,989;24,12
617,232;24,15
617,474;24,17
617,716;24,18
617,959;24,18
618,201;24,18
618,443;24,2
618,685;24,17
618,927;24,19
619,17;24,21
619,412;24,24
619,654;24,24
619,896;24,26
620,138;24,3
620,38;24,31
620,622;24,32
620,864;24,36
621,107;24,37
621,349;24,4
621,591;24,42
621,833;24,45
622,075;24,47
622,316;24,5
622,558;24,5
622,8;24,51
623,042;24,52
623,284;24,54
623,526;24,53
623,768;24,56
624,01;24,58
624,251;24,6
624,493;24,6
624,735;24,6
624,977;24,61
625,218;24,62
625,46;24,64
625,702;24,63
625,943;24,63
626,185;24,64
626,427;24,61
626,668;24,62
626,91;24,63
627,152;24,62
627,393;24,59
627,635;24,59
627,876;24,6
628,118;24,61
628,359;24,61
628,601;24,63
628,842;24,65
629,084;24,62
629,325;24,6
629,566;24,58
629,808;24,59
630,049;24,58
630,29;24,58
630,532;24,57
630,773;24,57
631,014;24,58
631,256;24,56
631,497;24,58
631,738;24,57
631,979;24,54
632,22;24,54
632,462;24,55
632,703;24,55
632,944;24,53
633,185;24,52
633,426;24,53
633,667;24,52
633,908;24,49
634,149;24,48
634,39;24,5
634,631;24,54
634,872;24,54
635,113;24,53
635,354;24,54
635,595;24,52
635,836;24,54
636,077;24,53
636,318;24,56
636,559;24,56
636,8;24,57
637,04;24,59
637,281;24,58
637,522;24,57
637,763;24,56
638,003;24,56
638,244;24,56
638,485;24,53
638,726;24,55
638,966;24,56
639,207;24,6
639,448;24,58
639,688;24,58
639,929;24,58
640,169;24,61
640,41;24,58
640,65;24,6
640,891;24,58
641,131;24,57
641,372;24,56
641,612;24,56
641,853;24,56
642,093;24,58
642,334;24,63
642,574;24,64
642,814;24,69
643,055;24,73
643,295;24,76
643,535;24,8
643,776;24,79
644,016;24,83
644,256;24,83
644,496;24,86
644,737;24,87
644,977;24,88
645,217;24,89
645,457;24,95
645,697;24,97
645,938;25
646,178;25,02
646,418;25,05
646,658;25,06
646,898;25,08
647,138;25,08
647,378;25,06
647,618;25,09
647,858;25,08
648,098;25,1
648,338;25,1
648,578;25,12
648,818;25,14
649,057;25,14
649,297;25,14
649,537;25,15
649,777;25,16
650,017;25,16
650,257;25,17
650,496;25,15
650,736;25,17
650,976;25,18
661,028;25,56
661,267;25,55
661,506;25,52
661,744;25,54
661,983;25,56
662,222;25,58
662,461;25,61
662,7;25,6
662,939;25,62
663,177;25,61
663,416;25,62
663,655;25,66
663,894;25,67
664,132;25,72
664,371;25,71
664,61;25,7
664,848;25,74
665,087;25,73
665,326;25,73
665,564;25,75
665,803;25,77
666,041;25,8
666,28;25,81
666,518;25,85
666,757;25,84
666,995;25,87
667,234;25,86
667,472;25,86
667,711;25,89
667,949;25,92
668,187;25,95
668,426;25,98
668,664;26,01
668,902;26
669,141;25,98
669,379;26,02
669,617;26,04
669,856;26,04
670,094;26,09
670,332;26,09
670,57;26,1
670,808;26,1
671,046;26,13
671,285;26,18
671,523;26,19
671,761;26,24
671,999;26,24
672,237;26,28
672,475;26,34
672,713;26,36
672,951;26,39
673,189;26,4
673,427;26,41
673,665;26,39
673,903;26,42
674,141;26,46
674,379;26,47
674,617;26,48
674,854;26,5
675,092;26,5
675,33;26,54
675,568;26,57
675,806;26,61
676,043;26,6
676,281;26,6
676,519;26,62
676,756;26,65
676,994;26,64
677,232;26,68
677,469;26,66
677,707;26,68
677,945;26,67
678,182;26,72
678,42;26,75
678,657;26,79
678,895;26,8
679,132;26,8
679,37;26,81
679,607;26,83
679,845;26,84
680,082;26,86
680,32;26,85
680,557;26,87
680,794;26,88
681,032;26,91
681,269;26,95
681,507;26,96
681,744;26,96
681,981;27,04
682,218;27,02
682,456;27,04
682,693;27,06
682,93;27,1
683,167;27,09
683,404;27,1
683,642;27,11
683,879;27,12
684,116;27,16
684,353;27,19
684,59;27,22
684,827;27,24
685,064;27,25
685,301;27,29
685,538;27,28
685,775;27,29
686,012;27,32
686,249;27,3
686,486;27,31
686,723;27,34
686,96;27,32
687,197;27,34
687,433;27,33
687,67;27,37
687,907;27,37
688,144;27,39
688,381;27,42
688,617;27,45
688,854;27,49
689,091;27,48
689,327;27,51
689,564;27,5
689,801;27,5
690,037;27,51
690,274;27,53
690,511;27,56
690,747;27,59
690,984;27,59
691,22;27,63
691,457;27,65
691,693;27,65
691,93;27,69
692,166;27,72
692,403;27,77
692,639;27,77
692,876;27,79
693,112;27,81
693,348;27,79
693,585;27,81
693,821;27,84
694,057;27,88
694,294;27,89
694,53;27,91
694,766;27,95
695,002;27,98
695,239;28
695,475;28,04
695,711;28,06
695,947;28,08
696,183;28,11
696,419;28,14
696,656;28,13
696,892;28,13
697,128;28,16
697,364;28,17
697,6;28,16
697,836;28,2
698,072;28,22
698,308;28,26
698,544;28,27
698,78;28,27
699,016;28,25
699,251;28,26
699,487;28,29
699,723;28,32
699,959;28,35
700,195;28,38
700,431;28,39
700,666;28,4
700,902;28,43
701,138;28,43
701,374;28,44
701,609;28,49
701,845;28,54
702,081;28,56
702,316;28,58
702,552;28,6
702,788;28,63
703,023;28,65
703,259;28,66
703,494;28,68
703,73;28,71
703,965;28,74
704,201;28,77
704,436;28,82
704,672;28,84
704,907;28,88
705,143;28,9
705,378;28,91
705,613;28,95
705,849;28,96
706,084;28,99
706,319;29,02
706,555;29,04
706,79;29,04
707,025;29,04
707,26;29,09
707,496;29,16
707,731;29,17
707,966;29,21
708,201;29,24
708,436;29,28
708,671;29,31
708,907;29,33
709,142;29,36
709,377;29,37
709,612;29,41
709,847;29,43
710,082;29,45
710,317;29,46
710,552;29,52
710,787;29,54
711,022;29,57
711,257;29,59
711,492;29,62
711,726;29,65
711,961;29,72
712,196;29,72
712,431;29,71
712,666;29,71
712,901;29,71
713,135;29,73
713,37;29,75
713,605;29,79
713,839;29,83
714,074;29,83
714,309;29,83
714,543;29,82
714,778;29,83
715,013;29,81
715,247;29,84
715,482;29,83
715,716;29,87
715,951;29,9
716,185;29,91
716,42;29,91
716,654;29,9
716,889;29,9
717,123;29,92
717,358;29,94
717,592;29,97
717,827;29,97
718,061;29,98
718,295;29,98
718,53;29,97
718,764;29,94
718,998;29,96
719,232;29,96
719,467;29,99
719,701;29,97
719,935;30,03
720,169;30,06
720,403;30,06
720,638;30,11
720,872;30,09
721,106;30,1
721,34;30,09
721,574;30,13
721,808;30,14
722,042;30,17
722,276;30,17
722,51;30,2
722,744;30,23
722,978;30,25
723,212;30,27
723,446;30,29
723,68;30,34
723,914;30,39
724,147;30,45
724,381;30,47
724,615;30,53
724,849;30,53
725,083;30,55
725,316;30,57
725,55;30,56
725,784;30,59
726,018;30,64
726,251;30,69
726,485;30,72
726,719;30,74
726,952;30,76
727,186;30,83
727,419;30,87
727,653;30,91
727,887;30,96
728,12;31,03
728,354;31,04
728,587;31,08
728,821;31,09
729,054;31,09
729,287;31,14
729,521;31,15
729,754;31,16
729,988;31,17
730,221;31,22
730,454;31,24
730,688;31,28
730,921;31,32
731,154;31,35
731,387;31,37
731,621;31,41
731,854;31,44
732,087;31,43
732,32;31,44
732,553;31,43
732,787;31,46
733,02;31,48
733,253;31,51
733,486;31,52
733,719;31,56
733,952;31,59
734,185;31,59
734,418;31,64
734,651;31,66
734,884;31,7
735,117;31,7
735,35;31,71
735,583;31,72
735,816;31,72
736,049;31,74
736,281;31,77
736,514;31,76
736,747;31,79
736,98;31,81
737,213;31,83
737,445;31,86
737,678;31,84
737,911;31,8
738,144;31,81
738,376;31,83
738,609;31,82
738,842;31,79
739,074;31,79
739,307;31,78
739,539;31,78
739,772;31,75
740,004;31,75
740,237;31,77
740,469;31,74
740,702;31,74
740,934;31,74
741,167;31,72
741,399;31,73
741,632;31,73
741,864;31,74
742,096;31,74
742,329;31,76
742,561;31,77
742,793;31,78
743,026;31,82
743,258;31,8
743,49;31,81
743,723;31,84
743,955;31,82
744,187;31,81
744,419;31,83
744,651;31,85
744,883;31,86
745,115;31,87
745,348;31,9
745,58;31,91
745,812;31,89
746,044;31,94
746,276;31,93
746,508;31,94
746,74;31,97
746,972;31,98
747,204;31,94
747,436;31,94
747,667;31,99
747,899;31,99
748,131;31,99
748,363;32,03
748,595;32,06
748,827;32,12
749,058;32,15
749,29;32,16
749,522;32,14
749,754;32,16
749,985;32,16
750,217;32,14
750,449;32,14
750,68;32,13
750,912;32,13
751,144;32,19
751,375;32,18
751,607;32,18
751,838;32,2
752,07;32,21
752,301;32,21
752,533;32,19
752,764;32,21
752,996;32,23
753,227;32,2
753,459;32,17
753,69;32,16
753,921;32,19
754,153;32,2
754,384;32,26
754,615;32,25
754,847;32,29
755,078;32,4
755,309;32,46
755,54;32,49
755,772;32,47
756,003;32,45
756,234;32,47
756,465;32,51
756,696;32,49
756,927;32,52
757,159;32,55
757,39;32,57
757,621;32,6
757,852;32,6
758,083;32,61
758,314;32,66
758,545;32,7
758,776;32,7
759,007;32,7
759,238;32,69
759,469;32,69
759,699;32,65
759,93;32,6
760,161;32,58
760,392;32,57
760,623;32,57
760,854;32,57
761,084;32,57
761,315;32,52
761,546;32,51
761,776;32,52
762,007;32,53
762,238;32,51
762,468;32,47
762,699;32,5
762,93;32,55
763,16;32,54
763,391;32,51
763,621;32,5
763,852;32,53
764,083;32,54
764,313;32,56
764,543;32,56
764,774;32,56
765,004;32,52
765,235;32,53
765,465;32,53
765,696;32,54
765,926;32,53
766,156;32,53
766,387;32,57
766,617;32,57
766,847;32,55
767,077;32,54
767,308;32,55
767,538;32,56
767,768;32,5
767,998;32,51
768,228;32,5
768,459;32,48
768,689;32,48
768,919;32,5
769,149;32,51
769,379;32,52
769,609;32,54
769,839;32,57
770,069;32,59
770,299;32,59
770,529;32,57
770,759;32,57
770,989;32,57
771,219;32,56
771,449;32,56
771,678;32,59
771,908;32,63
772,138;32,62
772,368;32,59
772,598;32,58
772,827;32,61
773,057;32,6
773,287;32,61
773,517;32,59
773,746;32,56
773,976;32,54
774,206;32,51
774,435;32,49
774,665;32,51
774,894;32,48
775,124;32,46
775,354;32,44
775,583;32,43
775,813;32,43
776,042;32,41
776,272;32,39
776,501;32,39
776,73;32,39
776,96;32,4
777,189;32,4
777,419;32,44
777,648;32,41
777,877;32,41
778,107;32,36
778,336;32,37
778,565;32,33
778,794;32,33
779,024;32,36
779,253;32,36
779,482;32,36
779,711;32,37
779,94;32,38
780,17;32,39
780,399;32,41
780,628;32,42
780,857;32,43
781,086;32,43
781,315;32,44
781,544;32,43
781,773;32,4
782,002;32,39
782,231;32,35
782,46;32,32
782,689;32,32
782,918;32,36
783,147;32,31
783,375;32,32
783,604;32,32
783,833;32,32
784,062;32,29
784,291;32,24
784,519;32,24
784,748;32,21
784,977;32,2
785,206;32,15
785,434;32,1
785,663;32,09
785,892;32,09
786,12;32,03
786,349;32,04
786,577;32
786,806;31,98
787,034;32
787,263;31,99
787,492;31,97
787,72;31,94
787,948;31,99
788,177;31,97
788,405;31,94
788,634;31,91
788,862;31,93
789,09;31,91
789,319;31,89
789,547;31,92
789,775;31,91
790,004;31,95
790,232;31,93
790,46;31,9
790,688;31,86
790,917;31,81
791,145;31,77
791,373;31,8
791,601;31,83
791,829;31,79
792,057;31,8
792,286;31,79
792,514;31,85
792,742;31,82
792,97;31,83
793,198;31,8
793,426;31,76
793,654;31,69
793,882;31,7
794,109;31,72
794,337;31,71
794,565;31,71
794,793;31,66
795,021;31,69
795,249;31,73
795,477;31,76
795,704;31,76
795,932;31,75
796,16;31,71
796,388;31,66
796,615;31,66
796,843;31,61
797,071;31,59
797,298;31,55
797,526;31,56
797,754;31,52
797,981;31,51
798,209;31,5
798,436;31,51
798,664;31,51
798,891;31,47
799,119;31,42
799,346;31,37
799,574;31,35
799,801;31,37
800,029;31,28
800,256;31,28
800,483;31,28
800,711;31,25
800,938;31,21
801,165;31,17
801,393;31,12
801,62;31,12
801,847;31,12
802,074;31,05
802,302;31,03
802,529;31,02
802,756;31,01
802,983;31,04
803,21;31,04
803,437;30,96
803,665;30,97
803,892;31,02
804,119;31,01
804,346;31
804,573;30,98
804,8;31,01
805,027;30,96
805,254;30,96
805,481;30,99
805,708;31,02
805,934;31,03
806,161;31,04
806,388;31,04
806,615;31,02
806,842;31,03
807,069;31
807,295;30,98
807,522;31,01
807,749;31,01
807,976;30,95
808,202;30,99
808,429;30,92
808,656;30,89
808,882;30,91
809,109;30,9
809,335;30,81
809,562;30,76
809,789;30,75
810,015;30,7
810,242;30,67
810,468;30,63
810,695;30,62
810,921;30,62
811,147;30,57
811,374;30,51
811,6;30,54
811,827;30,51
812,053;30,46
812,279;30,38
812,506;30,36
812,732;30,39
812,958;30,38
813,185;30,31
813,411;30,29
813,637;30,27
813,863;30,27
814,089;30,3
814,315;30,3
814,542;30,28
814,768;30,27
814,994;30,25
815,22;30,23
815,446;30,26
815,672;30,23
815,898;30,22
816,124;30,2
816,35;30,07
816,576;30,08
816,802;30,08
817,028;30,11
817,254;30,08
817,48;30,02
817,705;29,98
817,931;30,01
818,157;30
818,383;29,94
818,609;29,87
818,834;29,84
819,06;29,8
819,286;29,85
819,512;29,87
819,737;29,76
819,963;29,76
820,189;29,69
820,414;29,69
820,64;29,67
820,865;29,73
821,091;29,78
821,316;29,72
821,542;29,72
821,767;29,68
821,993;29,65
822,218;29,64
822,444;29,66
822,669;29,69
822,895;29,65
823,12;29,72
823,345;29,72
823,571;29,64
823,796;29,67
824,021;29,56
824,247;29,54
824,472;29,58
824,697;29,6
824,922;29,63
825,147;29,6
825,373;29,61
825,598;29,56
825,823;29,54
826,048;29,55
826,273;29,51
826,498;29,58
826,723;29,61
826,948;29,64
827,173;29,61
827,398;29,59
827,623;29,57
827,848;29,51
828,073;29,48
828,298;29,54
828,523;29,53
828,748;29,52
828,973;29,46
829,197;29,45
829,422;29,39
829,647;29,34
829,872;29,26
830,097;29,25
830,321;29,21
830,546;29,21
830,771;29,23
830,995;29,26
831,22;29,24
831,445;29,15
831,669;29,13
831,894;29,07
832,118;29,04
832,343;29,03
832,567;29,04
832,792;29,06
833,016;29,05
833,241;29,06
833,465;29,11
833,69;29,09
833,914;29,08
834,139;29,07
834,363;29,05
834,587;29,08
834,812;29,04
835,036;29,03
835,26;29,02
835,485;29,01
835,709;28,96
835,933;28,9
836,157;28,92
836,381;28,89
836,606;28,89
836,83;28,88
837,054;28,88
837,278;28,8
837,502;28,74
837,726;28,68
837,95;28,6
838,174;28,55
838,398;28,55
838,622;28,55
838,846;28,56
839,07;28,54
839,294;28,52
839,518;28,5
839,742;28,44
839,966;28,44
840,189;28,35
840,413;28,31
840,637;28,29
840,861;28,29
841,085;28,22
841,308;28,14
841,532;28,13
841,756;28,11
841,979;28,12
842,203;28,19
842,427;28,19
842,65;28,19
842,874;28,18
843,098;28,09
843,321;28,09
843,545;28,06
843,768;28,06
843,992;28,04
844,215;28,05
844,439;28,1
844,662;28,06
844,886;28,11
845,109;28,16
845,332;28,12
845,556;28,13
845,779;28,12
846,002;28,22
846,226;28,22
846,449;28,16
846,672;28,11
846,895;28,02
847,119;28,02
847,342;27,98
847,565;27,97
847,788;28,01
848,011;28
848,234;27,96
848,457;27,95
848,681;27,92
848,904;27,86
849,127;27,84
849,35;27,87
849,573;27,87
849,796;27,8
850,019;27,8
850,241;27,75
850,464;27,76
850,687;27,79
850,91;27,74
851,133;27,85
851,356;27,9
851,579;27,94
851,801;27,95
852,024;28,04
852,247;28,08
852,47;28,07
852,692;28,02
852,915;28,07
853,138;28,08
853,36;28,06
853,583;28,02
853,806;28
854,028;27,88
854,251;27,82
854,473;27,84
854,696;27,76
854,918;27,77
855,141;27,78
855,363;27,69
855,586;27,72
855,808;27,58
856,031;27,55
856,253;27,52
856,475;27,48
856,698;27,35
856,92;27,28
857,142;27,24
857,365;27,19
857,587;27,08
857,809;27
858,031;27,12
858,253;27,13
858,476;27,1
858,698;27,15
858,92;27,12
859,142;27,07
859,364;27,15
859,586;27,18
859,808;27,2
860,03;27,22
860,252;27,2
860,474;27,26
860,696;27,31
860,918;27,25
861,14;27,36
861,362;27,36
861,584;27,33
861,806;27,34
862,028;27,35
862,25;27,42
862,471;27,41
862,693;27,28
862,915;27,32
863,137;27,32
863,358;27,3
863,58;27,37
863,802;27,35
864,024;27,33
864,245;27,23
864,467;27,21
864,688;27,23
864,91;27,2
865,132;27,14
865,353;27,06
865,575;27,11
865,796;27,01
866,018;27,05
866,239;27,07
866,461;27,09
866,682;27,08
866,903;27,03
867,125;27,13
867,346;27,17
867,567;27,13
867,789;27,1
868,01;27,13
868,231;27,04
868,453;27,03
868,674;27,02
868,895;27,09
869,116;27,02
869,337;26,93
869,559;26,87
869,78;26,94
870,001;26,97
870,222;26,95
870,443;27,03
870,664;26,97
870,885;26,98
871,106;26,94
871,327;26,98
871,548;27
871,769;26,94
871,99;27,03
872,211;27,03
872,432;27,04
872,653;27
872,874;26,98
873,094;27,02
873,315;27
873,536;26,97
873,757;26,92
873,978;26,97
874,198;26,96
874,419;26,92
874,64;26,92
874,86;26,9
875,081;26,81
875,302;26,84
875,522;26,87
875,743;26,88
875,963;26,9
876,184;26,91
876,404;26,87
876,625;26,74
876,845;26,71
877,066;26,75
877,286;26,79
877,507;26,89
877,727;26,92
877,947;26,89
878,168;26,87
878,388;26,88
878,609;26,89
878,829;26,95
879,049;26,92
879,269;26,89
879,49;26,86
879,71;26,86
879,93;26,82
880,15;26,79
880,37;26,84
880,59;26,81
880,811;26,83
881,031;26,77
881,251;26,8
881,471;26,82
881,691;26,79
881,911;26,77
882,131;26,75
882,351;26,62
882,571;26,61
882,791;26,65
883,011;26,71
883,23;26,7
883,45;26,65
883,67;26,71
883,89;26,67
884,11;26,65
884,33;26,6
884,549;26,62
884,769;26,57
884,989;26,63
885,209;26,66
885,428;26,68
885,648;26,71
885,868;26,75
886,087;26,82
886,307;26,74
886,526;26,71
886,746;26,75
886,965;26,8
887,185;26,85
887,404;26,84
887,624;26,94
887,843;26,97
888,063;27
888,282;26,99
888,502;27,01
888,721;27,03
888,94;27,05
889,16;27,07
889,379;27,09
889,598;27,04
889,818;26,99
890,037;26,95
890,256;26,95
890,475;26,93
890,694;26,81
890,914;26,86
891,133;26,87
891,352;26,83
891,571;26,79
891,79;26,82
892,009;26,78
892,228;26,73
892,447;26,74
892,666;26,7
892,885;26,63
893,104;26,64
893,323;26,72
893,542;26,79
893,761;26,75
893,98;26,77
894,199;26,71
894,417;26,67
894,636;26,7
894,855;26,73
895,074;26,61
895,293;26,74
895,511;26,71
895,73;26,68
895,949;26,7
896,167;26,75
896,386;26,69
896,605;26,77
896,823;26,73
897,042;26,67
897,26;26,64
897,479;26,73
897,697;26,76
897,916;26,79
898,134;26,74
898,353;26,83
898,571;26,87
898,79;26,97
899,008;27
899,227;26,95
899,445;26,93
899,663;27,16
899,882;27,09
900,1;27,11
900,318;27,17
900,536;27,24
900,755;27,28
900,973;27,25
901,191;27,06
901,409;27,05
901,627;27,05
901,846;27,3
902,064;27,21
902,282;27,11
902,5;26,97
902,718;26,96
902,936;26,85
903,154;26,79
903,372;26,68
903,59;26,71
903,808;26,67
904,026;26,74
904,244;26,63
904,462;26,63
904,679;26,65
904,897;26,62
905,115;26,55
905,333;26,58
905,551;26,68
905,768;26,78
905,986;26,77
906,204;26,76
906,422;26,56
906,639;26,58
906,857;26,72
907,074;26,68
907,292;26,66
907,51;26,58
907,727;26,63
907,945;26,74
908,162;26,8
908,38;26,81
908,597;26,74
908,815;26,77
909,032;26,74
909,25;26,72
909,467;26,78
909,684;26,77
909,902;26,66
910,119;26,67
910,337;26,7
910,554;26,78
910,771;26,81
910,988;26,87
911,206;26,84
911,423;26,87
911,64;27,03
911,857;27,2
912,074;27,33
912,291;27,31
912,509;27,26
912,726;27,18
912,943;27,27
913,16;27,32
913,377;27,23
913,594;27,29
913,811;27,31
914,028;27,33
914,245;27,36
914,462;27,32
914,679;27,33
914,896;27,39
915,112;27,32
915,329;27,42
915,546;27,36
915,763;27,41
915,98;27,34
916,196;27,22
916,413;27,18
916,63;27,34
916,847;27,38
917,063;27,33
917,28;27,29
917,497;27,24
917,713;27,24
917,93;27,39
918,146;27,36
918,363;27,57
918,579;27,41
918,796;27,42
919,012;27,61
919,229;27,53
919,445;27,56
919,662;27,59
919,878;27,44
920,095;27,56
920,311;27,63
920,527;27,66
920,744;27,79
920,96;27,77
921,176;27,54
921,392;27,38
921,609;27,45
921,825;27,56
922,041;27,64
922,257;27,62
922,473;27,65
922,69;27,73
922,906;27,38
923,122;27,59
923,338;27,54
923,554;27,52
923,77;27,55
923,986;27,51
924,202;27,61
924,418;27,73
924,634;27,66
924,85;27,62
925,066;27,59
925,282;27,56
925,497;27,48
925,713;27,6
925,929;27,81
926,145;27,82
926,361;27,69
926,576;27,65
926,792;27,61
927,008;27,55
927,224;27,65
927,439;27,68
927,655;27,59
927,871;27,51
928,086;27,49
928,302;27,45
928,517;27,43
928,733;27,4
928,948;27,33
929,164;27,4
929,379;27,31
929,595;27,33
929,81;27,3
930,026;27,29
930,241;27,28
930,456;27,11
930,672;27,09
930,887;27,22
931,102;27,19
931,318;27,27
931,533;27,19
931,748;27,07
931,964;27,17
932,179;27,16
932,394;27,31
932,609;27,28
932,824;27,38
933,039;27,38
933,255;27,36
933,47;27,27
933,685;27,19
933,9;27,33
934,115;27,36
934,33;27,38
934,545;27,46
934,76;27,51
934,975;27,64
935,19;27,76
935,404;27,77
935,619;27,98
935,834;28,07
936,049;28,26
936,264;28,41
936,479;28,6
936,693;28,7
936,908;28,79
937,123;28,97
937,338;28,94
937,552;29,08
937,767;29,09
937,982;29,56
938,196;29,8
938,411;29,86
938,625;30,23
938,84;30,45
939,055;30,84
939,269;30,85
939,484;31,24
939,698;31,41
939,912;31,6
940,127;31,78
940,341;31,67
940,556;31,74
940,77;32,2
940,984;32,28
941,199;32,47
941,413;32,63
941,627;32,92
941,842;33,15
942,056;33,3
942,27;33,89
942,484;34,18
942,699;34,39
942,913;34,71
943,127;34,58
943,341;34,66
943,555;34,59
943,769;34,8
943,983;34,41
944,197;34,35
944,411;34,16
944,625;33,53
944,839;34,3
945,053;34,33
945,267;33,65
945,481;33,48
945,695;33,9
945,909;33,51
946,123;33,18
946,336;33,75
946,55;34,23
946,764;34,36
946,978;33,92
947,192;33,98
947,405;33,75
947,619;33,85
947,833;33,45
948,046;33,81
948,26;34,09
948,474;34,19
948,687;34,52
948,901;34,9
949,114;34,94
949,328;34,74
949,541;34,55
949,755;34,68
949,968;34,83
950,182;34,49
950,395;34,69
950,609;34,9
950,822;34,21
951,035;33,94
951,249;33,38
951,462;34,06
951,675;33,66
951,889;33,59
952,102;33,86
952,315;34,49
952,528;34,01
952,741;33,62
952,955;33,71
953,168;33,16
953,381;32,72
953,594;32,71
953,807;32,85
954,02;32,91
954,233;32,54
954,446;32,34
954,659;32,38
954,872;32,58
955,085;32,45
955,298;32,85
955,511;32,48
955,724;32,22
955,937;32,01
956,15;31,84
956,362;31,76
956,575;31,3
956,788;30,84
957,001;30,67
957,214;30,5
957,426;30,57
957,639;30,86
957,852;30,85
958,064;30,77
958,277;30,39
958,49;30,53
958,702;30,73
958,915;30,57
959,127;30,55
959,34;30,12
959,552;30,24
959,765;30,19
959,977;30,49
960,19;30,89
960,402;30,86
960,615;31,24
960,827;31,03
961,039;30,94
961,252;31,05
961,464;30,94
961,676;31,33
961,889;31,26
962,101;31,26
962,313;31,38
962,525;31,52
962,738;31,54
962,95;31,54
963,162;31,67
963,374;31,7
963,586;31,6
963,798;31,86
964,01;31,57
964,222;31,58
964,434;31,37
964,646;31,39
964,858;31,09
965,07;30,98
965,282;31,58
965,494;31,96
965,706;32,1
965,918;32,28
966,13;32,2
966,342;32,18
966,553;31,83
966,765;31,91
966,977;32,23
967,189;32,46
967,401;32,21
967,612;32,23
967,824;32,68
968,036;32,75
968,247;32,46
968,459;32,77
968,67;32,55
968,882;32,47
969,094;32,4
969,305;32,94
969,517;33,17
969,728;32,98
969,94;33
970,151;32,69
970,362;32,85
970,574;32,96
970,785;33,05
970,997;33,28
971,208;33,35
971,419;33,1
971,631;33,22
971,842;33,65
972,053;33,61
972,264;33,61
972,476;33,6
972,687;34,01
972,898;33,54
973,109;33,61
973,32;34
973,531;34,06
973,742;33,68
973,954;33,67
974,165;33,68
974,376;33,66
974,587;34,09
974,798;33,92
975,009;33,54
975,22;33,63
975,43;33,7
975,641;34,04
975,852;34,19
976,063;34,15
976,274;33,95
976,485;34,03
976,695;33,42
976,906;33,75
977,117;34
977,328;34,51
977,538;34,54
977,749;34,27
977,96;34,4
978,17;34,18
978,381;33,95
978,592;34,2
978,802;34,21
979,013;34,09
979,223;34,46
979,434;34,61
979,644;34,61
979,855;34,91
980,065;34,81
980,276;34,49
980,486;34,26
980,696;34,3
980,907;34,12
981,117;34,85
981,327;34,82
981,538;34,63
981,748;34,51
981,958;34,93
982,169;34,97
982,379;35,08
982,589;35,39
982,799;35,43
983,009;35,18
983,219;35,11
983,43;34,59
983,64;34,54
983,85;34,85
984,06;34,83
984,27;34,2
984,48;34,07
984,69;34,27
984,9;34,04
985,11;34,02
985,32;34,29
985,529;33,85
985,739;33,79
985,949;33,64
986,159;33,56
986,369;33,04
986,579;33,31
986,788;33,2
986,998;33,45
987,208;33,52
987,417;33,71
987,627;33,38
987,837;33,92
988,046;33,81
988,256;33,3
988,466;33,76
988,675;34,13
988,885;34,27
989,094;34,25
989,304;34,29
989,513;34,53
989,723;34,49
989,932;34,5
990,142;34,16
990,351;34,16
990,56;34,21
990,77;34,51
990,979;34,32
991,188;34,87
991,398;34,79
991,607;34,56
991,816;34,65
992,025;35,02
992,235;34,96
992,444;35,7
992,653;36,24
992,862;35,24
993,071;34,65
993,28;35,3
993,489;35,91
993,698;36,15
993,908;36,33
994,117;36,46
994,326;36,81
994,534;36,99
994,743;37,41
994,952;37,49
995,161;37,08
995,37;37,5
995,579;36,93
995,788;36,31
995,997;36,33
996,205;36,33
996,414;36,8
996,623;37,43
996,832;36,6
997,04;36,61
997,249;37,6
997,458;38,06
997,666;37,26
997,875;37,35
998,084;37,33
998,292;37,32
998,501;37,28
998,709;36,95
998,918;37,36
999,126;37,22
999,335;37,26
999,543;37,51
999,752;37,45
999,96;37,74
1000,169;38,28
1000,377;38,37
1000,585;38,18
1000,794;37,88
1001,002;37,54
1001,21;38,22
1001,418;38,31
1001,627;37,82
1001,835;38,2
1002,043;38,15
1002,251;37,5
1002,459;38,07
1002,668;37,35
1002,876;38,04
1003,084;38,42
1003,292;38,36
1003,5;38,02
1003,708;38,4
1003,916;38,82
1004,124;38,44
1004,332;37,82
1004,54;37,72
1004,748;38,19
1004,956;38,11
1005,163;37,91
1005,371;37,76
1005,579;37,73
1005,787;38,16
1005,995;37,95
1006,202;38,2
1006,41;37,92
1006,618;38,28
1006,826;38,32
1007,033;38,74
1007,241;37,36
1007,449;37
1007,656;36,85
1007,864;37,51
1008,071;37,69
1008,279;38,03
1008,486;38,19
1008,694;39,25
1008,901;39,92
1009,109;40,42
1009,316;40,65
1009,524;40,71
1009,731;40,92
1009,938;40,91
1010,146;40,44
1010,353;41,14
1010,56;41,28
1010,768;41,81
1010,975;41,59
1011,182;41,29
1011,389;40,51
1011,597;41,92
1011,804;42,93
1012,011;43,35
1012,218;41,79
1012,425;41,94
1012,632;42,32
1012,839;42,49
1013,046;41,24
1013,253;40,22
1013,46;39,41
1013,667;40,28
1013,874;40,6
1014,081;41,29
1014,288;40,77
1014,495;41,64
1014,702;41,65
1014,909;41,17
1015,116;41,57
1015,323;41,7
1015,529;41,6
1015,736;43,35
1015,943;43,26
1016,15;42,31
1016,356;42,38
1016,563;44,02
1016,77;43,27
1016,976;43,04
1017,183;43,53
1017,389;44,18
1017,596;45,5
1017,803;44,89
1018,009;45,19
1018,216;45,05
1018,422;43,98
1018,629;44,89
1018,835;44,63
1019,041;44,1
1019,248;44,22
1019,454;43,66
1019,661;44,51
1019,867;44,88
1020,073;45,53
1020,279;46,14
1020,486;46,34
1020,692;46,41
1020,898;44,66
1021,104;44,77
1021,311;42,86
1021,517;40,86
1021,723;42,14
1021,929;41,48
1022,135;43,67
1022,341;42,49
1022,547;42,98
1022,753;44,51
1022,959;43,17
1023,165;42,26
1023,371;42,47
1023,577;42,17
1023,783;41,75
1023,989;39,6
1024,195;39,74
1024,401;38,99
1024,607;37,84
1024,812;39,27
1025,018;39,2
1025,224;41,01
1025,43;41,87
1025,635;42,15
1025,841;44,49
1026,047;43,21
1026,252;44,96
1026,458;44,29
1026,664;44,86
1026,869;44,74
1027,075;44,38
1027,28;44,39
1027,486;44,28
1027,691;44,24
1027,897;44,55
1028,102;44,73
1028,308;46,65
1028,513;46,4
1028,719;44,92
1028,924;45,04
1029,129;43,01
1029,335;41,68
1029,54;41,95
1029,745;41,54
1029,95;42,81
1030,156;42,99
1030,361;42,87
1030,566;42,08
1030,771;41,95
1030,976;42,1
1031,182;43,98
1031,387;43,34
1031,592;45,08
1031,797;45,52
1032,002;45,6
1032,207;46,85
1032,412;47,73
1032,617;47,54
1032,822;46,59
1033,027;49,49
1033,232;48,8
1033,437;49,68
1033,642;51,22
1033,846;51,88
1034,051;52,24
1034,256;53,24
1034,461;53,35
1034,666;52,81
1034,87;51,61
1035,075;50,3
1035,28;48,32
1035,484;45,3
1035,689;44,18
1035,894;43,33
1036,098;42,6
1036,303;43,68
1036,507;44,02
1036,712;43,57
1036,917;44,04
1037,121;49,17
1037,325;47,11
1037,53;46,93
1037,734;48,32
1037,939;49,78
1038,143;49,02
1038,348;49,62
1038,552;49,6
1038,756;48,74
1038,961;50,52
1039,165;49,1
1039,369;50,28
1039,573;52,41
1039,778;53,8
1039,982;55,24
1040,186;54,42
1040,39;57
1040,594;57,02
1040,798;55,27
1041,002;57,12
1041,206;55,62
1041,41;52,62
1041,614;52,8
1041,818;53,42
1042,022;52,78
1042,226;52,19
1042,43;52,7
1042,634;50,63
1042,838;50,61
1043,042;49,57
1043,246;50,35
1043,45;51,52
1043,653;52,64
1043,857;54,38
1044,061;52,71
1044,265;51,85
1044,468;53,56
1044,672;51,55
1044,876;49,68
1045,079;49,56
1045,283;50,46
1045,487;50,22
1045,69;51,53
1045,894;49,41
1046,097;52,07
1046,301;54
1046,504;55,69
1046,708;54,84
1046,911;59,09
1047,115;58,03
1047,318;61,57
1047,522;61,12
1047,725;60,81
1047,928;59,48
1048,132;57,97
1048,335;60,28
1048,538;59,74
1048,741;59,39
1048,945;60,27
1049,148;64,42
1049,351;63,65
1049,554;65,02
1049,757;67,24
1049,96;66,73
1050,163;72,69
1050,367;71,21
1050,57;70,25
1050,773;69,38
1050,976;72,09
1051,179;68,63
1051,382;68,75
1051,585;71,37
1051,787;69,65
1051,99;72,09
1052,193;73,98
1052,396;73,56
1052,599;72,12
1052,802;75,49
1053,005;74,92
1053,207;75,08
1053,41;71,57
1053,613;71,95
1053,815;66,91
1054,018;67,32
1054,221;66,7
1054,423;64,3
1054,626;64,08
1054,829;62,51
1055,031;61,54
1055,234;58,96
1055,436;61,03
1055,639;61,86
1055,841;53,96
1056,044;56,44
1056,246;54,23
