Data from sienaNatWhite_Reflection__0__31.txt Node;
"Date: Wed Sep 10 12:20:09 CEST 2025 User: sycur Spectrometer: SR400348 Trigger mode: 0 Integration Time (sec): 1,000000E-2 Scans to average: 10 Electric dark correction enabled: true Nonlinearity correction enabled: false Boxcar width: 10 XAxis mode: Wavelengths Number of Pixels in Spectrum: 3648 >>>>>Begin Spectral Data<<<<<";
186,01;89,27
186,281;64,86
186,552;36,71
186,822;41,26
187,093;-266,67
187,364;313,86
187,635;231,13
187,905;167,35
188,176;122,21
188,447;87,19
188,717;80,53
188,988;67,56
189,258;68,2
189,529;65,08
189,8;58,81
190,07;57,06
190,341;56,41
190,611;53,7
190,882;52,93
191,152;53,43
191,423;51,51
191,693;50,58
191,964;50,66
192,234;53,65
192,505;50,99
192,775;48,26
193,045;46,14
193,316;41,14
193,586;39,94
193,856;39,07
194,127;38,9
194,397;36,98
194,667;36,41
194,938;35,04
195,208;33,98
195,478;35,09
195,748;33,37
196,019;33,98
196,289;31,83
196,559;29,7
196,829;28,67
197,099;28,52
197,37;28,35
197,64;29,07
197,91;27,54
198,18;27,15
198,45;27,33
198,72;27,07
198,99;27,34
199,26;26,25
199,53;26,33
199,8;26,63
200,07;26,65
200,34;26,44
200,61;26,51
200,88;26,31
201,15;25,86
201,42;26,05
201,69;24,67
201,96;24,94
202,23;25,36
202,499;25,07
202,769;25,02
203,039;23,51
203,309;21,92
203,579;21,72
203,849;22,58
204,118;22,23
204,388;22,11
204,658;21,62
204,927;21,59
205,197;20,59
205,467;20,46
205,736;20,19
206,006;20,17
206,276;19,7
206,545;19,25
206,815;19
207,085;18,96
207,354;19,14
207,624;19
207,893;18,81
208,163;18,8
208,432;18,4
208,702;18,34
208,971;17,97
209,241;17,79
209,51;17,55
209,78;17,32
210,049;16,88
210,318;17,1
210,588;16,92
210,857;17,05
211,127;16,87
211,396;16,54
211,665;16,61
211,935;16,64
212,204;16,52
212,473;16,61
212,742;16,38
213,012;16,25
213,281;16
213,55;16
213,819;15,74
214,088;15,52
214,358;15,62
214,627;15,77
214,896;15,66
215,165;15,27
215,434;15,09
215,703;15,14
215,972;14,84
216,241;14,75
216,51;14,76
216,779;14,6
217,048;14,73
217,317;14,33
217,586;14,29
217,855;14,34
218,124;14,16
218,393;14,18
218,662;13,96
218,931;13,91
219,2;13,65
219,469;13,69
219,738;13,7
220,006;13,63
220,275;13,6
220,544;13,6
220,813;13,6
221,082;13,62
221,35;13,63
221,619;13,58
221,888;13,46
222,157;13,43
222,425;13,47
222,694;13,26
222,963;13,28
223,231;13,22
223,5;13,14
223,769;13,06
224,037;12,99
224,306;13,04
224,574;13,03
224,843;12,92
225,111;12,8
225,38;12,72
225,648;12,66
225,917;12,6
226,185;12,42
226,454;12,36
226,722;12,33
226,991;12,18
227,259;12,13
227,528;12,08
227,796;11,95
228,064;11,79
228,333;11,74
228,601;11,65
228,869;11,56
229,138;11,45
229,406;11,43
229,674;11,35
229,942;11,32
230,211;11,33
230,479;11,31
230,747;11,34
231,015;11,25
231,283;11,23
231,552;11,14
231,82;11,21
232,088;11,13
232,356;11,1
232,624;11,07
232,892;11,04
233,16;11
233,428;11,03
233,696;11,05
233,964;11,04
234,232;11,04
234,5;10,99
234,768;10,98
235,036;10,93
235,304;10,92
235,572;10,92
235,84;10,79
236,108;10,76
236,376;10,69
236,644;10,65
236,912;10,59
237,179;10,58
237,447;10,51
237,715;10,48
237,983;10,45
238,251;10,44
238,518;10,43
238,786;10,46
239,054;10,4
239,322;10,37
239,589;10,34
239,857;10,29
240,125;10,31
240,392;10,29
240,66;10,3
240,927;10,21
241,195;10,15
241,463;10,19
241,73;10,2
241,998;10,2
242,265;10,15
242,533;10,15
242,8;10,16
243,068;10,13
243,335;10,11
243,603;10,08
243,87;10,05
244,138;10,07
244,405;10,06
244,672;10,04
244,94;9,98
245,207;9,97
245,474;9,97
245,742;9,91
246,009;9,89
246,276;9,87
246,544;9,89
246,811;9,87
247,078;9,85
247,345;9,84
247,613;9,82
247,88;9,83
248,147;9,8
248,414;9,76
248,681;9,77
248,948;9,8
249,215;9,79
249,483;9,78
249,75;9,72
250,017;9,64
250,284;9,63
250,551;9,65
250,818;9,67
251,085;9,65
251,352;9,65
251,619;9,65
251,886;9,59
252,153;9,59
252,42;9,57
252,687;9,56
252,953;9,51
253,22;9,49
253,487;9,49
253,754;9,5
254,021;9,48
254,288;9,44
254,555;9,42
254,821;9,41
255,088;9,4
255,355;9,41
255,622;9,43
255,888;9,42
256,155;9,37
256,422;9,35
256,688;9,34
256,955;9,34
257,222;9,34
257,488;9,33
257,755;9,31
258,022;9,3
258,288;9,25
258,555;9,24
258,821;9,24
259,088;9,25
259,354;9,19
259,621;9,18
259,887;9,21
260,154;9,18
260,42;9,16
260,687;9,15
260,953;9,12
261,219;9,1
261,486;9,07
261,752;9,11
262,019;9,08
262,285;9,05
262,551;9,02
262,818;9,03
263,084;9,04
263,35;9,03
263,616;9,01
263,883;9,03
264,149;9,05
264,415;9,05
264,681;9,03
264,947;9,1
265,214;9,09
265,48;9,07
265,746;9,07
266,012;9,11
266,278;9,08
266,544;9,1
266,81;9,13
267,076;9,14
267,342;9,12
267,608;9,17
267,874;9,18
268,14;9,18
268,406;9,17
268,672;9,17
268,938;9,18
269,204;9,18
269,47;9,17
269,736;9,15
270,002;9,12
270,268;9,15
270,533;9,13
270,799;9,16
271,065;9,14
271,331;9,14
271,597;9,12
271,862;9,13
272,128;9,13
272,394;9,13
272,66;9,15
272,925;9,16
273,191;9,12
273,457;9,14
273,722;9,13
273,988;9,12
274,254;9,11
274,519;9,11
274,785;9,13
275,05;9,11
275,316;9,11
275,582;9,14
275,847;9,11
276,113;9,11
276,378;9,1
276,644;9,13
276,909;9,12
277,174;9,11
277,44;9,13
277,705;9,11
277,971;9,09
278,236;9,1
278,501;9,07
278,767;9,09
279,032;9,09
279,297;9,1
279,563;9,06
279,828;9,07
280,093;9,04
280,358;9,02
280,624;9,02
280,889;9,02
281,154;9,02
281,419;9
281,684;9
281,95;8,99
282,215;8,98
282,48;9,01
282,745;8,99
283,01;8,97
283,275;8,97
283,54;8,94
283,805;8,91
284,07;8,93
284,335;8,89
284,6;8,86
284,865;8,86
285,13;8,85
285,395;8,86
285,66;8,9
285,925;8,92
286,19;8,97
286,455;8,96
286,72;8,98
286,985;8,97
287,249;8,95
287,514;8,95
287,779;8,93
288,044;8,92
288,309;8,91
288,573;8,94
288,838;8,96
289,103;8,97
289,367;8,96
289,632;8,95
289,897;8,98
290,161;9
290,426;8,99
290,691;9,05
290,955;9,03
291,22;9,01
291,484;8,99
291,749;8,94
292,014;8,94
292,278;8,91
292,543;8,93
292,807;8,96
293,072;8,96
293,336;8,95
293,6;8,94
293,865;8,94
294,129;8,9
294,394;8,86
294,658;8,88
294,922;8,87
295,187;8,87
295,451;8,82
295,715;8,81
295,98;8,8
296,244;8,76
296,508;8,74
296,773;8,75
297,037;8,78
297,301;8,77
297,565;8,8
297,829;8,77
298,094;8,76
298,358;8,71
298,622;8,7
298,886;8,69
299,15;8,69
299,414;8,68
299,678;8,69
299,942;8,69
300,206;8,69
300,47;8,68
300,734;8,66
300,998;8,68
301,262;8,67
301,526;8,66
301,79;8,66
302,054;8,68
302,318;8,64
302,582;8,64
302,846;8,63
303,11;8,61
303,374;8,61
303,637;8,6
303,901;8,61
304,165;8,59
304,429;8,61
304,693;8,6
304,956;8,61
305,22;8,61
305,484;8,62
305,747;8,62
306,011;8,61
306,275;8,6
306,538;8,6
306,802;8,61
307,066;8,62
307,329;8,64
307,593;8,62
307,856;8,62
308,12;8,59
308,384;8,63
308,647;8,62
308,911;8,62
309,174;8,62
309,438;8,62
309,701;8,61
309,964;8,61
310,228;8,6
310,491;8,6
310,755;8,61
311,018;8,59
311,281;8,59
311,545;8,6
311,808;8,61
312,071;8,59
312,335;8,58
312,598;8,59
312,861;8,57
313,124;8,57
313,388;8,62
313,651;8,62
313,914;8,58
314,177;8,54
314,44;8,52
314,704;8,52
314,967;8,52
315,23;8,54
315,493;8,54
315,756;8,52
316,019;8,5
316,282;8,49
316,545;8,48
316,808;8,46
317,071;8,46
317,334;8,44
317,597;8,45
317,86;8,44
318,123;8,42
318,386;8,4
318,649;8,37
318,912;8,35
319,175;8,36
319,437;8,35
319,7;8,36
319,963;8,37
320,226;8,36
320,489;8,33
320,751;8,29
321,014;8,27
321,277;8,26
321,54;8,26
321,802;8,25
322,065;8,25
322,328;8,25
322,59;8,23
322,853;8,23
323,116;8,22
323,378;8,22
323,641;8,23
323,903;8,25
324,166;8,26
324,428;8,23
324,691;8,19
324,953;8,18
325,216;8,2
325,478;8,18
325,741;8,18
326,003;8,19
326,266;8,18
326,528;8,16
326,791;8,14
327,053;8,14
327,315;8,1
327,578;8,12
327,84;8,08
328,102;8,08
328,365;8,07
328,627;8,03
328,889;8,03
329,151;8,03
329,414;8
329,676;7,98
329,938;7,97
330,2;7,97
330,462;7,99
330,725;7,96
330,987;7,96
331,249;7,94
331,511;7,96
331,773;8
332,035;8,02
332,297;8,08
332,559;8,08
332,821;8,07
333,083;8,05
333,345;8,06
333,607;8,09
333,869;8,15
334,131;8,16
334,393;8,16
334,655;8,1
334,917;8,11
335,179;8,1
335,44;8,12
335,702;8,12
335,964;8,12
336,226;8,12
336,488;8,12
336,749;8,11
337,011;8,09
337,273;8,09
337,535;8,08
337,796;8,03
338,058;8,07
338,32;8,09
338,581;8,07
338,843;8,06
339,105;8,08
339,366;8,03
339,628;8,03
339,889;8,02
340,151;8,03
340,412;8,03
340,674;8,05
340,935;8,02
341,197;8,06
341,458;8,01
341,72;8
341,981;7,98
342,243;7,99
342,504;8
342,766;7,95
343,027;7,94
343,288;7,97
343,55;7,94
343,811;7,93
344,072;7,89
344,334;7,92
344,595;7,87
344,856;7,87
345,117;7,86
345,379;7,85
345,64;7,87
345,901;7,86
346,162;7,87
346,423;7,85
346,684;7,79
346,946;7,83
347,207;7,83
347,468;7,86
347,729;7,86
347,99;7,83
348,251;7,86
348,512;7,86
348,773;7,85
349,034;7,83
349,295;7,83
349,556;7,9
349,817;7,91
350,078;7,95
350,339;7,98
350,6;7,99
350,86;8
351,121;7,98
351,382;8
351,643;7,98
351,904;7,97
352,165;7,96
352,425;7,97
352,686;7,98
352,947;7,92
353,208;7,91
353,468;7,96
353,729;7,95
353,99;7,96
354,25;7,99
354,511;7,99
354,772;8
355,032;8,01
355,293;7,97
355,553;7,92
355,814;7,92
356,074;7,92
356,335;7,92
356,596;7,94
356,856;7,94
357,116;7,95
357,377;8,01
357,637;8,02
357,898;7,98
358,158;8
358,419;8,03
358,679;8,06
358,939;7,99
359,2;8
359,46;7,99
359,72;7,94
359,981;7,94
360,241;7,92
360,501;7,88
360,761;7,88
361,022;7,89
361,282;7,84
361,542;7,86
361,802;7,83
362,062;7,82
362,323;7,77
362,583;7,77
362,843;7,73
363,103;7,76
363,363;7,76
363,623;7,75
363,883;7,76
364,143;7,78
364,403;7,81
364,663;7,79
364,923;7,82
365,183;7,83
365,443;7,84
365,703;7,86
365,963;7,89
366,223;7,89
366,483;7,9
366,743;7,91
367,002;7,91
367,262;7,88
367,522;7,88
367,782;7,9
368,042;7,89
368,301;7,91
368,561;7,91
368,821;7,89
369,081;7,89
369,34;7,84
369,6;7,77
369,86;7,77
370,119;7,79
370,379;7,77
370,638;7,78
370,898;7,76
371,158;7,76
371,417;7,74
371,677;7,71
371,936;7,73
372,196;7,75
372,455;7,75
372,715;7,75
372,974;7,79
373,234;7,76
373,493;7,81
373,753;7,83
374,012;7,78
374,271;7,8
374,531;7,78
374,79;7,81
375,049;7,87
375,309;7,87
375,568;7,84
375,827;7,82
376,086;7,78
376,346;7,8
376,605;7,8
376,864;7,8
377,123;7,83
377,383;7,82
377,642;7,83
377,901;7,86
378,16;7,83
378,419;7,79
378,678;7,81
378,937;7,81
379,196;7,77
379,455;7,79
379,714;7,83
379,973;7,92
380,232;7,92
380,491;7,92
380,75;7,93
381,009;7,94
381,268;7,96
381,527;8
381,786;7,99
382,045;7,99
382,304;8
382,563;8
382,821;8,02
383,08;8,01
383,339;8,03
383,598;8,15
383,857;8,19
384,115;8,18
384,374;8,19
384,633;8,25
384,891;8,26
385,15;8,19
385,409;8,15
385,667;8,17
385,926;8,17
386,185;8,2
386,443;8,23
386,702;8,23
386,96;8,22
387,219;8,22
387,477;8,2
387,736;8,21
387,994;8,25
388,253;8,24
388,511;8,24
388,77;8,24
389,028;8,2
389,287;8,17
389,545;8,22
389,803;8,2
390,062;8,18
390,32;8,17
390,578;8,23
390,837;8,23
391,095;8,27
391,353;8,26
391,612;8,27
391,87;8,27
392,128;8,28
392,386;8,34
392,644;8,33
392,903;8,37
393,161;8,4
393,419;8,37
393,677;8,36
393,935;8,38
394,193;8,36
394,451;8,37
394,709;8,37
394,967;8,39
395,225;8,4
395,483;8,45
395,741;8,5
395,999;8,49
396,257;8,52
396,515;8,49
396,773;8,49
397,031;8,51
397,289;8,51
397,547;8,53
397,805;8,54
398,062;8,57
398,32;8,58
398,578;8,61
398,836;8,57
399,094;8,55
399,351;8,47
399,609;8,5
399,867;8,49
400,124;8,51
400,382;8,52
400,64;8,57
400,897;8,54
401,155;8,53
401,413;8,52
401,67;8,5
401,928;8,51
402,185;8,46
402,443;8,43
402,701;8,45
402,958;8,42
403,216;8,39
403,473;8,39
403,73;8,38
403,988;8,32
404,245;8,37
404,503;8,41
404,76;8,47
405,018;8,47
405,275;8,51
405,532;8,55
405,79;8,54
406,047;8,49
406,304;8,52
406,561;8,54
406,819;8,59
407,076;8,57
407,333;8,6
407,59;8,67
407,848;8,73
408,105;8,73
408,362;8,8
408,619;8,84
408,876;8,86
409,133;8,83
409,39;8,88
409,647;8,96
409,904;8,89
410,161;8,94
410,418;8,93
410,675;8,93
410,932;8,89
411,189;8,88
411,446;8,87
411,703;8,84
411,96;8,85
412,217;8,82
412,474;8,83
412,731;8,86
412,988;8,84
413,245;8,82
413,501;8,8
413,758;8,74
414,015;8,72
414,272;8,77
414,529;8,83
414,785;8,85
415,042;8,85
415,299;8,96
415,555;8,93
415,812;8,93
416,069;8,95
416,325;8,95
416,582;8,99
416,838;9,02
417,095;9,02
417,352;9,01
417,608;9,04
417,865;9,09
418,121;9,11
418,378;9,15
418,634;9,16
418,891;9,26
419,147;9,29
419,403;9,33
419,66;9,3
419,916;9,31
420,173;9,27
420,429;9,28
420,685;9,29
420,942;9,36
421,198;9,41
421,454;9,47
421,711;9,5
421,967;9,52
422,223;9,5
422,479;9,53
422,735;9,58
422,992;9,57
423,248;9,53
423,504;9,55
423,76;9,58
424,016;9,58
424,272;9,54
424,528;9,55
424,784;9,55
425,041;9,56
425,297;9,56
425,553;9,66
425,809;9,66
426,065;9,59
426,32;9,6
426,576;9,62
426,832;9,56
427,088;9,61
427,344;9,6
427,6;9,68
427,856;9,7
428,112;9,67
428,368;9,72
428,623;9,8
428,879;9,8
429,135;9,84
429,391;9,88
429,646;9,95
429,902;9,99
430,158;10,04
430,414;10,07
430,669;10,15
430,925;10,17
431,181;10,2
431,436;10,33
431,692;10,34
431,947;10,37
432,203;10,38
432,458;10,38
432,714;10,42
432,97;10,47
433,225;10,49
433,481;10,58
433,736;10,61
433,991;10,63
434,247;10,65
434,502;10,66
434,758;10,72
435,013;10,69
435,268;10,68
435,524;10,7
435,779;10,69
436,034;10,72
436,29;10,73
436,545;10,71
436,8;10,66
437,056;10,69
437,311;10,71
437,566;10,75
437,821;10,75
438,076;10,78
438,331;10,81
438,587;10,89
438,842;10,92
439,097;10,98
439,352;10,99
439,607;11,02
439,862;11,05
440,117;11,05
440,372;11,09
440,627;11,17
440,882;11,22
441,137;11,27
441,392;11,31
441,647;11,31
441,902;11,41
442,157;11,48
442,412;11,49
442,667;11,53
442,921;11,59
443,176;11,66
443,431;11,71
443,686;11,71
443,941;11,72
444,195;11,75
444,45;11,73
444,705;11,74
444,96;11,83
445,214;11,84
445,469;11,83
445,724;11,85
445,978;11,88
446,233;11,92
446,487;11,97
446,742;11,94
446,997;11,93
447,251;11,94
447,506;11,95
447,76;11,98
448,015;11,99
448,269;12
448,524;12,04
448,778;12,04
449,033;12,06
449,287;12,01
449,541;12,01
449,796;12,08
450,05;12,16
450,305;12,13
450,559;12,12
450,813;12,17
451,067;12,17
451,322;12,16
451,576;12,1
451,83;12,09
452,084;12,15
452,339;12,26
452,593;12,28
452,847;12,31
453,101;12,33
453,355;12,35
453,609;12,38
453,864;12,39
454,118;12,33
454,372;12,34
454,626;12,39
454,88;12,44
455,134;12,42
455,388;12,4
455,642;12,4
455,896;12,44
456,15;12,44
456,404;12,49
456,658;12,44
456,912;12,43
457,165;12,44
457,419;12,44
457,673;12,36
457,927;12,26
458,181;12,25
458,435;12,21
458,688;12,23
458,942;12,23
459,196;12,23
459,45;12,28
459,703;12,26
459,957;12,27
460,211;12,24
460,464;12,27
460,718;12,21
460,972;12,26
461,225;12,28
461,479;12,27
461,732;12,25
461,986;12,29
462,239;12,3
462,493;12,33
462,746;12,35
463;12,34
463,253;12,43
463,507;12,4
463,76;12,44
464,014;12,43
464,267;12,42
464,52;12,44
464,774;12,45
465,027;12,5
465,28;12,52
465,534;12,5
465,787;12,51
466,04;12,55
466,294;12,52
466,547;12,51
466,8;12,54
467,053;12,55
467,306;12,57
467,56;12,61
467,813;12,62
468,066;12,6
468,319;12,65
468,572;12,6
468,825;12,66
469,078;12,71
469,331;12,74
469,584;12,78
469,837;12,76
470,09;12,81
470,343;12,81
470,596;12,8
470,849;12,86
471,102;12,83
471,355;12,86
471,608;12,9
471,861;12,99
472,114;12,99
472,367;13,02
472,619;13,08
472,872;13,1
473,125;13,09
473,378;13,14
473,631;13,16
473,883;13,21
474,136;13,22
474,389;13,25
474,641;13,27
474,894;13,26
475,147;13,31
475,399;13,32
475,652;13,36
475,905;13,38
476,157;13,4
476,41;13,45
476,662;13,47
476,915;13,49
477,167;13,44
477,42;13,48
477,672;13,5
477,925;13,51
478,177;13,53
478,43;13,58
478,682;13,58
478,934;13,6
479,187;13,63
479,439;13,65
479,691;13,67
479,944;13,72
480,196;13,79
480,448;13,82
480,701;13,84
480,953;13,9
481,205;13,93
481,457;13,97
481,709;14,02
481,962;14,09
482,214;14,14
482,466;14,24
482,718;14,34
482,97;14,45
483,222;14,55
483,474;14,64
483,726;14,73
483,978;14,79
484,23;14,88
484,482;14,89
484,734;14,95
484,986;14,94
485,238;14,97
485,49;14,99
485,742;15,01
485,994;15,05
486,246;15,05
486,498;15,07
486,75;15,09
487,001;15,11
487,253;15,1
487,505;15,11
487,757;15,12
488,009;15,1
488,26;15,06
488,512;15,08
488,764;15,06
489,015;15,04
489,267;15,06
489,519;15,06
489,77;15,09
490,022;15,11
490,274;15,17
490,525;15,19
490,777;15,22
491,028;15,23
491,28;15,26
491,531;15,3
491,783;15,32
492,034;15,37
492,286;15,4
492,537;15,49
492,789;15,54
493,04;15,57
493,291;15,62
493,543;15,7
493,794;15,68
494,045;15,74
494,297;15,77
494,548;15,8
494,799;15,82
495,051;15,85
495,302;15,89
495,553;15,91
495,804;15,96
496,056;16,01
496,307;16,07
496,558;16,12
496,809;16,15
497,06;16,22
497,311;16,25
497,562;16,3
497,813;16,31
498,064;16,38
498,316;16,45
498,567;16,49
498,818;16,5
499,069;16,59
499,319;16,66
499,57;16,71
499,821;16,75
500,072;16,81
500,323;16,87
500,574;16,9
500,825;16,96
501,076;17,02
501,327;17,07
501,577;17,12
501,828;17,14
502,079;17,21
502,33;17,25
502,58;17,31
502,831;17,34
503,082;17,39
503,333;17,43
503,583;17,47
503,834;17,53
504,084;17,63
504,335;17,66
504,586;17,69
504,836;17,76
505,087;17,82
505,337;17,89
505,588;17,95
505,838;18,01
506,089;18,09
506,339;18,11
506,59;18,18
506,84;18,23
507,091;18,31
507,341;18,34
507,591;18,4
507,842;18,47
508,092;18,56
508,343;18,62
508,593;18,67
508,843;18,71
509,093;18,74
509,344;18,76
509,594;18,81
509,844;18,89
510,094;18,94
510,345;18,99
510,595;19,07
510,845;19,12
511,095;19,19
511,345;19,23
511,595;19,28
511,845;19,33
512,095;19,42
512,345;19,48
512,595;19,55
512,845;19,6
513,095;19,67
513,345;19,75
513,595;19,79
513,845;19,85
514,095;19,91
514,345;19,99
514,595;20,07
514,845;20,15
515,095;20,17
515,345;20,22
515,594;20,29
515,844;20,32
516,094;20,42
516,344;20,49
516,593;20,54
516,843;20,61
517,093;20,69
517,343;20,74
517,592;20,8
517,842;20,9
518,092;21
518,341;21,04
518,591;21,09
518,84;21,16
519,09;21,26
519,34;21,37
519,589;21,43
519,839;21,5
520,088;21,56
520,338;21,63
520,587;21,71
520,836;21,76
521,086;21,85
521,335;21,9
521,585;21,96
521,834;22,05
522,083;22,14
522,333;22,21
522,582;22,32
522,831;22,4
523,081;22,45
523,33;22,51
523,579;22,62
523,828;22,72
524,078;22,77
524,327;22,84
524,576;22,9
524,825;22,97
525,074;23,04
525,323;23,13
525,573;23,26
525,822;23,36
526,071;23,45
526,32;23,55
526,569;23,64
526,818;23,76
527,067;23,86
527,316;23,94
527,565;24,04
527,814;24,11
528,063;24,19
528,312;24,28
528,56;24,38
528,809;24,46
529,058;24,56
529,307;24,71
529,556;24,8
529,805;24,89
530,053;25,02
530,302;25,13
530,551;25,23
530,8;25,29
531,048;25,38
531,297;25,49
531,546;25,58
531,794;25,67
532,043;25,75
532,292;25,85
532,54;25,94
532,789;25,98
533,037;26,07
533,286;26,16
533,535;26,26
533,783;26,33
534,032;26,43
534,28;26,49
534,528;26,58
534,777;26,66
535,025;26,78
535,274;26,86
535,522;26,98
535,771;27,05
536,019;27,17
536,267;27,27
536,516;27,37
536,764;27,47
537,012;27,57
537,26;27,66
537,509;27,74
537,757;27,87
538,005;28,02
538,253;28,09
538,501;28,2
538,75;28,28
538,998;28,39
539,246;28,49
539,494;28,59
539,742;28,68
539,99;28,8
540,238;28,89
540,486;28,99
540,734;29,03
540,982;29,15
541,23;29,23
541,478;29,33
541,726;29,41
541,974;29,49
542,222;29,6
542,47;29,72
542,718;29,81
542,966;29,87
543,213;29,93
543,461;30,06
543,709;30,17
543,957;30,3
544,205;30,4
544,452;30,51
544,7;30,58
544,948;30,7
545,196;30,77
545,443;30,88
545,691;31
545,939;31,16
546,186;31,24
546,434;31,35
546,681;31,43
546,929;31,55
547,176;31,64
547,424;31,75
547,671;31,82
547,919;31,95
548,166;32,07
548,414;32,21
548,661;32,32
548,909;32,4
549,156;32,5
549,404;32,61
549,651;32,7
549,898;32,83
550,146;32,93
550,393;33,06
550,64;33,16
550,888;33,23
551,135;33,29
551,382;33,4
551,629;33,5
551,876;33,63
552,124;33,71
552,371;33,83
552,618;33,9
552,865;34,04
553,112;34,11
553,359;34,21
553,606;34,29
553,854;34,39
554,101;34,49
554,348;34,58
554,595;34,69
554,842;34,77
555,089;34,85
555,336;34,95
555,582;35,04
555,829;35,13
556,076;35,25
556,323;35,35
556,57;35,45
556,817;35,53
557,064;35,62
557,311;35,74
557,557;35,82
557,804;35,93
558,051;35,98
558,298;36,11
558,544;36,22
558,791;36,32
559,038;36,38
559,284;36,48
559,531;36,57
559,778;36,62
560,024;36,74
560,271;36,83
560,517;36,93
560,764;37,02
561,011;37,1
561,257;37,18
561,504;37,28
561,75;37,37
561,997;37,44
562,243;37,53
562,489;37,58
562,736;37,69
562,982;37,78
563,229;37,88
563,475;37,96
563,721;38,06
563,968;38,17
564,214;38,3
564,46;38,39
564,707;38,47
564,953;38,59
565,199;38,68
565,445;38,77
565,691;38,85
565,938;38,93
566,184;39,05
566,43;39,14
566,676;39,21
566,922;39,28
567,168;39,36
567,414;39,45
567,66;39,51
567,906;39,59
568,152;39,68
568,398;39,76
568,644;39,84
568,89;39,89
569,136;39,93
569,382;39,98
569,628;40,01
569,874;40,08
570,12;40,13
570,366;40,2
570,612;40,28
570,857;40,34
571,103;40,41
571,349;40,46
571,595;40,51
571,84;40,6
572,086;40,68
572,332;40,75
572,578;40,79
572,823;40,86
573,069;40,91
573,315;40,95
573,56;41
573,806;41,05
574,051;41,1
574,297;41,2
574,542;41,27
574,788;41,35
575,034;41,4
575,279;41,45
575,524;41,51
575,77;41,54
576,015;41,6
576,261;41,65
576,506;41,73
576,752;41,8
576,997;41,85
577,242;41,9
577,488;41,96
577,733;42,02
577,978;42,1
578,223;42,15
578,469;42,24
578,714;42,29
578,959;42,35
579,204;42,4
579,45;42,42
579,695;42,46
579,94;42,5
580,185;42,55
580,43;42,6
580,675;42,65
580,92;42,72
581,165;42,76
581,41;42,83
581,655;42,86
581,9;42,91
582,145;42,95
582,39;43,01
582,635;43,06
582,88;43,11
583,125;43,15
583,37;43,21
583,615;43,22
583,86;43,3
584,105;43,37
584,349;43,44
584,594;43,47
584,839;43,56
585,084;43,62
585,328;43,69
585,573;43,76
585,818;43,81
586,063;43,83
586,307;43,87
586,552;43,89
586,797;43,96
587,041;43,98
587,286;44,01
587,53;44,05
587,775;44,12
588,019;44,15
588,264;44,21
588,508;44,26
588,753;44,36
588,997;44,39
589,242;44,43
589,486;44,48
589,731;44,57
589,975;44,59
590,22;44,64
590,464;44,69
590,708;44,75
590,953;44,79
591,197;44,84
591,441;44,88
591,685;44,94
591,93;44,97
592,174;45,03
592,418;45,09
592,662;45,11
592,907;45,09
593,151;45,13
593,395;45,16
593,639;45,17
593,883;45,18
594,127;45,2
594,371;45,2
594,615;45,2
594,859;45,22
595,103;45,26
595,347;45,29
595,591;45,32
595,835;45,32
596,079;45,36
596,323;45,4
596,567;45,41
596,811;45,42
597,055;45,43
597,299;45,44
597,542;45,46
597,786;45,49
598,03;45,51
598,274;45,53
598,518;45,54
598,761;45,56
599,005;45,56
599,249;45,6
599,492;45,65
599,736;45,67
599,98;45,7
600,223;45,72
600,467;45,76
600,711;45,76
600,954;45,78
601,198;45,8
601,441;45,82
601,685;45,84
601,928;45,88
602,172;45,92
602,415;45,97
602,659;46,01
602,902;46,03
603,145;46,07
603,389;46,09
603,632;46,13
603,876;46,15
604,119;46,17
604,362;46,18
604,606;46,2
604,849;46,24
605,092;46,25
605,335;46,29
605,579;46,3
605,822;46,31
606,065;46,32
606,308;46,37
606,551;46,39
606,794;46,43
607,037;46,44
607,281;46,45
607,524;46,47
607,767;46,5
608,01;46,49
608,253;46,52
608,496;46,54
608,739;46,55
608,982;46,58
609,225;46,62
609,468;46,63
609,711;46,62
609,953;46,62
610,196;46,66
610,439;46,64
610,682;46,66
610,925;46,69
611,168;46,72
611,41;46,7
611,653;46,72
611,896;46,71
612,139;46,73
612,381;46,73
612,624;46,72
612,867;46,71
613,109;46,75
613,352;46,75
613,595;46,78
613,837;46,81
614,08;46,8
614,322;46,8
614,565;46,81
614,807;46,84
615,05;46,84
615,292;46,84
615,535;46,87
615,777;46,9
616,02;46,9
616,262;46,93
616,505;46,97
616,747;46,98
616,989;47,04
617,232;47,07
617,474;47,08
617,716;47,11
617,959;47,17
618,201;47,2
618,443;47,23
618,685;47,22
618,927;47,23
619,17;47,27
619,412;47,28
619,654;47,28
619,896;47,3
620,138;47,35
620,38;47,35
620,622;47,36
620,864;47,35
621,107;47,36
621,349;47,38
621,591;47,37
621,833;47,4
622,075;47,39
622,316;47,41
622,558;47,45
622,8;47,48
623,042;47,47
623,284;47,49
623,526;47,51
623,768;47,54
624,01;47,54
624,251;47,56
624,493;47,55
624,735;47,58
624,977;47,6
625,218;47,6
625,46;47,6
625,702;47,63
625,943;47,66
626,185;47,68
626,427;47,69
626,668;47,73
626,91;47,77
627,152;47,76
627,393;47,78
627,635;47,76
627,876;47,76
628,118;47,79
628,359;47,79
628,601;47,77
628,842;47,76
629,084;47,79
629,325;47,76
629,566;47,81
629,808;47,82
630,049;47,83
630,29;47,84
630,532;47,86
630,773;47,9
631,014;47,92
631,256;47,93
631,497;47,95
631,738;47,93
631,979;47,9
632,22;47,91
632,462;47,92
632,703;47,91
632,944;47,93
633,185;47,9
633,426;47,92
633,667;47,95
633,908;47,99
634,149;48
634,39;48,08
634,631;48,08
634,872;48,11
635,113;48,12
635,354;48,13
635,595;48,14
635,836;48,1
636,077;48,08
636,318;48,09
636,559;48,1
636,8;48,14
637,04;48,16
637,281;48,16
637,522;48,14
637,763;48,17
638,003;48,16
638,244;48,18
638,485;48,16
638,726;48,15
638,966;48,16
639,207;48,17
639,448;48,16
639,688;48,14
639,929;48,14
640,169;48,14
640,41;48,13
640,65;48,13
640,891;48,17
641,131;48,18
641,372;48,18
641,612;48,17
641,853;48,16
642,093;48,15
642,334;48,18
642,574;48,2
642,814;48,21
643,055;48,22
643,295;48,23
643,535;48,29
643,776;48,31
644,016;48,32
644,256;48,33
644,496;48,33
644,737;48,36
644,977;48,36
645,217;48,41
645,457;48,44
645,697;48,46
645,938;48,46
646,178;48,5
646,418;48,53
646,658;48,56
646,898;48,55
647,138;48,58
647,378;48,56
647,618;48,56
647,858;48,57
648,098;48,57
648,338;48,57
648,578;48,58
648,818;48,57
649,057;48,56
649,297;48,57
649,537;48,6
649,777;48,6
650,017;48,61
650,257;48,59
650,496;48,6
650,736;48,63
650,976;48,63
661,028;48,91
661,267;49,01
661,506;49,05
661,744;49,1
661,983;49,14
662,222;49,17
662,461;49,22
662,7;49,22
662,939;49,22
663,177;49,22
663,416;49,24
663,655;49,23
663,894;49,26
664,132;49,29
664,371;49,33
664,61;49,32
664,848;49,36
665,087;49,42
665,326;49,44
665,564;49,51
665,803;49,5
666,041;49,56
666,28;49,58
666,518;49,61
666,757;49,61
666,995;49,62
667,234;49,65
667,472;49,64
667,711;49,66
667,949;49,73
668,187;49,74
668,426;49,77
668,664;49,8
668,902;49,79
669,141;49,76
669,379;49,76
669,617;49,75
669,856;49,75
670,094;49,72
670,332;49,71
670,57;49,67
670,808;49,69
671,046;49,65
671,285;49,69
671,523;49,71
671,761;49,74
671,999;49,75
672,237;49,76
672,475;49,82
672,713;49,83
672,951;49,81
673,189;49,82
673,427;49,83
673,665;49,86
673,903;49,88
674,141;49,94
674,379;49,96
674,617;49,98
674,854;50,01
675,092;50,02
675,33;50,07
675,568;50,11
675,806;50,14
676,043;50,17
676,281;50,18
676,519;50,23
676,756;50,26
676,994;50,3
677,232;50,31
677,469;50,29
677,707;50,34
677,945;50,34
678,182;50,36
678,42;50,4
678,657;50,45
678,895;50,46
679,132;50,5
679,37;50,49
679,607;50,52
679,845;50,54
680,082;50,57
680,32;50,57
680,557;50,59
680,794;50,61
681,032;50,6
681,269;50,62
681,507;50,63
681,744;50,64
681,981;50,69
682,218;50,7
682,456;50,69
682,693;50,74
682,93;50,77
683,167;50,79
683,404;50,81
683,642;50,78
683,879;50,78
684,116;50,79
684,353;50,83
684,59;50,84
684,827;50,87
685,064;50,88
685,301;50,89
685,538;50,89
685,775;50,87
686,012;50,93
686,249;50,93
686,486;50,95
686,723;50,97
686,96;50,95
687,197;50,96
687,433;50,96
687,67;50,97
687,907;50,97
688,144;50,99
688,381;51,03
688,617;51,04
688,854;51,09
689,091;51,12
689,327;51,15
689,564;51,16
689,801;51,14
690,037;51,15
690,274;51,18
690,511;51,22
690,747;51,25
690,984;51,22
691,22;51,24
691,457;51,23
691,693;51,2
691,93;51,25
692,166;51,25
692,403;51,29
692,639;51,29
692,876;51,33
693,112;51,37
693,348;51,37
693,585;51,39
693,821;51,39
694,057;51,35
694,294;51,37
694,53;51,4
694,766;51,42
695,002;51,42
695,239;51,44
695,475;51,47
695,711;51,46
695,947;51,47
696,183;51,45
696,419;51,47
696,656;51,48
696,892;51,48
697,128;51,5
697,364;51,5
697,6;51,48
697,836;51,48
698,072;51,45
698,308;51,47
698,544;51,49
698,78;51,51
699,016;51,55
699,251;51,58
699,487;51,62
699,723;51,66
699,959;51,69
700,195;51,68
700,431;51,69
700,666;51,71
700,902;51,74
701,138;51,78
701,374;51,8
701,609;51,86
701,845;51,88
702,081;51,94
702,316;51,96
702,552;52,01
702,788;52,06
703,023;52,08
703,259;52,07
703,494;52,12
703,73;52,14
703,965;52,18
704,201;52,19
704,436;52,18
704,672;52,17
704,907;52,21
705,143;52,23
705,378;52,22
705,613;52,26
705,849;52,31
706,084;52,32
706,319;52,3
706,555;52,29
706,79;52,32
707,025;52,31
707,26;52,35
707,496;52,35
707,731;52,35
707,966;52,4
708,201;52,42
708,436;52,42
708,671;52,39
708,907;52,45
709,142;52,47
709,377;52,52
709,612;52,57
709,847;52,6
710,082;52,65
710,317;52,69
710,552;52,77
710,787;52,79
711,022;52,79
711,257;52,86
711,492;52,91
711,726;52,92
711,961;52,99
712,196;53,04
712,431;53,04
712,666;53,05
712,901;53,05
713,135;53,07
713,37;53,12
713,605;53,2
713,839;53,17
714,074;53,17
714,309;53,16
714,543;53,18
714,778;53,18
715,013;53,2
715,247;53,23
715,482;53,21
715,716;53,22
715,951;53,27
716,185;53,26
716,42;53,29
716,654;53,31
716,889;53,26
717,123;53,25
717,358;53,3
717,592;53,33
717,827;53,33
718,061;53,37
718,295;53,34
718,53;53,29
718,764;53,32
718,998;53,32
719,232;53,35
719,467;53,37
719,701;53,37
719,935;53,38
720,169;53,38
720,403;53,38
720,638;53,44
720,872;53,46
721,106;53,49
721,34;53,47
721,574;53,52
721,808;53,54
722,042;53,55
722,276;53,56
722,51;53,6
722,744;53,65
722,978;53,63
723,212;53,65
723,446;53,7
723,68;53,71
723,914;53,75
724,147;53,81
724,381;53,79
724,615;53,81
724,849;53,8
725,083;53,87
725,316;53,88
725,55;53,87
725,784;53,89
726,018;53,91
726,251;53,95
726,485;53,95
726,719;53,99
726,952;54,03
727,186;54,05
727,419;54,03
727,653;54,07
727,887;54,12
728,12;54,18
728,354;54,16
728,587;54,18
728,821;54,18
729,054;54,18
729,287;54,21
729,521;54,25
729,754;54,3
729,988;54,26
730,221;54,3
730,454;54,3
730,688;54,29
730,921;54,32
731,154;54,33
731,387;54,33
731,621;54,39
731,854;54,4
732,087;54,42
732,32;54,44
732,553;54,44
732,787;54,45
733,02;54,46
733,253;54,47
733,486;54,49
733,719;54,55
733,952;54,58
734,185;54,58
734,418;54,56
734,651;54,59
734,884;54,65
735,117;54,64
735,35;54,62
735,583;54,63
735,816;54,65
736,049;54,7
736,281;54,75
736,514;54,71
736,747;54,72
736,98;54,74
737,213;54,76
737,445;54,73
737,678;54,77
737,911;54,76
738,144;54,78
738,376;54,78
738,609;54,77
738,842;54,75
739,074;54,8
739,307;54,84
739,539;54,84
739,772;54,83
740,004;54,83
740,237;54,9
740,469;54,94
740,702;54,92
740,934;54,91
741,167;54,87
741,399;54,94
741,632;54,94
741,864;54,97
742,096;54,99
742,329;55,03
742,561;54,99
742,793;54,98
743,026;55,04
743,258;55,1
743,49;55,08
743,723;55,07
743,955;55,06
744,187;55,09
744,419;55,06
744,651;55,05
744,883;55,08
745,115;55,08
745,348;55,1
745,58;55,1
745,812;55,09
746,044;55,13
746,276;55,09
746,508;55,12
746,74;55,09
746,972;55,13
747,204;55,14
747,436;55,18
747,667;55,21
747,899;55,21
748,131;55,17
748,363;55,21
748,595;55,25
748,827;55,26
749,058;55,23
749,29;55,24
749,522;55,23
749,754;55,23
749,985;55,19
750,217;55,18
750,449;55,17
750,68;55,19
750,912;55,21
751,144;55,28
751,375;55,26
751,607;55,26
751,838;55,27
752,07;55,29
752,301;55,26
752,533;55,24
752,764;55,22
752,996;55,23
753,227;55,22
753,459;55,23
753,69;55,25
753,921;55,28
754,153;55,32
754,384;55,38
754,615;55,4
754,847;55,41
755,078;55,45
755,309;55,49
755,54;55,48
755,772;55,45
756,003;55,41
756,234;55,43
756,465;55,47
756,696;55,44
756,927;55,4
757,159;55,45
757,39;55,45
757,621;55,47
757,852;55,48
758,083;55,46
758,314;55,45
758,545;55,44
758,776;55,42
759,007;55,38
759,238;55,36
759,469;55,33
759,699;55,36
759,93;55,34
760,161;55,34
760,392;55,33
760,623;55,33
760,854;55,33
761,084;55,32
761,315;55,27
761,546;55,26
761,776;55,27
762,007;55,28
762,238;55,28
762,468;55,25
762,699;55,26
762,93;55,29
763,16;55,26
763,391;55,25
763,621;55,28
763,852;55,34
764,083;55,33
764,313;55,36
764,543;55,31
764,774;55,34
765,004;55,32
765,235;55,32
765,465;55,33
765,696;55,34
765,926;55,36
766,156;55,39
766,387;55,42
766,617;55,51
766,847;55,53
767,077;55,52
767,308;55,54
767,538;55,56
767,768;55,55
767,998;55,55
768,228;55,54
768,459;55,55
768,689;55,5
768,919;55,51
769,149;55,54
769,379;55,57
769,609;55,55
769,839;55,57
770,069;55,59
770,299;55,58
770,529;55,57
770,759;55,55
770,989;55,55
771,219;55,54
771,449;55,48
771,678;55,49
771,908;55,52
772,138;55,55
772,368;55,53
772,598;55,5
772,827;55,55
773,057;55,56
773,287;55,54
773,517;55,59
773,746;55,6
773,976;55,6
774,206;55,6
774,435;55,61
774,665;55,62
774,894;55,58
775,124;55,56
775,354;55,55
775,583;55,57
775,813;55,55
776,042;55,54
776,272;55,49
776,501;55,46
776,73;55,43
776,96;55,44
777,189;55,41
777,419;55,49
777,648;55,47
777,877;55,48
778,107;55,47
778,336;55,45
778,565;55,4
778,794;55,36
779,024;55,35
779,253;55,35
779,482;55,32
779,711;55,36
779,94;55,4
780,17;55,39
780,399;55,36
780,628;55,4
780,857;55,39
781,086;55,42
781,315;55,43
781,544;55,44
781,773;55,36
782,002;55,39
782,231;55,29
782,46;55,3
782,689;55,28
782,918;55,31
783,147;55,28
783,375;55,29
783,604;55,36
783,833;55,34
784,062;55,32
784,291;55,33
784,519;55,33
784,748;55,29
784,977;55,27
785,206;55,29
785,434;55,23
785,663;55,23
785,892;55,24
786,12;55,23
786,349;55,23
786,577;55,26
786,806;55,26
787,034;55,28
787,263;55,22
787,492;55,2
787,72;55,17
787,948;55,19
788,177;55,14
788,405;55,05
788,634;55,02
788,862;55,04
789,09;55
789,319;54,94
789,547;54,91
789,775;54,93
790,004;54,9
790,232;54,9
790,46;54,83
790,688;54,79
790,917;54,75
791,145;54,71
791,373;54,68
791,601;54,71
791,829;54,72
792,057;54,71
792,286;54,75
792,514;54,74
792,742;54,69
792,97;54,7
793,198;54,72
793,426;54,76
793,654;54,72
793,882;54,74
794,109;54,79
794,337;54,84
794,565;54,77
794,793;54,8
795,021;54,79
795,249;54,83
795,477;54,85
795,704;54,79
795,932;54,74
796,16;54,77
796,388;54,69
796,615;54,65
796,843;54,61
797,071;54,54
797,298;54,47
797,526;54,48
797,754;54,47
797,981;54,37
798,209;54,36
798,436;54,28
798,664;54,26
798,891;54,22
799,119;54,11
799,346;54,1
799,574;54,08
799,801;54,07
800,029;53,99
800,256;53,97
800,483;53,97
800,711;54,02
800,938;53,99
801,165;53,97
801,393;53,95
801,62;53,94
801,847;53,97
802,074;53,94
802,302;53,89
802,529;53,84
802,756;53,93
802,983;53,94
803,21;53,97
803,437;53,99
803,665;54,03
803,892;53,96
804,119;53,96
804,346;53,92
804,573;53,92
804,8;53,92
805,027;53,85
805,254;53,87
805,481;53,81
805,708;53,79
805,934;53,79
806,161;53,79
806,388;53,83
806,615;53,79
806,842;53,8
807,069;53,86
807,295;53,86
807,522;53,8
807,749;53,71
807,976;53,69
808,202;53,6
808,429;53,54
808,656;53,61
808,882;53,59
809,109;53,53
809,335;53,57
809,562;53,62
809,789;53,62
810,015;53,6
810,242;53,61
810,468;53,63
810,695;53,63
810,921;53,61
811,147;53,59
811,374;53,57
811,6;53,59
811,827;53,59
812,053;53,54
812,279;53,48
812,506;53,48
812,732;53,51
812,958;53,53
813,185;53,52
813,411;53,53
813,637;53,51
813,863;53,53
814,089;53,47
814,315;53,4
814,542;53,35
814,768;53,35
814,994;53,32
815,22;53,27
815,446;53,25
815,672;53,21
815,898;53,18
816,124;53,08
816,35;53,01
816,576;52,93
816,802;52,95
817,028;52,92
817,254;52,94
817,48;52,84
817,705;52,81
817,931;52,77
818,157;52,73
818,383;52,76
818,609;52,79
818,834;52,75
819,06;52,72
819,286;52,74
819,512;52,71
819,737;52,65
819,963;52,63
820,189;52,57
820,414;52,55
820,64;52,47
820,865;52,52
821,091;52,46
821,316;52,43
821,542;52,38
821,767;52,44
821,993;52,4
822,218;52,41
822,444;52,33
822,669;52,34
822,895;52,3
823,12;52,26
823,345;52,17
823,571;52,07
823,796;52,12
824,021;52,06
824,247;52,09
824,472;52,13
824,697;52,04
824,922;52,09
825,147;52,03
825,373;52,08
825,598;52,06
825,823;52,11
826,048;52,13
826,273;52,09
826,498;52,05
826,723;51,99
826,948;52,01
827,173;52,05
827,398;52,01
827,623;51,97
827,848;51,94
828,073;51,92
828,298;51,95
828,523;51,9
828,748;51,94
828,973;51,87
829,197;51,86
829,422;51,82
829,647;51,78
829,872;51,8
830,097;51,75
830,321;51,78
830,546;51,73
830,771;51,74
830,995;51,73
831,22;51,74
831,445;51,78
831,669;51,75
831,894;51,68
832,118;51,66
832,343;51,69
832,567;51,68
832,792;51,7
833,016;51,67
833,241;51,62
833,465;51,54
833,69;51,52
833,914;51,45
834,139;51,49
834,363;51,44
834,587;51,4
834,812;51,41
835,036;51,31
835,26;51,36
835,485;51,32
835,709;51,36
835,933;51,36
836,157;51,3
836,381;51,3
836,606;51,34
836,83;51,3
837,054;51,2
837,278;51,17
837,502;51,13
837,726;51,11
837,95;51,12
838,174;51,12
838,398;51,06
838,622;51,11
838,846;51,07
839,07;50,99
839,294;51
839,518;50,91
839,742;50,94
839,966;50,85
840,189;50,76
840,413;50,78
840,637;50,76
840,861;50,81
841,085;50,74
841,308;50,64
841,532;50,63
841,756;50,7
841,979;50,66
842,203;50,64
842,427;50,59
842,65;50,52
842,874;50,48
843,098;50,46
843,321;50,37
843,545;50,36
843,768;50,41
843,992;50,45
844,215;50,47
844,439;50,48
844,662;50,43
844,886;50,43
845,109;50,42
845,332;50,34
845,556;50,22
845,779;50,2
846,002;50,17
846,226;50,17
846,449;50,1
846,672;50,11
846,895;50,06
847,119;50,1
847,342;50,03
847,565;50,06
847,788;50,06
848,011;50,1
848,234;50,11
848,457;50,09
848,681;50,03
848,904;49,99
849,127;49,92
849,35;50,02
849,573;50,06
849,796;50,01
850,019;49,97
850,241;50,02
850,464;49,94
850,687;50,1
850,91;50,06
851,133;50,07
851,356;50,05
851,579;50,09
851,801;50,05
852,024;50,17
852,247;50,13
852,47;50,09
852,692;49,95
852,915;49,94
853,138;49,91
853,36;49,9
853,583;49,82
853,806;49,81
854,028;49,72
854,251;49,72
854,473;49,69
854,696;49,69
854,918;49,67
855,141;49,76
855,363;49,7
855,586;49,7
855,808;49,65
856,031;49,59
856,253;49,5
856,475;49,51
856,698;49,44
856,92;49,42
857,142;49,45
857,365;49,55
857,587;49,48
857,809;49,56
858,031;49,55
858,253;49,51
858,476;49,57
858,698;49,52
858,92;49,42
859,142;49,45
859,364;49,31
859,586;49,22
859,808;49,13
860,03;49,05
860,252;49,04
860,474;49,09
860,696;49,15
860,918;49,1
861,14;49,12
861,362;49,14
861,584;49,2
861,806;49,15
862,028;49,13
862,25;49,18
862,471;49,06
862,693;49,02
862,915;49,07
863,137;48,96
863,358;49
863,58;49,02
863,802;48,93
864,024;49,07
864,245;49,07
864,467;49,13
864,688;49,08
864,91;49,04
865,132;48,97
865,353;48,96
865,575;49,09
865,796;49,01
866,018;48,95
866,239;48,82
866,461;48,73
866,682;48,64
866,903;48,52
867,125;48,52
867,346;48,56
867,567;48,62
867,789;48,67
868,01;48,62
868,231;48,51
868,453;48,52
868,674;48,5
868,895;48,51
869,116;48,5
869,337;48,49
869,559;48,46
869,78;48,51
870,001;48,44
870,222;48,37
870,443;48,35
870,664;48,3
870,885;48,42
871,106;48,42
871,327;48,49
871,548;48,49
871,769;48,48
871,99;48,44
872,211;48,41
872,432;48,41
872,653;48,43
872,874;48,57
873,094;48,54
873,315;48,52
873,536;48,54
873,757;48,43
873,978;48,47
874,198;48,45
874,419;48,36
874,64;48,39
874,86;48,37
875,081;48,41
875,302;48,52
875,522;48,49
875,743;48,54
875,963;48,53
876,184;48,54
876,404;48,51
876,625;48,52
876,845;48,57
877,066;48,53
877,286;48,52
877,507;48,43
877,727;48,42
877,947;48,41
878,168;48,34
878,388;48,37
878,609;48,33
878,829;48,34
879,049;48,35
879,269;48,31
879,49;48,25
879,71;48,24
879,93;48,13
880,15;48,07
880,37;48,02
880,59;47,92
880,811;47,98
881,031;47,96
881,251;47,85
881,471;47,73
881,691;47,69
881,911;47,66
882,131;47,69
882,351;47,69
882,571;47,62
882,791;47,59
883,011;47,58
883,23;47,58
883,45;47,62
883,67;47,61
883,89;47,53
884,11;47,56
884,33;47,55
884,549;47,57
884,769;47,51
884,989;47,48
885,209;47,58
885,428;47,61
885,648;47,54
885,868;47,59
886,087;47,66
886,307;47,63
886,526;47,63
886,746;47,65
886,965;47,64
887,185;47,69
887,404;47,73
887,624;47,79
887,843;47,81
888,063;47,76
888,282;47,78
888,502;47,86
888,721;47,92
888,94;47,89
889,16;47,87
889,379;47,94
889,598;47,96
889,818;47,9
890,037;47,83
890,256;48,01
890,475;48,08
890,694;47,99
890,914;47,96
891,133;47,99
891,352;47,97
891,571;47,94
891,79;47,95
892,009;47,82
892,228;47,88
892,447;47,87
892,666;47,94
892,885;47,96
893,104;47,92
893,323;47,83
893,542;47,84
893,761;47,86
893,98;47,79
894,199;47,8
894,417;47,82
894,636;47,83
894,855;47,7
895,074;47,63
895,293;47,64
895,511;47,65
895,73;47,55
895,949;47,47
896,167;47,52
896,386;47,57
896,605;47,66
896,823;47,47
897,042;47,55
897,26;47,43
897,479;47,4
897,697;47,46
897,916;47,59
898,134;47,51
898,353;47,51
898,571;47,55
898,79;47,52
899,008;47,48
899,227;47,41
899,445;47,43
899,663;47,37
899,882;47,37
900,1;47,41
900,318;47,51
900,536;47,58
900,755;47,57
900,973;47,46
901,191;47,41
901,409;47,48
901,627;47,37
901,846;47,54
902,064;47,5
902,282;47,5
902,5;47,36
902,718;47,48
902,936;47,49
903,154;47,48
903,372;47,38
903,59;47,51
903,808;47,5
904,026;47,55
904,244;47,46
904,462;47,37
904,679;47,27
904,897;47,32
905,115;47,25
905,333;47,27
905,551;47,24
905,768;47,29
905,986;47,27
906,204;47,28
906,422;47,11
906,639;47,21
906,857;47,25
907,074;47,2
907,292;47,06
907,51;46,94
907,727;46,99
907,945;47,22
908,162;47,2
908,38;47,08
908,597;47,07
908,815;47,19
909,032;47,2
909,25;47,25
909,467;47,13
909,684;47,15
909,902;47,1
910,119;47,23
910,337;47,32
910,554;47,39
910,771;47,43
910,988;47,46
911,206;47,43
911,423;47,38
911,64;47,45
911,857;47,46
912,074;47,7
912,291;47,6
912,509;47,57
912,726;47,54
912,943;47,82
913,16;47,86
913,377;47,93
913,594;47,97
913,811;48,02
914,028;48,12
914,245;48,18
914,462;48,18
914,679;48,09
914,896;47,98
915,112;47,87
915,329;47,94
915,546;47,99
915,763;48,04
915,98;47,81
916,196;47,67
916,413;47,87
916,63;47,8
916,847;47,74
917,063;47,67
917,28;47,58
917,497;47,49
917,713;47,56
917,93;47,59
918,146;47,76
918,363;47,94
918,579;47,88
918,796;47,94
919,012;47,95
919,229;48
919,445;48,2
919,662;48,18
919,878;48,01
920,095;48,06
920,311;47,99
920,527;48,14
920,744;48,34
920,96;48,16
921,176;48,1
921,392;48,22
921,609;48,26
921,825;48,49
922,041;48,6
922,257;48,32
922,473;48,21
922,69;48,05
922,906;47,8
923,122;47,88
923,338;47,73
923,554;47,73
923,77;47,79
923,986;47,56
924,202;47,76
924,418;47,77
924,634;47,75
924,85;47,67
925,066;47,87
925,282;47,79
925,497;47,87
925,713;47,93
925,929;47,92
926,145;47,86
926,361;47,83
926,576;47,75
926,792;47,82
927,008;47,87
927,224;48,01
927,439;48,21
927,655;48,14
927,871;48,19
928,086;48,21
928,302;48,17
928,517;48,2
928,733;48,14
928,948;48,24
929,164;48,21
929,379;48,27
929,595;48,15
929,81;48,23
930,026;48,06
930,241;48,04
930,456;47,89
930,672;47,86
930,887;47,83
931,102;47,78
931,318;47,8
931,533;47,69
931,748;47,57
931,964;47,4
932,179;47,28
932,394;47,36
932,609;47,33
932,824;47,44
933,039;47,57
933,255;47,43
933,47;47,38
933,685;47,34
933,9;47,45
934,115;47,5
934,33;47,45
934,545;47,52
934,76;47,45
934,975;47,8
935,19;47,97
935,404;47,87
935,619;48,07
935,834;48,3
936,049;48,45
936,264;48,74
936,479;48,82
936,693;49,14
936,908;49,27
937,123;49,73
937,338;49,66
937,552;49,79
937,767;50,04
937,982;50,38
938,196;50,63
938,411;50,51
938,625;50,68
938,84;50,78
939,055;51,08
939,269;51,24
939,484;51,54
939,698;51,65
939,912;52,04
940,127;52,22
940,341;52,28
940,556;52,55
940,77;52,73
940,984;53,07
941,199;53,27
941,413;53,25
941,627;53,05
941,842;53,68
942,056;53,34
942,27;53,75
942,484;53,98
942,699;54,07
942,913;54,32
943,127;54,31
943,341;55,19
943,555;55,27
943,769;55,75
943,983;55,36
944,197;55,23
944,411;54,99
944,625;54,85
944,839;55,2
945,053;55,48
945,267;55,34
945,481;55,34
945,695;55,38
945,909;55,77
946,123;55,8
946,336;55,31
946,55;55,49
946,764;55,62
946,978;55,2
947,192;55,1
947,405;55,08
947,619;55,4
947,833;54,7
948,046;55,18
948,26;54,79
948,474;54,89
948,687;55,07
948,901;55,5
949,114;55
949,328;54,73
949,541;54,35
949,755;54,16
949,968;53,88
950,182;53,73
950,395;53,4
950,609;53,4
950,822;53,2
951,035;53,43
951,249;52,77
951,462;53,14
951,675;53,25
951,889;52,99
952,102;52,96
952,315;53,38
952,528;53,23
952,741;53,03
952,955;52,79
953,168;52,74
953,381;52,57
953,594;53,19
953,807;53,2
954,02;53,38
954,233;53,21
954,446;53,44
954,659;53,47
954,872;53,43
955,085;53,1
955,298;53,33
955,511;53,29
955,724;53,42
955,937;53,17
956,15;53,37
956,362;53,49
956,575;53,16
956,788;52,74
957,001;52,53
957,214;52,75
957,426;52,68
957,639;53,03
957,852;52,82
958,064;52,43
958,277;52,13
958,49;52,22
958,702;52,43
958,915;52,48
959,127;52,57
959,34;52,52
959,552;52,29
959,765;52,08
959,977;52,05
960,19;52,41
960,402;52,17
960,615;51,88
960,827;51,86
961,039;51,94
961,252;52
961,464;52,04
961,676;51,95
961,889;52,11
962,101;51,7
962,313;51,9
962,525;51,93
962,738;51,89
962,95;51,44
963,162;51,37
963,374;51,49
963,586;51,3
963,798;51,53
964,01;51,77
964,222;52,08
964,434;52,3
964,646;51,84
964,858;51,66
965,07;51,53
965,282;51,72
965,494;51,71
965,706;51,84
965,918;52,22
966,13;52,32
966,342;52,28
966,553;52,47
966,765;52,42
966,977;52,28
967,189;52,5
967,401;52,87
967,612;52,76
967,824;52,83
968,036;52,84
968,247;52,26
968,459;51,99
968,67;51,52
968,882;51,08
969,094;51,29
969,305;51,66
969,517;51,71
969,728;51,66
969,94;51,99
970,151;52,18
970,362;51,92
970,574;51,88
970,785;52,14
970,997;52
971,208;51,95
971,419;51,76
971,631;51,75
971,842;51,96
972,053;52,31
972,264;52,2
972,476;52,29
972,687;52,5
972,898;52,96
973,109;53,31
973,32;53,58
973,531;53,75
973,742;54,09
973,954;54,45
974,165;54,46
974,376;54,2
974,587;54,01
974,798;53,79
975,009;53,84
975,22;53,76
975,43;53,93
975,641;54,21
975,852;54,67
976,063;54,94
976,274;54,73
976,485;54,64
976,695;54,57
976,906;54,6
977,117;55,05
977,328;55,32
977,538;55,51
977,749;55,49
977,96;55,6
978,17;55,44
978,381;55,24
978,592;55,6
978,802;55,51
979,013;55,74
979,223;55,91
979,434;56,06
979,644;55,88
979,855;55,9
980,065;55,83
980,276;55,74
980,486;55,67
980,696;55,42
980,907;55,19
981,117;55,15
981,327;55,59
981,538;55,26
981,748;54,86
981,958;54,75
982,169;54,85
982,379;54,63
982,589;54,12
982,799;54
983,009;53,73
983,219;54,09
983,43;53,22
983,64;53,56
983,85;53,92
984,06;54,39
984,27;53,85
984,48;53,8
984,69;53,89
984,9;53,71
985,11;54,62
985,32;54,72
985,529;54,74
985,739;54,57
985,949;55,08
986,159;54,9
986,369;55,25
986,579;55,29
986,788;55,38
986,998;56,25
987,208;56,12
987,417;55,83
987,627;55,54
987,837;56,42
988,046;56,1
988,256;55,33
988,466;54,99
988,675;55,69
988,885;55,65
989,094;55,71
989,304;55,91
989,513;55,51
989,723;55,67
989,932;56,14
990,142;55,8
990,351;55,38
990,56;55,92
990,77;55,58
990,979;55,45
991,188;55,85
991,398;55,36
991,607;55,83
991,816;56,18
992,025;56,48
992,235;56,58
992,444;57,05
992,653;57,96
992,862;58,21
993,071;57,97
993,28;58,62
993,489;58,99
993,698;59,06
993,908;58,74
994,117;59,08
994,326;58,82
994,534;58,98
994,743;59,45
994,952;59,4
995,161;59,35
995,37;60,11
995,579;60,34
995,788;60,18
995,997;60,04
996,205;60,03
996,414;60,56
996,623;60,7
996,832;60,43
997,04;60,07
997,249;59,65
997,458;59,31
997,666;58,6
997,875;58,49
998,084;58,35
998,292;59,25
998,501;59,06
998,709;59,05
998,918;59,37
999,126;58,6
999,335;58,36
999,543;58,43
999,752;57,78
999,96;56,88
1000,169;56,7
1000,377;56,55
1000,585;56,46
1000,794;55,96
1001,002;55,53
1001,21;56,02
1001,418;55,96
1001,627;56,29
1001,835;57,4
1002,043;57,67
1002,251;57,1
1002,459;57,67
1002,668;56,84
1002,876;56,59
1003,084;56,82
1003,292;56,99
1003,5;57,63
1003,708;58,13
1003,916;57,98
1004,124;57,9
1004,332;58,64
1004,54;59,58
1004,748;59,77
1004,956;60,41
1005,163;59,91
1005,371;59,92
1005,579;60,19
1005,787;60,14
1005,995;60,66
1006,202;60,47
1006,41;60,68
1006,618;60,41
1006,826;60,19
1007,033;60,37
1007,241;60,83
1007,449;61,08
1007,656;60,65
1007,864;60,64
1008,071;60,97
1008,279;61,9
1008,486;61,86
1008,694;62,07
1008,901;61,82
1009,109;62,77
1009,316;61,72
1009,524;61,68
1009,731;62,63
1009,938;62,36
1010,146;62,56
1010,353;61,97
1010,56;61,46
1010,768;61,83
1010,975;62,63
1011,182;61,96
1011,389;61,44
1011,597;61,34
1011,804;61,34
1012,011;61,81
1012,218;61,72
1012,425;61,66
1012,632;61,02
1012,839;61,66
1013,046;61,03
1013,253;61,31
1013,46;61,17
1013,667;62,15
1013,874;62,9
1014,081;63,04
1014,288;62,3
1014,495;62,08
1014,702;61,83
1014,909;62,09
1015,116;61,47
1015,323;62,45
1015,529;63,77
1015,736;64,83
1015,943;64,77
1016,15;63,23
1016,356;62,73
1016,563;63,37
1016,77;63,24
1016,976;64,4
1017,183;64,49
1017,389;65,56
1017,596;65,25
1017,803;65,1
1018,009;65,61
1018,216;65,97
1018,422;65,14
1018,629;65,59
1018,835;65,3
1019,041;66,04
1019,248;65,95
1019,454;66,76
1019,661;66,76
1019,867;66,15
1020,073;66,14
1020,279;66,53
1020,486;67,1
1020,692;67,57
1020,898;67,04
1021,104;65,88
1021,311;64,15
1021,517;63,08
1021,723;62,49
1021,929;62,36
1022,135;62,29
1022,341;61,61
1022,547;60,52
1022,753;60,16
1022,959;59,91
1023,165;62,38
1023,371;62,77
1023,577;62,19
1023,783;60,59
1023,989;59,45
1024,195;59,85
1024,401;60,24
1024,607;61,14
1024,812;62,03
1025,018;61,63
1025,224;61,29
1025,43;61,26
1025,635;61,08
1025,841;61,84
1026,047;61,48
1026,252;62,33
1026,458;62,46
1026,664;62,92
1026,869;64,45
1027,075;66,65
1027,28;65,57
1027,486;64,29
1027,691;63,51
1027,897;64,91
1028,102;64,59
1028,308;65,72
1028,513;64,42
1028,719;62,91
1028,924;62,61
1029,129;63,44
1029,335;63,51
1029,54;63,89
1029,745;64,94
1029,95;65,67
1030,156;67,18
1030,361;67,24
1030,566;67,28
1030,771;66,93
1030,976;66,02
1031,182;65,74
1031,387;63,67
1031,592;66,71
1031,797;65,84
1032,002;66,56
1032,207;66,73
1032,412;69,48
1032,617;69,37
1032,822;68,18
1033,027;70,87
1033,232;70,49
1033,437;70,6
1033,642;70,92
1033,846;71,66
1034,051;71,41
1034,256;71,98
1034,461;70,79
1034,666;71,18
1034,87;71,43
1035,075;69,28
1035,28;70,17
1035,484;70,86
1035,689;69,12
1035,894;67,9
1036,098;67,68
1036,303;66,65
1036,507;66,77
1036,712;65,72
1036,917;65,71
1037,121;69,27
1037,325;66,74
1037,53;67,25
1037,734;65,43
1037,939;67,29
1038,143;69,37
1038,348;71,93
1038,552;73,83
1038,756;74,12
1038,961;75,56
1039,165;74,41
1039,369;76,11
1039,573;76,74
1039,778;77,04
1039,982;77,62
1040,186;77
1040,39;78,98
1040,594;80,75
1040,798;79,79
1041,002;78,66
1041,206;80,52
1041,41;82,18
1041,614;83,9
1041,818;82,21
1042,022;83,38
1042,226;80,38
1042,43;78,86
1042,634;75,44
1042,838;73,62
1043,042;73,08
1043,246;70,94
1043,45;70,01
1043,653;71,84
1043,857;74,64
1044,061;73,49
1044,265;73,45
1044,468;75,48
1044,672;74,5
1044,876;74,36
1045,079;73,02
1045,283;77,47
1045,487;74,1
1045,69;71,68
1045,894;71,62
1046,097;73,23
1046,301;76,5
1046,504;80,94
1046,708;81,25
1046,911;86,69
1047,115;84,34
1047,318;84,62
1047,522;89,74
1047,725;91,04
1047,928;89,68
1048,132;87,85
1048,335;88,08
1048,538;90,73
1048,741;88,47
1048,945;89,2
1049,148;89,05
1049,351;88,75
1049,554;88,12
1049,757;90,49
1049,96;87,73
1050,163;90,3
1050,367;90,21
1050,57;86,23
1050,773;84,55
1050,976;83,03
1051,179;80,17
1051,382;83,87
1051,585;87,47
1051,787;84,86
1051,99;86,36
1052,193;86,04
1052,396;86,08
1052,599;86,75
1052,802;86,69
1053,005;89,33
1053,207;87,15
1053,41;88,1
1053,613;88,98
1053,815;87,13
1054,018;86,8
1054,221;89,97
1054,423;88,85
1054,626;88,14
1054,829;89,13
1055,031;88,59
1055,234;89,83
1055,436;89,54
1055,639;89,37
1055,841;82,08
1056,044;81,37
1056,246;79,73
