Data from sienaNatWhite_Reflection__1__32.txt Node;
"Date: Wed Sep 10 12:21:12 CEST 2025 User: sycur Spectrometer: SR400348 Trigger mode: 0 Integration Time (sec): 1,000000E-2 Scans to average: 10 Electric dark correction enabled: true Nonlinearity correction enabled: false Boxcar width: 10 XAxis mode: Wavelengths Number of Pixels in Spectrum: 3648 >>>>>Begin Spectral Data<<<<<";
186,01;7,64
186,281;33,45
186,552;12,5
186,822;77,6
187,093;-600
187,364;458,72
187,635;166,29
187,905;131,61
188,176;81,54
188,447;52,46
188,717;35,95
188,988;31,21
189,258;32,34
189,529;38,5
189,8;35,6
190,07;32,81
190,341;25,94
190,611;22,52
190,882;21,79
191,152;24,5
191,423;24,46
191,693;22,66
191,964;20,64
192,234;23,8
192,505;20,45
192,775;21,92
193,045;20,47
193,316;17,54
193,586;13,65
193,856;14,31
194,127;16,29
194,397;16,63
194,667;16,75
194,938;15,59
195,208;14,06
195,478;15,55
195,748;15,24
196,019;16,15
196,289;16,47
196,559;14,55
196,829;12,99
197,099;12,98
197,37;12,14
197,64;12,43
197,91;11,17
198,18;11,41
198,45;10,4
198,72;10,63
198,99;11,53
199,26;12,9
199,53;13,07
199,8;12,2
200,07;12,06
200,34;12,21
200,61;11,28
200,88;10,78
201,15;10,74
201,42;10,9
201,69;10,08
201,96;9,49
202,23;10,92
202,499;11,67
202,769;11,8
203,039;11,64
203,309;11,04
203,579;11,01
203,849;11,14
204,118;10,87
204,388;10,83
204,658;10,63
204,927;10,1
205,197;9,33
205,467;9,24
205,736;9,48
206,006;9,28
206,276;9,93
206,545;9,91
206,815;9,58
207,085;9,37
207,354;9,95
207,624;9,61
207,893;9,49
208,163;8,97
208,432;8,7
208,702;8,52
208,971;8,37
209,241;8,38
209,51;8,47
209,78;8,5
210,049;7,98
210,318;7,84
210,588;7,67
210,857;7,81
211,127;7,66
211,396;7,36
211,665;7,34
211,935;7,28
212,204;7,11
212,473;6,93
212,742;6,74
213,012;6,58
213,281;6,76
213,55;6,48
213,819;6,42
214,088;6,33
214,358;6,2
214,627;6,31
214,896;6,14
215,165;5,82
215,434;5,62
215,703;5,64
215,972;5,47
216,241;5,49
216,51;5,48
216,779;5,5
217,048;5,44
217,317;5,1
217,586;5,15
217,855;5,24
218,124;5,25
218,393;5,06
218,662;4,98
218,931;4,82
219,2;4,48
219,469;4,56
219,738;4,58
220,006;4,6
220,275;4,54
220,544;4,61
220,813;4,77
221,082;4,82
221,35;4,85
221,619;4,93
221,888;4,82
222,157;4,69
222,425;4,66
222,694;4,51
222,963;4,59
223,231;4,43
223,5;4,44
223,769;4,36
224,037;4,45
224,306;4,46
224,574;4,55
224,843;4,66
225,111;4,53
225,38;4,41
225,648;4,36
225,917;4,3
226,185;4,11
226,454;3,89
226,722;3,95
226,991;3,81
227,259;3,8
227,528;3,79
227,796;3,77
228,064;3,64
228,333;3,69
228,601;3,65
228,869;3,6
229,138;3,53
229,406;3,57
229,674;3,48
229,942;3,41
230,211;3,36
230,479;3,35
230,747;3,36
231,015;3,38
231,283;3,46
231,552;3,4
231,82;3,44
232,088;3,46
232,356;3,45
232,624;3,52
232,892;3,45
233,16;3,43
233,428;3,42
233,696;3,49
233,964;3,5
234,232;3,49
234,5;3,47
234,768;3,46
235,036;3,42
235,304;3,46
235,572;3,48
235,84;3,42
236,108;3,36
236,376;3,34
236,644;3,26
236,912;3,2
237,179;3,23
237,447;3,2
237,715;3,17
237,983;3,14
238,251;3,1
238,518;3,09
238,786;3,07
239,054;3,05
239,322;3,03
239,589;3,01
239,857;2,98
240,125;3,01
240,392;3,01
240,66;3,02
240,927;2,97
241,195;2,91
241,463;2,95
241,73;2,98
241,998;2,99
242,265;3,01
242,533;3
242,8;2,98
243,068;3,01
243,335;2,99
243,603;2,93
243,87;2,94
244,138;2,94
244,405;2,93
244,672;2,96
244,94;2,92
245,207;2,9
245,474;2,91
245,742;2,9
246,009;2,87
246,276;2,85
246,544;2,85
246,811;2,88
247,078;2,88
247,345;2,88
247,613;2,86
247,88;2,84
248,147;2,85
248,414;2,86
248,681;2,82
248,948;2,86
249,215;2,87
249,483;2,83
249,75;2,82
250,017;2,85
250,284;2,84
250,551;2,86
250,818;2,88
251,085;2,88
251,352;2,85
251,619;2,86
251,886;2,85
252,153;2,86
252,42;2,84
252,687;2,82
252,953;2,83
253,22;2,82
253,487;2,84
253,754;2,82
254,021;2,81
254,288;2,83
254,555;2,79
254,821;2,81
255,088;2,83
255,355;2,83
255,622;2,78
255,888;2,78
256,155;2,74
256,422;2,72
256,688;2,71
256,955;2,72
257,222;2,71
257,488;2,71
257,755;2,71
258,022;2,72
258,288;2,68
258,555;2,67
258,821;2,68
259,088;2,67
259,354;2,64
259,621;2,63
259,887;2,62
260,154;2,64
260,42;2,62
260,687;2,63
260,953;2,64
261,219;2,68
261,486;2,65
261,752;2,67
262,019;2,65
262,285;2,63
262,551;2,6
262,818;2,63
263,084;2,59
263,35;2,58
263,616;2,55
263,883;2,57
264,149;2,54
264,415;2,53
264,681;2,52
264,947;2,56
265,214;2,53
265,48;2,55
265,746;2,56
266,012;2,57
266,278;2,56
266,544;2,57
266,81;2,56
267,076;2,59
267,342;2,58
267,608;2,59
267,874;2,59
268,14;2,6
268,406;2,58
268,672;2,62
268,938;2,63
269,204;2,63
269,47;2,64
269,736;2,65
270,002;2,62
270,268;2,64
270,533;2,62
270,799;2,64
271,065;2,61
271,331;2,61
271,597;2,59
271,862;2,58
272,128;2,56
272,394;2,55
272,66;2,56
272,925;2,55
273,191;2,54
273,457;2,57
273,722;2,56
273,988;2,57
274,254;2,55
274,519;2,55
274,785;2,56
275,05;2,53
275,316;2,52
275,582;2,55
275,847;2,54
276,113;2,53
276,378;2,55
276,644;2,54
276,909;2,52
277,174;2,53
277,44;2,55
277,705;2,54
277,971;2,52
278,236;2,52
278,501;2,54
278,767;2,54
279,032;2,54
279,297;2,57
279,563;2,53
279,828;2,53
280,093;2,49
280,358;2,49
280,624;2,5
280,889;2,49
281,154;2,49
281,419;2,5
281,684;2,51
281,95;2,48
282,215;2,49
282,48;2,48
282,745;2,49
283,01;2,49
283,275;2,5
283,54;2,47
283,805;2,45
284,07;2,45
284,335;2,46
284,6;2,44
284,865;2,44
285,13;2,41
285,395;2,44
285,66;2,46
285,925;2,46
286,19;2,5
286,455;2,49
286,72;2,51
286,985;2,48
287,249;2,48
287,514;2,5
287,779;2,48
288,044;2,47
288,309;2,45
288,573;2,43
288,838;2,44
289,103;2,48
289,367;2,48
289,632;2,48
289,897;2,46
290,161;2,47
290,426;2,46
290,691;2,52
290,955;2,48
291,22;2,46
291,484;2,45
291,749;2,42
292,014;2,43
292,278;2,42
292,543;2,43
292,807;2,41
293,072;2,38
293,336;2,38
293,6;2,4
293,865;2,39
294,129;2,39
294,394;2,37
294,658;2,37
294,922;2,34
295,187;2,33
295,451;2,32
295,715;2,3
295,98;2,29
296,244;2,29
296,508;2,3
296,773;2,3
297,037;2,32
297,301;2,33
297,565;2,34
297,829;2,3
298,094;2,3
298,358;2,3
298,622;2,32
298,886;2,33
299,15;2,36
299,414;2,37
299,678;2,39
299,942;2,4
300,206;2,4
300,47;2,43
300,734;2,42
300,998;2,44
301,262;2,44
301,526;2,44
301,79;2,42
302,054;2,43
302,318;2,44
302,582;2,46
302,846;2,46
303,11;2,46
303,374;2,48
303,637;2,49
303,901;2,5
304,165;2,53
304,429;2,51
304,693;2,49
304,956;2,5
305,22;2,51
305,484;2,54
305,747;2,55
306,011;2,55
306,275;2,54
306,538;2,55
306,802;2,56
307,066;2,59
307,329;2,6
307,593;2,58
307,856;2,6
308,12;2,58
308,384;2,59
308,647;2,61
308,911;2,6
309,174;2,6
309,438;2,58
309,701;2,56
309,964;2,57
310,228;2,54
310,491;2,53
310,755;2,52
311,018;2,53
311,281;2,53
311,545;2,53
311,808;2,53
312,071;2,54
312,335;2,5
312,598;2,49
312,861;2,52
313,124;2,54
313,388;2,56
313,651;2,56
313,914;2,53
314,177;2,49
314,44;2,49
314,704;2,5
314,967;2,53
315,23;2,55
315,493;2,55
315,756;2,56
316,019;2,58
316,282;2,59
316,545;2,55
316,808;2,58
317,071;2,57
317,334;2,59
317,597;2,6
317,86;2,61
318,123;2,63
318,386;2,59
318,649;2,57
318,912;2,54
319,175;2,55
319,437;2,56
319,7;2,58
319,963;2,6
320,226;2,59
320,489;2,55
320,751;2,53
321,014;2,52
321,277;2,53
321,54;2,5
321,802;2,48
322,065;2,52
322,328;2,48
322,59;2,47
322,853;2,46
323,116;2,46
323,378;2,48
323,641;2,44
323,903;2,48
324,166;2,49
324,428;2,49
324,691;2,48
324,953;2,47
325,216;2,5
325,478;2,49
325,741;2,48
326,003;2,5
326,266;2,5
326,528;2,51
326,791;2,51
327,053;2,53
327,315;2,49
327,578;2,5
327,84;2,49
328,102;2,48
328,365;2,5
328,627;2,46
328,889;2,46
329,151;2,49
329,414;2,49
329,676;2,46
329,938;2,47
330,2;2,46
330,462;2,48
330,725;2,41
330,987;2,41
331,249;2,42
331,511;2,4
331,773;2,39
332,035;2,42
332,297;2,44
332,559;2,44
332,821;2,42
333,083;2,39
333,345;2,4
333,607;2,43
333,869;2,47
334,131;2,5
334,393;2,48
334,655;2,48
334,917;2,45
335,179;2,47
335,44;2,48
335,702;2,47
335,964;2,45
336,226;2,5
336,488;2,49
336,749;2,48
337,011;2,48
337,273;2,49
337,535;2,45
337,796;2,41
338,058;2,42
338,32;2,41
338,581;2,41
338,843;2,39
339,105;2,38
339,366;2,32
339,628;2,34
339,889;2,36
340,151;2,33
340,412;2,35
340,674;2,36
340,935;2,33
341,197;2,36
341,458;2,34
341,72;2,32
341,981;2,33
342,243;2,37
342,504;2,42
342,766;2,43
343,027;2,44
343,288;2,47
343,55;2,47
343,811;2,51
344,072;2,49
344,334;2,55
344,595;2,54
344,856;2,57
345,117;2,58
345,379;2,58
345,64;2,58
345,901;2,59
346,162;2,58
346,423;2,63
346,684;2,59
346,946;2,65
347,207;2,64
347,468;2,65
347,729;2,63
347,99;2,62
348,251;2,61
348,512;2,61
348,773;2,57
349,034;2,56
349,295;2,57
349,556;2,58
349,817;2,58
350,078;2,58
350,339;2,55
350,6;2,53
350,86;2,54
351,121;2,55
351,382;2,57
351,643;2,55
351,904;2,52
352,165;2,54
352,425;2,5
352,686;2,53
352,947;2,51
353,208;2,52
353,468;2,51
353,729;2,51
353,99;2,55
354,25;2,59
354,511;2,59
354,772;2,58
355,032;2,61
355,293;2,58
355,553;2,56
355,814;2,56
356,074;2,53
356,335;2,52
356,596;2,55
356,856;2,54
357,116;2,53
357,377;2,56
357,637;2,54
357,898;2,54
358,158;2,51
358,419;2,5
358,679;2,48
358,939;2,46
359,2;2,43
359,46;2,42
359,72;2,41
359,981;2,45
360,241;2,43
360,501;2,38
360,761;2,38
361,022;2,36
361,282;2,39
361,542;2,43
361,802;2,38
362,062;2,35
362,323;2,33
362,583;2,37
362,843;2,31
363,103;2,34
363,363;2,32
363,623;2,33
363,883;2,36
364,143;2,38
364,403;2,41
364,663;2,44
364,923;2,45
365,183;2,48
365,443;2,48
365,703;2,45
365,963;2,48
366,223;2,49
366,483;2,51
366,743;2,52
367,002;2,51
367,262;2,53
367,522;2,52
367,782;2,5
368,042;2,5
368,301;2,53
368,561;2,52
368,821;2,54
369,081;2,56
369,34;2,52
369,6;2,48
369,86;2,48
370,119;2,46
370,379;2,47
370,638;2,48
370,898;2,45
371,158;2,48
371,417;2,5
371,677;2,44
371,936;2,46
372,196;2,46
372,455;2,47
372,715;2,46
372,974;2,52
373,234;2,51
373,493;2,56
373,753;2,59
374,012;2,61
374,271;2,61
374,531;2,59
374,79;2,6
375,049;2,64
375,309;2,63
375,568;2,61
375,827;2,55
376,086;2,5
376,346;2,53
376,605;2,55
376,864;2,54
377,123;2,55
377,383;2,54
377,642;2,56
377,901;2,55
378,16;2,55
378,419;2,53
378,678;2,55
378,937;2,5
379,196;2,46
379,455;2,48
379,714;2,53
379,973;2,56
380,232;2,56
380,491;2,55
380,75;2,55
381,009;2,56
381,268;2,56
381,527;2,61
381,786;2,58
382,045;2,57
382,304;2,58
382,563;2,64
382,821;2,65
383,08;2,61
383,339;2,63
383,598;2,68
383,857;2,67
384,115;2,67
384,374;2,7
384,633;2,73
384,891;2,7
385,15;2,6
385,409;2,68
385,667;2,69
385,926;2,7
386,185;2,69
386,443;2,71
386,702;2,76
386,96;2,76
387,219;2,78
387,477;2,81
387,736;2,78
387,994;2,8
388,253;2,8
388,511;2,81
388,77;2,8
389,028;2,78
389,287;2,78
389,545;2,77
389,803;2,75
390,062;2,71
390,32;2,69
390,578;2,71
390,837;2,64
391,095;2,64
391,353;2,64
391,612;2,64
391,87;2,63
392,128;2,63
392,386;2,64
392,644;2,63
392,903;2,63
393,161;2,63
393,419;2,59
393,677;2,61
393,935;2,63
394,193;2,63
394,451;2,67
394,709;2,62
394,967;2,67
395,225;2,65
395,483;2,69
395,741;2,75
395,999;2,8
396,257;2,83
396,515;2,82
396,773;2,83
397,031;2,88
397,289;2,91
397,547;2,88
397,805;2,88
398,062;2,88
398,32;2,85
398,578;2,91
398,836;2,88
399,094;2,83
399,351;2,8
399,609;2,77
399,867;2,76
400,124;2,8
400,382;2,82
400,64;2,84
400,897;2,83
401,155;2,78
401,413;2,75
401,67;2,7
401,928;2,72
402,185;2,71
402,443;2,68
402,701;2,63
402,958;2,63
403,216;2,6
403,473;2,58
403,73;2,59
403,988;2,54
404,245;2,61
404,503;2,64
404,76;2,66
405,018;2,66
405,275;2,69
405,532;2,7
405,79;2,69
406,047;2,69
406,304;2,72
406,561;2,76
406,819;2,81
407,076;2,85
407,333;2,9
407,59;2,93
407,848;2,91
408,105;2,96
408,362;3,01
408,619;3,09
408,876;3,09
409,133;3,07
409,39;3,09
409,647;3,11
409,904;3,07
410,161;3,1
410,418;3,09
410,675;3,05
410,932;3,04
411,189;3,06
411,446;3,04
411,703;3,04
411,96;3,02
412,217;3
412,474;2,94
412,731;2,9
412,988;2,86
413,245;2,89
413,501;2,86
413,758;2,83
414,015;2,73
414,272;2,77
414,529;2,83
414,785;2,85
415,042;2,82
415,299;2,86
415,555;2,84
415,812;2,83
416,069;2,84
416,325;2,81
416,582;2,79
416,838;2,83
417,095;2,79
417,352;2,77
417,608;2,79
417,865;2,89
418,121;2,9
418,378;2,9
418,634;2,91
418,891;2,97
419,147;2,99
419,403;3,01
419,66;3,01
419,916;2,99
420,173;2,97
420,429;2,96
420,685;2,99
420,942;2,98
421,198;3,03
421,454;3,05
421,711;3,06
421,967;3,05
422,223;3,04
422,479;3,06
422,735;3,12
422,992;3,08
423,248;3,04
423,504;3,08
423,76;3,15
424,016;3,13
424,272;3,11
424,528;3,1
424,784;3,1
425,041;3,05
425,297;3,04
425,553;3,07
425,809;3,1
426,065;3,07
426,32;3,09
426,576;3,04
426,832;3,01
427,088;3,03
427,344;3
427,6;3,03
427,856;3,02
428,112;3,03
428,368;3,03
428,623;3,03
428,879;2,99
429,135;2,93
429,391;2,94
429,646;2,94
429,902;2,96
430,158;3,03
430,414;3,04
430,669;3,14
430,925;3,16
431,181;3,15
431,436;3,21
431,692;3,23
431,947;3,33
432,203;3,34
432,458;3,37
432,714;3,43
432,97;3,43
433,225;3,47
433,481;3,49
433,736;3,52
433,991;3,56
434,247;3,57
434,502;3,65
434,758;3,72
435,013;3,7
435,268;3,72
435,524;3,65
435,779;3,67
436,034;3,61
436,29;3,62
436,545;3,63
436,8;3,57
437,056;3,57
437,311;3,56
437,566;3,54
437,821;3,52
438,076;3,52
438,331;3,52
438,587;3,55
438,842;3,55
439,097;3,61
439,352;3,62
439,607;3,6
439,862;3,57
440,117;3,55
440,372;3,57
440,627;3,56
440,882;3,6
441,137;3,65
441,392;3,68
441,647;3,68
441,902;3,71
442,157;3,75
442,412;3,76
442,667;3,77
442,921;3,81
443,176;3,86
443,431;3,92
443,686;3,93
443,941;3,92
444,195;3,91
444,45;3,86
444,705;3,87
444,96;3,93
445,214;3,93
445,469;3,9
445,724;3,93
445,978;3,99
446,233;4,01
446,487;3,99
446,742;3,98
446,997;3,95
447,251;3,99
447,506;4
447,76;4
448,015;3,94
448,269;3,98
448,524;3,99
448,778;3,94
449,033;3,94
449,287;3,96
449,541;4
449,796;4,01
450,05;4,03
450,305;4,05
450,559;4,05
450,813;4,1
451,067;4,07
451,322;4,03
451,576;4
451,83;4,04
452,084;4,06
452,339;4,12
452,593;4,09
452,847;4,07
453,101;4,06
453,355;4,13
453,609;4,15
453,864;4,11
454,118;4,08
454,372;4,06
454,626;4,09
454,88;4,13
455,134;4,14
455,388;4,12
455,642;4,1
455,896;4,15
456,15;4,1
456,404;4,15
456,658;4,14
456,912;4,15
457,165;4,13
457,419;4,15
457,673;4,07
457,927;4,02
458,181;4,05
458,435;4,04
458,688;3,97
458,942;3,93
459,196;3,94
459,45;3,97
459,703;3,98
459,957;3,93
460,211;3,89
460,464;3,92
460,718;3,88
460,972;3,88
461,225;3,84
461,479;3,81
461,732;3,78
461,986;3,8
462,239;3,81
462,493;3,8
462,746;3,82
463;3,85
463,253;3,92
463,507;3,83
463,76;3,83
464,014;3,85
464,267;3,84
464,52;3,86
464,774;3,88
465,027;3,9
465,28;3,9
465,534;3,85
465,787;3,84
466,04;3,84
466,294;3,84
466,547;3,84
466,8;3,91
467,053;3,9
467,306;3,91
467,56;3,93
467,813;3,92
468,066;3,86
468,319;3,82
468,572;3,8
468,825;3,88
469,078;3,92
469,331;3,95
469,584;3,97
469,837;3,95
470,09;3,96
470,343;3,92
470,596;3,97
470,849;4
471,102;3,98
471,355;4
471,608;4,03
471,861;4,04
472,114;4,03
472,367;4,02
472,619;4,02
472,872;3,99
473,125;4,01
473,378;4
473,631;4,04
473,883;4,03
474,136;4,03
474,389;4,05
474,641;4,05
474,894;4,02
475,147;4,04
475,399;4,01
475,652;4,06
475,905;4,03
476,157;4,05
476,41;4,07
476,662;4,07
476,915;4,08
477,167;4,07
477,42;4,08
477,672;4,1
477,925;4,1
478,177;4,15
478,43;4,16
478,682;4,18
478,934;4,16
479,187;4,19
479,439;4,17
479,691;4,17
479,944;4,18
480,196;4,2
480,448;4,24
480,701;4,26
480,953;4,26
481,205;4,26
481,457;4,25
481,709;4,27
481,962;4,27
482,214;4,3
482,466;4,31
482,718;4,34
482,97;4,36
483,222;4,38
483,474;4,37
483,726;4,4
483,978;4,42
484,23;4,45
484,482;4,45
484,734;4,47
484,986;4,46
485,238;4,48
485,49;4,49
485,742;4,47
485,994;4,48
486,246;4,47
486,498;4,47
486,75;4,47
487,001;4,46
487,253;4,46
487,505;4,44
487,757;4,46
488,009;4,46
488,26;4,47
488,512;4,48
488,764;4,49
489,015;4,49
489,267;4,5
489,519;4,5
489,77;4,52
490,022;4,52
490,274;4,54
490,525;4,57
490,777;4,58
491,028;4,59
491,28;4,6
491,531;4,63
491,783;4,66
492,034;4,72
492,286;4,74
492,537;4,79
492,789;4,8
493,04;4,81
493,291;4,8
493,543;4,82
493,794;4,81
494,045;4,82
494,297;4,85
494,548;4,85
494,799;4,86
495,051;4,88
495,302;4,91
495,553;4,91
495,804;4,89
496,056;4,92
496,307;4,95
496,558;4,98
496,809;4,98
497,06;4,98
497,311;4,98
497,562;5,01
497,813;5,01
498,064;5,03
498,316;5,04
498,567;5,09
498,818;5,09
499,069;5,13
499,319;5,16
499,57;5,16
499,821;5,17
500,072;5,18
500,323;5,21
500,574;5,21
500,825;5,24
501,076;5,29
501,327;5,32
501,577;5,33
501,828;5,31
502,079;5,33
502,33;5,36
502,58;5,38
502,831;5,39
503,082;5,41
503,333;5,43
503,583;5,45
503,834;5,48
504,084;5,5
504,335;5,51
504,586;5,53
504,836;5,55
505,087;5,6
505,337;5,63
505,588;5,64
505,838;5,66
506,089;5,7
506,339;5,72
506,59;5,74
506,84;5,75
507,091;5,81
507,341;5,86
507,591;5,88
507,842;5,91
508,092;5,95
508,343;5,97
508,593;6,01
508,843;6,03
509,093;6,02
509,344;6,05
509,594;6,09
509,844;6,11
510,094;6,14
510,345;6,16
510,595;6,18
510,845;6,21
511,095;6,23
511,345;6,24
511,595;6,26
511,845;6,26
512,095;6,31
512,345;6,31
512,595;6,32
512,845;6,35
513,095;6,4
513,345;6,42
513,595;6,44
513,845;6,45
514,095;6,48
514,345;6,53
514,595;6,56
514,845;6,56
515,095;6,59
515,345;6,63
515,594;6,65
515,844;6,67
516,094;6,72
516,344;6,76
516,593;6,76
516,843;6,77
517,093;6,81
517,343;6,82
517,592;6,85
517,842;6,91
518,092;6,97
518,341;6,97
518,591;7,01
518,84;7,05
519,09;7,07
519,34;7,13
519,589;7,14
519,839;7,18
520,088;7,22
520,338;7,26
520,587;7,26
520,836;7,3
521,086;7,33
521,335;7,35
521,585;7,39
521,834;7,45
522,083;7,49
522,333;7,54
522,582;7,58
522,831;7,63
523,081;7,64
523,33;7,66
523,579;7,7
523,828;7,74
524,078;7,79
524,327;7,81
524,576;7,83
524,825;7,86
525,074;7,93
525,323;7,95
525,573;7,99
525,822;8,07
526,071;8,11
526,32;8,15
526,569;8,17
526,818;8,21
527,067;8,25
527,316;8,32
527,565;8,36
527,814;8,42
528,063;8,43
528,312;8,48
528,56;8,5
528,809;8,55
529,058;8,61
529,307;8,66
529,556;8,72
529,805;8,75
530,053;8,84
530,302;8,88
530,551;8,94
530,8;8,97
531,048;9,02
531,297;9,07
531,546;9,12
531,794;9,2
532,043;9,23
532,292;9,28
532,54;9,31
532,789;9,36
533,037;9,38
533,286;9,43
533,535;9,5
533,783;9,56
534,032;9,63
534,28;9,63
534,528;9,68
534,777;9,76
535,025;9,84
535,274;9,89
535,522;9,94
535,771;9,97
536,019;10,05
536,267;10,1
536,516;10,16
536,764;10,21
537,012;10,26
537,26;10,33
537,509;10,4
537,757;10,48
538,005;10,53
538,253;10,61
538,501;10,72
538,75;10,74
538,998;10,82
539,246;10,86
539,494;10,94
539,742;10,99
539,99;11,05
540,238;11,09
540,486;11,16
540,734;11,2
540,982;11,28
541,23;11,35
541,478;11,42
541,726;11,46
541,974;11,53
542,222;11,6
542,47;11,67
542,718;11,72
542,966;11,77
543,213;11,84
543,461;11,92
543,709;11,97
543,957;12,06
544,205;12,13
544,452;12,19
544,7;12,23
544,948;12,33
545,196;12,38
545,443;12,46
545,691;12,54
545,939;12,64
546,186;12,69
546,434;12,76
546,681;12,82
546,929;12,91
547,176;12,97
547,424;13,02
547,671;13,09
547,919;13,15
548,166;13,23
548,414;13,3
548,661;13,34
548,909;13,43
549,156;13,49
549,404;13,56
549,651;13,65
549,898;13,74
550,146;13,81
550,393;13,91
550,64;13,98
550,888;14,06
551,135;14,13
551,382;14,23
551,629;14,27
551,876;14,36
552,124;14,43
552,371;14,52
552,618;14,59
552,865;14,7
553,112;14,76
553,359;14,86
553,606;14,92
553,854;15,02
554,101;15,08
554,348;15,17
554,595;15,26
554,842;15,32
555,089;15,39
555,336;15,47
555,582;15,53
555,829;15,6
556,076;15,65
556,323;15,72
556,57;15,77
556,817;15,85
557,064;15,93
557,311;16,01
557,557;16,09
557,804;16,18
558,051;16,24
558,298;16,35
558,544;16,42
558,791;16,52
559,038;16,57
559,284;16,63
559,531;16,69
559,778;16,76
560,024;16,84
560,271;16,92
560,517;16,97
560,764;17,05
561,011;17,14
561,257;17,24
561,504;17,32
561,75;17,41
561,997;17,49
562,243;17,55
562,489;17,62
562,736;17,69
562,982;17,78
563,229;17,85
563,475;17,91
563,721;17,97
563,968;18,03
564,214;18,12
564,46;18,22
564,707;18,32
564,953;18,39
565,199;18,47
565,445;18,57
565,691;18,64
565,938;18,75
566,184;18,83
566,43;18,91
566,676;19
566,922;19,1
567,168;19,19
567,414;19,28
567,66;19,38
567,906;19,49
568,152;19,57
568,398;19,66
568,644;19,77
568,89;19,87
569,136;19,99
569,382;20,07
569,628;20,15
569,874;20,21
570,12;20,31
570,366;20,4
570,612;20,48
570,857;20,56
571,103;20,63
571,349;20,7
571,595;20,78
571,84;20,85
572,086;20,93
572,332;21,03
572,578;21,11
572,823;21,18
573,069;21,25
573,315;21,32
573,56;21,4
573,806;21,46
574,051;21,55
574,297;21,6
574,542;21,68
574,788;21,77
575,034;21,85
575,279;21,91
575,524;21,97
575,77;22,03
576,015;22,11
576,261;22,18
576,506;22,24
576,752;22,3
576,997;22,36
577,242;22,42
577,488;22,49
577,733;22,54
577,978;22,61
578,223;22,67
578,469;22,76
578,714;22,82
578,959;22,89
579,204;22,96
579,45;23,01
579,695;23,05
579,94;23,11
580,185;23,16
580,43;23,22
580,675;23,27
580,92;23,33
581,165;23,37
581,41;23,43
581,655;23,5
581,9;23,56
582,145;23,63
582,39;23,68
582,635;23,71
582,88;23,77
583,125;23,82
583,37;23,88
583,615;23,9
583,86;23,96
584,105;24
584,349;24,05
584,594;24,08
584,839;24,13
585,084;24,18
585,328;24,24
585,573;24,29
585,818;24,34
586,063;24,37
586,307;24,43
586,552;24,45
586,797;24,48
587,041;24,5
587,286;24,53
587,53;24,56
587,775;24,62
588,019;24,66
588,264;24,69
588,508;24,7
588,753;24,76
588,997;24,77
589,242;24,81
589,486;24,82
589,731;24,9
589,975;24,94
590,22;24,99
590,464;25,03
590,708;25,08
590,953;25,12
591,197;25,15
591,441;25,2
591,685;25,24
591,93;25,27
592,174;25,33
592,418;25,37
592,662;25,42
592,907;25,43
593,151;25,47
593,395;25,49
593,639;25,53
593,883;25,56
594,127;25,61
594,371;25,63
594,615;25,67
594,859;25,69
595,103;25,71
595,347;25,75
595,591;25,77
595,835;25,79
596,079;25,83
596,323;25,86
596,567;25,91
596,811;25,93
597,055;25,97
597,299;26,01
597,542;26,04
597,786;26,08
598,03;26,12
598,274;26,14
598,518;26,19
598,761;26,22
599,005;26,24
599,249;26,28
599,492;26,33
599,736;26,37
599,98;26,41
600,223;26,44
600,467;26,47
600,711;26,5
600,954;26,54
601,198;26,59
601,441;26,62
601,685;26,63
601,928;26,68
602,172;26,68
602,415;26,7
602,659;26,74
602,902;26,75
603,145;26,76
603,389;26,8
603,632;26,82
603,876;26,85
604,119;26,87
604,362;26,88
604,606;26,89
604,849;26,91
605,092;26,93
605,335;26,95
605,579;26,95
605,822;26,97
606,065;26,95
606,308;26,96
606,551;26,97
606,794;26,99
607,037;27
607,281;27,03
607,524;27,05
607,767;27,06
608,01;27,06
608,253;27,06
608,496;27,07
608,739;27,09
608,982;27,09
609,225;27,11
609,468;27,13
609,711;27,14
609,953;27,14
610,196;27,17
610,439;27,17
610,682;27,19
610,925;27,21
611,168;27,26
611,41;27,26
611,653;27,27
611,896;27,27
612,139;27,3
612,381;27,3
612,624;27,33
612,867;27,33
613,109;27,35
613,352;27,37
613,595;27,41
613,837;27,43
614,08;27,46
614,322;27,45
614,565;27,48
614,807;27,5
615,05;27,5
615,292;27,51
615,535;27,53
615,777;27,55
616,02;27,56
616,262;27,57
616,505;27,59
616,747;27,6
616,989;27,66
617,232;27,66
617,474;27,7
617,716;27,7
617,959;27,72
618,201;27,75
618,443;27,77
618,685;27,75
618,927;27,78
619,17;27,79
619,412;27,85
619,654;27,82
619,896;27,86
620,138;27,89
620,38;27,92
620,622;27,94
620,864;27,97
621,107;27,95
621,349;27,97
621,591;28
621,833;28,04
622,075;28,04
622,316;28,07
622,558;28,1
622,8;28,1
623,042;28,12
623,284;28,16
623,526;28,18
623,768;28,22
624,01;28,25
624,251;28,28
624,493;28,27
624,735;28,3
624,977;28,29
625,218;28,31
625,46;28,32
625,702;28,33
625,943;28,34
626,185;28,38
626,427;28,37
626,668;28,35
626,91;28,35
627,152;28,35
627,393;28,36
627,635;28,35
627,876;28,37
628,118;28,38
628,359;28,37
628,601;28,37
628,842;28,37
629,084;28,36
629,325;28,33
629,566;28,36
629,808;28,37
630,049;28,38
630,29;28,41
630,532;28,42
630,773;28,43
631,014;28,42
631,256;28,41
631,497;28,46
631,738;28,5
631,979;28,51
632,22;28,51
632,462;28,49
632,703;28,49
632,944;28,49
633,185;28,5
633,426;28,54
633,667;28,56
633,908;28,57
634,149;28,57
634,39;28,62
634,631;28,59
634,872;28,62
635,113;28,63
635,354;28,62
635,595;28,6
635,836;28,62
636,077;28,64
636,318;28,65
636,559;28,63
636,8;28,64
637,04;28,65
637,281;28,64
637,522;28,68
637,763;28,7
638,003;28,71
638,244;28,71
638,485;28,68
638,726;28,68
638,966;28,68
639,207;28,7
639,448;28,7
639,688;28,73
639,929;28,71
640,169;28,71
640,41;28,7
640,65;28,75
640,891;28,76
641,131;28,8
641,372;28,82
641,612;28,85
641,853;28,88
642,093;28,89
642,334;28,92
642,574;28,95
642,814;28,94
643,055;28,94
643,295;28,97
643,535;28,99
643,776;29,01
644,016;29,03
644,256;29,01
644,496;29
644,737;29,02
644,977;29,06
645,217;29,12
645,457;29,16
645,697;29,14
645,938;29,14
646,178;29,12
646,418;29,14
646,658;29,17
646,898;29,17
647,138;29,21
647,378;29,25
647,618;29,24
647,858;29,27
648,098;29,29
648,338;29,32
648,578;29,35
648,818;29,35
649,057;29,37
649,297;29,4
649,537;29,43
649,777;29,45
650,017;29,44
650,257;29,44
650,496;29,46
650,736;29,49
650,976;29,51
661,028;30,03
661,267;30,06
661,506;30,1
661,744;30,14
661,983;30,2
662,222;30,24
662,461;30,26
662,7;30,27
662,939;30,27
663,177;30,28
663,416;30,27
663,655;30,25
663,894;30,26
664,132;30,3
664,371;30,32
664,61;30,32
664,848;30,33
665,087;30,37
665,326;30,39
665,564;30,43
665,803;30,46
666,041;30,51
666,28;30,53
666,518;30,57
666,757;30,6
666,995;30,59
667,234;30,62
667,472;30,64
667,711;30,67
667,949;30,69
668,187;30,74
668,426;30,77
668,664;30,81
668,902;30,82
669,141;30,82
669,379;30,84
669,617;30,85
669,856;30,86
670,094;30,88
670,332;30,87
670,57;30,87
670,808;30,87
671,046;30,89
671,285;30,89
671,523;30,89
671,761;30,9
671,999;30,93
672,237;30,95
672,475;30,99
672,713;31
672,951;31,03
673,189;31,01
673,427;31,04
673,665;31,03
673,903;31,03
674,141;31,07
674,379;31,12
674,617;31,15
674,854;31,18
675,092;31,19
675,33;31,23
675,568;31,25
675,806;31,29
676,043;31,3
676,281;31,35
676,519;31,38
676,756;31,4
676,994;31,38
677,232;31,41
677,469;31,42
677,707;31,46
677,945;31,46
678,182;31,51
678,42;31,51
678,657;31,54
678,895;31,56
679,132;31,58
679,37;31,55
679,607;31,58
679,845;31,59
680,082;31,61
680,32;31,62
680,557;31,63
680,794;31,64
681,032;31,65
681,269;31,64
681,507;31,66
681,744;31,69
681,981;31,76
682,218;31,76
682,456;31,78
682,693;31,79
682,93;31,82
683,167;31,81
683,404;31,85
683,642;31,87
683,879;31,91
684,116;31,93
684,353;31,99
684,59;31,99
684,827;32,03
685,064;32,02
685,301;32,05
685,538;32,08
685,775;32,1
686,012;32,12
686,249;32,16
686,486;32,18
686,723;32,19
686,96;32,21
687,197;32,26
687,433;32,27
687,67;32,3
687,907;32,31
688,144;32,31
688,381;32,33
688,617;32,33
688,854;32,34
689,091;32,35
689,327;32,35
689,564;32,38
689,801;32,38
690,037;32,42
690,274;32,43
690,511;32,47
690,747;32,5
690,984;32,49
691,22;32,54
691,457;32,59
691,693;32,6
691,93;32,62
692,166;32,61
692,403;32,66
692,639;32,68
692,876;32,7
693,112;32,76
693,348;32,77
693,585;32,83
693,821;32,85
694,057;32,87
694,294;32,89
694,53;32,92
694,766;32,95
695,002;32,98
695,239;33,03
695,475;33,07
695,711;33,08
695,947;33,12
696,183;33,12
696,419;33,12
696,656;33,17
696,892;33,21
697,128;33,23
697,364;33,22
697,6;33,24
697,836;33,27
698,072;33,28
698,308;33,36
698,544;33,37
698,78;33,41
699,016;33,43
699,251;33,46
699,487;33,5
699,723;33,52
699,959;33,59
700,195;33,59
700,431;33,62
700,666;33,62
700,902;33,66
701,138;33,68
701,374;33,71
701,609;33,75
701,845;33,74
702,081;33,78
702,316;33,82
702,552;33,83
702,788;33,87
703,023;33,89
703,259;33,9
703,494;33,94
703,73;33,97
703,965;34
704,201;34,03
704,436;34,06
704,672;34,07
704,907;34,07
705,143;34,12
705,378;34,13
705,613;34,15
705,849;34,16
706,084;34,21
706,319;34,24
706,555;34,25
706,79;34,3
707,025;34,29
707,26;34,32
707,496;34,39
707,731;34,4
707,966;34,43
708,201;34,45
708,436;34,49
708,671;34,5
708,907;34,52
709,142;34,56
709,377;34,58
709,612;34,64
709,847;34,64
710,082;34,65
710,317;34,69
710,552;34,77
710,787;34,81
711,022;34,8
711,257;34,82
711,492;34,85
711,726;34,89
711,961;34,94
712,196;34,95
712,431;34,94
712,666;34,98
712,901;35,02
713,135;35,03
713,37;35,03
713,605;35,06
713,839;35,07
714,074;35,1
714,309;35,1
714,543;35,12
714,778;35,16
715,013;35,19
715,247;35,21
715,482;35,2
715,716;35,2
715,951;35,25
716,185;35,28
716,42;35,31
716,654;35,33
716,889;35,36
717,123;35,39
717,358;35,4
717,592;35,43
717,827;35,44
718,061;35,46
718,295;35,49
718,53;35,51
718,764;35,54
718,998;35,54
719,232;35,59
719,467;35,58
719,701;35,59
719,935;35,61
720,169;35,62
720,403;35,63
720,638;35,7
720,872;35,69
721,106;35,68
721,34;35,7
721,574;35,69
721,808;35,68
722,042;35,71
722,276;35,74
722,51;35,74
722,744;35,74
722,978;35,78
723,212;35,81
723,446;35,82
723,68;35,84
723,914;35,87
724,147;35,92
724,381;35,98
724,615;36,01
724,849;35,99
725,083;36,01
725,316;36,07
725,55;36,11
725,784;36,17
726,018;36,22
726,251;36,25
726,485;36,3
726,719;36,35
726,952;36,39
727,186;36,43
727,419;36,49
727,653;36,56
727,887;36,62
728,12;36,7
728,354;36,72
728,587;36,76
728,821;36,78
729,054;36,79
729,287;36,83
729,521;36,86
729,754;36,96
729,988;36,99
730,221;37,01
730,454;36,97
730,688;37,01
730,921;37,05
731,154;37,08
731,387;37,12
731,621;37,17
731,854;37,16
732,087;37,22
732,32;37,23
732,553;37,23
732,787;37,24
733,02;37,23
733,253;37,27
733,486;37,28
733,719;37,32
733,952;37,31
734,185;37,32
734,418;37,33
734,651;37,31
734,884;37,33
735,117;37,34
735,35;37,35
735,583;37,33
735,816;37,34
736,049;37,35
736,281;37,35
736,514;37,34
736,747;37,37
736,98;37,38
737,213;37,36
737,445;37,35
737,678;37,36
737,911;37,36
738,144;37,36
738,376;37,41
738,609;37,44
738,842;37,46
739,074;37,46
739,307;37,48
739,539;37,52
739,772;37,55
740,004;37,56
740,237;37,61
740,469;37,63
740,702;37,62
740,934;37,67
741,167;37,67
741,399;37,71
741,632;37,75
741,864;37,73
742,096;37,78
742,329;37,83
742,561;37,85
742,793;37,88
743,026;37,91
743,258;37,9
743,49;37,88
743,723;37,89
743,955;37,9
744,187;37,89
744,419;37,91
744,651;37,94
744,883;37,93
745,115;37,96
745,348;37,97
745,58;37,99
745,812;37,98
746,044;38,01
746,276;37,97
746,508;38
746,74;38,04
746,972;38,05
747,204;38,06
747,436;38,08
747,667;38,08
747,899;38,09
748,131;38,13
748,363;38,17
748,595;38,21
748,827;38,24
749,058;38,29
749,29;38,26
749,522;38,22
749,754;38,27
749,985;38,25
750,217;38,25
750,449;38,23
750,68;38,23
750,912;38,25
751,144;38,3
751,375;38,29
751,607;38,28
751,838;38,31
752,07;38,32
752,301;38,31
752,533;38,33
752,764;38,33
752,996;38,31
753,227;38,32
753,459;38,31
753,69;38,32
753,921;38,34
754,153;38,35
754,384;38,39
754,615;38,41
754,847;38,46
755,078;38,53
755,309;38,59
755,54;38,58
755,772;38,56
756,003;38,55
756,234;38,57
756,465;38,59
756,696;38,57
756,927;38,58
757,159;38,61
757,39;38,67
757,621;38,69
757,852;38,7
758,083;38,7
758,314;38,72
758,545;38,74
758,776;38,73
759,007;38,76
759,238;38,78
759,469;38,74
759,699;38,74
759,93;38,73
760,161;38,72
760,392;38,75
760,623;38,74
760,854;38,75
761,084;38,75
761,315;38,72
761,546;38,71
761,776;38,75
762,007;38,71
762,238;38,66
762,468;38,65
762,699;38,67
762,93;38,68
763,16;38,64
763,391;38,63
763,621;38,63
763,852;38,65
764,083;38,66
764,313;38,68
764,543;38,64
764,774;38,62
765,004;38,61
765,235;38,6
765,465;38,63
765,696;38,62
765,926;38,64
766,156;38,68
766,387;38,69
766,617;38,68
766,847;38,71
767,077;38,72
767,308;38,68
767,538;38,7
767,768;38,66
767,998;38,67
768,228;38,65
768,459;38,63
768,689;38,62
768,919;38,63
769,149;38,63
769,379;38,67
769,609;38,68
769,839;38,66
770,069;38,66
770,299;38,66
770,529;38,66
770,759;38,65
770,989;38,61
771,219;38,57
771,449;38,51
771,678;38,5
771,908;38,48
772,138;38,55
772,368;38,52
772,598;38,54
772,827;38,55
773,057;38,56
773,287;38,57
773,517;38,54
773,746;38,49
773,976;38,48
774,206;38,47
774,435;38,47
774,665;38,54
774,894;38,52
775,124;38,53
775,354;38,53
775,583;38,49
775,813;38,51
776,042;38,51
776,272;38,55
776,501;38,54
776,73;38,55
776,96;38,54
777,189;38,53
777,419;38,55
777,648;38,55
777,877;38,56
778,107;38,53
778,336;38,57
778,565;38,59
778,794;38,57
779,024;38,53
779,253;38,49
779,482;38,46
779,711;38,46
779,94;38,48
780,17;38,49
780,399;38,51
780,628;38,54
780,857;38,57
781,086;38,55
781,315;38,58
781,544;38,57
781,773;38,56
782,002;38,53
782,231;38,53
782,46;38,53
782,689;38,51
782,918;38,53
783,147;38,5
783,375;38,46
783,604;38,5
783,833;38,5
784,062;38,53
784,291;38,46
784,519;38,47
784,748;38,44
784,977;38,4
785,206;38,35
785,434;38,3
785,663;38,29
785,892;38,29
786,12;38,26
786,349;38,28
786,577;38,26
786,806;38,27
787,034;38,26
787,263;38,23
787,492;38,22
787,72;38,22
787,948;38,21
788,177;38,23
788,405;38,19
788,634;38,18
788,862;38,18
789,09;38,13
789,319;38,14
789,547;38,11
789,775;38,13
790,004;38,17
790,232;38,16
790,46;38,11
790,688;38,07
790,917;38
791,145;37,98
791,373;37,97
791,601;37,97
791,829;37,92
792,057;37,93
792,286;37,92
792,514;37,89
792,742;37,89
792,97;37,9
793,198;37,84
793,426;37,81
793,654;37,75
793,882;37,79
794,109;37,78
794,337;37,74
794,565;37,71
794,793;37,72
795,021;37,68
795,249;37,69
795,477;37,69
795,704;37,69
795,932;37,63
796,16;37,6
796,388;37,58
796,615;37,54
796,843;37,51
797,071;37,47
797,298;37,45
797,526;37,4
797,754;37,37
797,981;37,38
798,209;37,38
798,436;37,4
798,664;37,38
798,891;37,3
799,119;37,28
799,346;37,23
799,574;37,15
799,801;37,17
800,029;37,15
800,256;37,16
800,483;37,19
800,711;37,23
800,938;37,2
801,165;37,18
801,393;37,17
801,62;37,21
801,847;37,21
802,074;37,18
802,302;37,17
802,529;37,13
802,756;37,14
802,983;37,14
803,21;37,13
803,437;37,14
803,665;37,19
803,892;37,25
804,119;37,18
804,346;37,21
804,573;37,19
804,8;37,15
805,027;37,1
805,254;37,08
805,481;37,07
805,708;37,08
805,934;37,04
806,161;37,06
806,388;36,99
806,615;36,98
806,842;37,02
807,069;37,06
807,295;37,04
807,522;37,04
807,749;37,03
807,976;37
808,202;36,97
808,429;36,91
808,656;36,86
808,882;36,93
809,109;36,88
809,335;36,83
809,562;36,85
809,789;36,83
810,015;36,84
810,242;36,86
810,468;36,91
810,695;36,87
810,921;36,82
811,147;36,81
811,374;36,81
811,6;36,75
811,827;36,69
812,053;36,65
812,279;36,65
812,506;36,58
812,732;36,59
812,958;36,54
813,185;36,54
813,411;36,51
813,637;36,49
813,863;36,48
814,089;36,55
814,315;36,55
814,542;36,54
814,768;36,43
814,994;36,39
815,22;36,27
815,446;36,25
815,672;36,23
815,898;36,25
816,124;36,12
816,35;36,03
816,576;36,08
816,802;36,05
817,028;36,04
817,254;36,06
817,48;35,92
817,705;35,91
817,931;35,88
818,157;35,89
818,383;35,81
818,609;35,84
818,834;35,78
819,06;35,7
819,286;35,67
819,512;35,74
819,737;35,64
819,963;35,66
820,189;35,62
820,414;35,61
820,64;35,55
820,865;35,65
821,091;35,7
821,316;35,63
821,542;35,63
821,767;35,56
821,993;35,59
822,218;35,66
822,444;35,65
822,669;35,6
822,895;35,56
823,12;35,63
823,345;35,61
823,571;35,51
823,796;35,55
824,021;35,52
824,247;35,49
824,472;35,45
824,697;35,41
824,922;35,45
825,147;35,43
825,373;35,4
825,598;35,35
825,823;35,32
826,048;35,31
826,273;35,27
826,498;35,29
826,723;35,2
826,948;35,18
827,173;35,22
827,398;35,27
827,623;35,26
827,848;35,19
828,073;35,11
828,298;35,11
828,523;35,08
828,748;35,06
828,973;35,02
829,197;35,08
829,422;35,03
829,647;34,96
829,872;34,95
830,097;34,93
830,321;34,96
830,546;34,93
830,771;34,9
830,995;34,91
831,22;34,88
831,445;34,87
831,669;34,85
831,894;34,78
832,118;34,71
832,343;34,64
832,567;34,67
832,792;34,68
833,016;34,67
833,241;34,64
833,465;34,64
833,69;34,57
833,914;34,56
834,139;34,57
834,363;34,6
834,587;34,56
834,812;34,55
835,036;34,49
835,26;34,47
835,485;34,44
835,709;34,44
835,933;34,41
836,157;34,35
836,381;34,36
836,606;34,39
836,83;34,35
837,054;34,39
837,278;34,3
837,502;34,21
837,726;34,24
837,95;34,22
838,174;34,22
838,398;34,25
838,622;34,22
838,846;34,19
839,07;34,13
839,294;34,12
839,518;34,15
839,742;34,12
839,966;34,13
840,189;34,14
840,413;34,1
840,637;34,07
840,861;34,11
841,085;34,05
841,308;33,89
841,532;33,87
841,756;33,84
841,979;33,85
842,203;33,95
842,427;33,97
842,65;33,93
842,874;33,88
843,098;33,84
843,321;33,88
843,545;33,88
843,768;33,89
843,992;33,9
844,215;33,82
844,439;33,83
844,662;33,74
844,886;33,69
845,109;33,73
845,332;33,7
845,556;33,62
845,779;33,6
846,002;33,68
846,226;33,68
846,449;33,66
846,672;33,6
846,895;33,46
847,119;33,39
847,342;33,44
847,565;33,43
847,788;33,4
848,011;33,35
848,234;33,33
848,457;33,36
848,681;33,35
848,904;33,34
849,127;33,32
849,35;33,39
849,573;33,44
849,796;33,43
850,019;33,42
850,241;33,47
850,464;33,4
850,687;33,52
850,91;33,53
851,133;33,51
851,356;33,58
851,579;33,62
851,801;33,61
852,024;33,56
852,247;33,54
852,47;33,5
852,692;33,43
852,915;33,42
853,138;33,39
853,36;33,33
853,583;33,32
853,806;33,27
854,028;33,23
854,251;33,19
854,473;33,16
854,696;33,16
854,918;33,16
855,141;33,21
855,363;33,15
855,586;33,18
855,808;33,14
856,031;33,11
856,253;33,2
856,475;33,15
856,698;33,03
856,92;32,99
857,142;32,96
857,365;33,02
857,587;32,94
857,809;32,94
858,031;32,94
858,253;32,93
858,476;32,93
858,698;32,92
858,92;32,86
859,142;32,85
859,364;32,79
859,586;32,78
859,808;32,75
860,03;32,58
860,252;32,48
860,474;32,57
860,696;32,56
860,918;32,43
861,14;32,46
861,362;32,6
861,584;32,65
861,806;32,7
862,028;32,63
862,25;32,64
862,471;32,6
862,693;32,61
862,915;32,62
863,137;32,59
863,358;32,63
863,58;32,71
863,802;32,65
864,024;32,66
864,245;32,64
864,467;32,65
864,688;32,74
864,91;32,79
865,132;32,66
865,353;32,63
865,575;32,68
865,796;32,6
866,018;32,54
866,239;32,48
866,461;32,44
866,682;32,46
866,903;32,42
867,125;32,39
867,346;32,38
867,567;32,33
867,789;32,35
868,01;32,32
868,231;32,23
868,453;32,18
868,674;32,18
868,895;32,18
869,116;32,07
869,337;32,08
869,559;32
869,78;32
870,001;31,89
870,222;31,94
870,443;32
870,664;31,99
870,885;32,05
871,106;32,07
871,327;32,04
871,548;32,1
871,769;32,13
871,99;32,2
872,211;32,17
872,432;32,23
872,653;32,17
872,874;32,16
873,094;32,18
873,315;32,23
873,536;32,21
873,757;32,27
873,978;32,23
874,198;32,25
874,419;32,29
874,64;32,4
874,86;32,27
875,081;32,19
875,302;32,19
875,522;32,18
875,743;32,15
875,963;32,17
876,184;32,18
876,404;32,1
876,625;31,99
876,845;32,07
877,066;31,99
877,286;32,05
877,507;32,08
877,727;32,08
877,947;32,01
878,168;32,02
878,388;31,99
878,609;32,01
878,829;32,05
879,049;32,01
879,269;32
879,49;32,07
879,71;32,17
879,93;32,12
880,15;32,05
880,37;32,02
880,59;31,98
880,811;31,98
881,031;32
881,251;32,1
881,471;32,09
881,691;32,16
881,911;32,13
882,131;32,08
882,351;32,03
882,571;32,02
882,791;31,98
883,011;31,92
883,23;31,83
883,45;31,84
883,67;31,86
883,89;31,79
884,11;31,7
884,33;31,61
884,549;31,59
884,769;31,6
884,989;31,62
885,209;31,63
885,428;31,76
885,648;31,73
885,868;31,72
886,087;31,65
886,307;31,48
886,526;31,49
886,746;31,48
886,965;31,47
887,185;31,53
887,404;31,61
887,624;31,71
887,843;31,76
888,063;31,75
888,282;31,81
888,502;31,89
888,721;31,98
888,94;31,99
889,16;32,05
889,379;32,1
889,598;32,08
889,818;32,1
890,037;32
890,256;32,07
890,475;32,04
890,694;32,08
890,914;32,17
891,133;32,05
891,352;32,11
891,571;32,18
891,79;32,16
892,009;32,05
892,228;32,05
892,447;32,08
892,666;32,13
892,885;32,12
893,104;32,09
893,323;32,12
893,542;32,17
893,761;32,17
893,98;32,17
894,199;32,17
894,417;32,12
894,636;32,11
894,855;32,23
895,074;32,1
895,293;32,08
895,511;32,15
895,73;32,25
895,949;32,24
896,167;32,21
896,386;32,22
896,605;32,35
896,823;32,27
897,042;32,31
897,26;32,26
897,479;32,25
897,697;32,18
897,916;32,19
898,134;32,18
898,353;32,16
898,571;32,11
898,79;32,14
899,008;32,19
899,227;32
899,445;31,88
899,663;31,92
899,882;31,92
900,1;31,9
900,318;31,94
900,536;31,96
900,755;31,97
900,973;31,9
901,191;31,79
901,409;31,88
901,627;31,78
901,846;31,83
902,064;31,81
902,282;31,76
902,5;31,6
902,718;31,54
902,936;31,49
903,154;31,48
903,372;31,43
903,59;31,42
903,808;31,61
904,026;31,68
904,244;31,69
904,462;31,67
904,679;31,7
904,897;31,69
905,115;31,75
905,333;31,81
905,551;31,84
905,768;31,87
905,986;31,8
906,204;31,79
906,422;31,59
906,639;31,47
906,857;31,64
907,074;31,68
907,292;31,77
907,51;31,83
907,727;31,87
907,945;31,97
908,162;31,89
908,38;31,83
908,597;31,75
908,815;31,81
909,032;31,87
909,25;31,78
909,467;31,72
909,684;31,67
909,902;31,68
910,119;31,68
910,337;31,73
910,554;31,81
910,771;31,82
910,988;32,04
911,206;32,11
911,423;32,09
911,64;32,13
911,857;32,05
912,074;32,15
912,291;32,14
912,509;32,17
912,726;32,21
912,943;32,3
913,16;32,34
913,377;32,41
913,594;32,37
913,811;32,42
914,028;32,47
914,245;32,41
914,462;32,31
914,679;32,24
914,896;32,33
915,112;32,34
915,329;32,42
915,546;32,26
915,763;32,3
915,98;32,19
916,196;32,21
916,413;32,36
916,63;32,27
916,847;32,33
917,063;32,27
917,28;32,17
917,497;32,17
917,713;32,24
917,93;32,35
918,146;32,26
918,363;32,36
918,579;32,38
918,796;32,43
919,012;32,62
919,229;32,73
919,445;32,7
919,662;32,63
919,878;32,72
920,095;32,88
920,311;32,92
920,527;33
920,744;33,12
920,96;33,02
921,176;33,06
921,392;33,05
921,609;33,1
921,825;33,28
922,041;33,27
922,257;33,18
922,473;32,93
922,69;33,06
922,906;32,9
923,122;32,98
923,338;32,89
923,554;32,75
923,77;32,71
923,986;32,62
924,202;32,72
924,418;32,64
924,634;32,52
924,85;32,49
925,066;32,5
925,282;32,32
925,497;32,35
925,713;32,35
925,929;32,4
926,145;32,27
926,361;32,2
926,576;32,11
926,792;32,04
927,008;32,09
927,224;32,18
927,439;32,28
927,655;32,19
927,871;32,14
928,086;32,19
928,302;32,26
928,517;32,3
928,733;32,27
928,948;32,32
929,164;32,3
929,379;32,27
929,595;32,25
929,81;32,36
930,026;32,35
930,241;32,32
930,456;32,17
930,672;32,32
930,887;32,39
931,102;32,44
931,318;32,59
931,533;32,54
931,748;32,39
931,964;32,26
932,179;32,25
932,394;32,32
932,609;32,28
932,824;32,28
933,039;32,3
933,255;32,2
933,47;32,14
933,685;32,13
933,9;32,32
934,115;32,27
934,33;32,19
934,545;32,16
934,76;32,2
934,975;32,3
935,19;32,42
935,404;32,38
935,619;32,49
935,834;32,42
936,049;32,61
936,264;32,69
936,479;32,84
936,693;33
936,908;33,13
937,123;33,23
937,338;33,43
937,552;33,39
937,767;33,79
937,982;34,27
938,196;34,58
938,411;34,4
938,625;34,74
938,84;35,33
939,055;35,6
939,269;35,58
939,484;35,8
939,698;35,73
939,912;36
940,127;36,26
940,341;36,34
940,556;36,07
940,77;36,55
940,984;36,75
941,199;36,57
941,413;36,88
941,627;37,17
941,842;36,85
942,056;36,98
942,27;37,01
942,484;36,69
942,699;36,46
942,913;36,61
943,127;36,54
943,341;35,92
943,555;36,32
943,769;36,92
943,983;37
944,197;36,6
944,411;36,33
944,625;36,1
944,839;36,89
945,053;37,47
945,267;37,04
945,481;37,16
945,695;37,63
945,909;37,21
946,123;37,3
946,336;37,7
946,55;38,26
946,764;38,04
946,978;38,04
947,192;37,8
947,405;37,91
947,619;38,62
947,833;38,7
948,046;38,6
948,26;38,47
948,474;38,61
948,687;39,03
948,901;39,2
949,114;39,28
949,328;38,61
949,541;38,25
949,755;38,48
949,968;37,97
950,182;37,69
950,395;38,14
950,609;37,92
950,822;37,84
951,035;37,66
951,249;37,47
951,462;37,5
951,675;37,78
951,889;37,48
952,102;36,85
952,315;37,12
952,528;36,77
952,741;36,62
952,955;36,31
953,168;35,93
953,381;35,8
953,594;35,77
953,807;36,13
954,02;36,25
954,233;35,9
954,446;36
954,659;36,19
954,872;35,82
955,085;36,4
955,298;36,25
955,511;36,15
955,724;36,1
955,937;36,05
956,15;36,01
956,362;36,26
956,575;36,39
956,788;35,98
957,001;35,97
957,214;35,69
957,426;35,62
957,639;35,9
957,852;36,16
958,064;35,92
958,277;35,58
958,49;35,4
958,702;35,4
958,915;35,41
959,127;35,16
959,34;35,04
959,552;34,46
959,765;34,44
959,977;34,48
960,19;34,53
960,402;34,59
960,615;34,73
960,827;34,76
961,039;34,36
961,252;34,44
961,464;34,82
961,676;35,13
961,889;35,34
962,101;35,19
962,313;35,24
962,525;35,61
962,738;35,7
962,95;36,38
963,162;36,59
963,374;37,01
963,586;37,42
963,798;37,91
964,01;37,6
964,222;37,93
964,434;38,22
964,646;38,11
964,858;37,87
965,07;37,87
965,282;37,75
965,494;38,17
965,706;38,25
965,918;38,27
966,13;38,33
966,342;38,19
966,553;37,85
966,765;37,69
966,977;37,74
967,189;37,63
967,401;37,1
967,612;37,06
967,824;36,77
968,036;36,54
968,247;36,05
968,459;36,57
968,67;36,12
968,882;35,82
969,094;35,57
969,305;35,96
969,517;36,14
969,728;36,4
969,94;36,42
970,151;36,31
970,362;36,35
970,574;36,36
970,785;36,83
970,997;37,37
971,208;37,02
971,419;36,53
971,631;36,58
971,842;36,76
972,053;37,05
972,264;37,12
972,476;37,14
972,687;37,54
972,898;37,52
973,109;37,93
973,32;37,95
973,531;38,23
973,742;37,98
973,954;37,69
974,165;37,46
974,376;37,18
974,587;37,45
974,798;37,24
975,009;36,97
975,22;36,61
975,43;36,42
975,641;36,99
975,852;37,42
976,063;37,55
976,274;37,59
976,485;37,31
976,695;36,99
976,906;36,96
977,117;37,21
977,328;37,53
977,538;37,66
977,749;37,49
977,96;37,86
978,17;37,96
978,381;38,1
978,592;38,27
978,802;38,77
979,013;38,8
979,223;38,9
979,434;39,09
979,644;39,8
979,855;40,17
980,065;40,34
980,276;40,22
980,486;40,35
980,696;40,36
980,907;40,28
981,117;40,66
981,327;40,74
981,538;40,22
981,748;39,7
981,958;39,61
982,169;39,82
982,379;39,36
982,589;39,1
982,799;38,8
983,009;38,96
983,219;38,48
983,43;38,16
983,64;38,2
983,85;38,52
984,06;38,46
984,27;38,18
984,48;38,07
984,69;38,33
984,9;38,08
985,11;38,2
985,32;38,5
985,529;38,54
985,739;38,53
985,949;39,09
986,159;39,48
986,369;39,46
986,579;39,51
986,788;40,38
986,998;41,01
987,208;41,42
987,417;40,77
987,627;40,71
987,837;40,99
988,046;40,6
988,256;40,7
988,466;40,36
988,675;40,43
988,885;40,24
989,094;40,3
989,304;40,57
989,513;40,52
989,723;40,87
989,932;40,58
990,142;40,82
990,351;41,03
990,56;40,85
990,77;40,88
990,979;40,94
991,188;41,1
991,398;40,58
991,607;40,83
991,816;41,71
992,025;42,15
992,235;41,92
992,444;43,01
992,653;42,97
992,862;43,08
993,071;43,22
993,28;43,78
993,489;43,76
993,698;44,22
993,908;43,89
994,117;43,23
994,326;43,91
994,534;43,86
994,743;43,61
994,952;43,38
995,161;42,66
995,37;43,44
995,579;43,1
995,788;43,73
995,997;43,7
996,205;43,7
996,414;43,7
996,623;44,51
996,832;43,78
997,04;44,04
997,249;42,81
997,458;43,31
997,666;43,4
997,875;43,4
998,084;42,8
998,292;43,43
998,501;44,13
998,709;43,93
998,918;44,04
999,126;43,79
999,335;44,51
999,543;45,82
999,752;45,07
999,96;44,52
1000,169;43,83
1000,377;43,3
1000,585;42,82
1000,794;43,11
1001,002;43,27
1001,21;43,78
1001,418;42,58
1001,627;43,21
1001,835;43,16
1002,043;43,14
1002,251;43,01
1002,459;43,61
1002,668;42,85
1002,876;42,41
1003,084;42,06
1003,292;41,74
1003,5;41,71
1003,708;41,75
1003,916;40,75
1004,124;40,99
1004,332;41,54
1004,54;42,42
1004,748;42,75
1004,956;43,33
1005,163;42,3
1005,371;41,45
1005,579;41,17
1005,787;42,53
1005,995;43,13
1006,202;42,83
1006,41;42,55
1006,618;42,82
1006,826;42,25
1007,033;42,56
1007,241;42,99
1007,449;43,64
1007,656;43,66
1007,864;43,62
1008,071;43,13
1008,279;44,08
1008,486;43,53
1008,694;43,15
1008,901;42,64
1009,109;42,56
1009,316;42,47
1009,524;43,13
1009,731;44,1
1009,938;44,38
1010,146;44,16
1010,353;44,24
1010,56;44,32
1010,768;44,65
1010,975;44,85
1011,182;45,84
1011,389;45,69
1011,597;45,7
1011,804;45,59
1012,011;45,63
1012,218;45,19
1012,425;45,87
1012,632;45,92
1012,839;46,06
1013,046;45,87
1013,253;46,37
1013,46;46,96
1013,667;47
1013,874;47,41
1014,081;47,23
1014,288;46,55
1014,495;46,5
1014,702;45,47
1014,909;45,22
1015,116;44,02
1015,323;43,98
1015,529;43,24
1015,736;43,99
1015,943;44,08
1016,15;43,76
1016,356;43,67
1016,563;45,04
1016,77;45,05
1016,976;44,98
1017,183;45,09
1017,389;45,37
1017,596;45,08
1017,803;45,61
1018,009;46,08
1018,216;45,95
1018,422;45,54
1018,629;46,68
1018,835;47,25
1019,041;49,21
1019,248;48,92
1019,454;48,77
1019,661;48,14
1019,867;47,49
1020,073;47,9
1020,279;48,73
1020,486;48,73
1020,692;50,28
1020,898;48,62
1021,104;47,61
1021,311;46,69
1021,517;46,3
1021,723;47,15
1021,929;46,48
1022,135;45,84
1022,341;46,19
1022,547;46,21
1022,753;46,31
1022,959;46,51
1023,165;46,55
1023,371;46,01
1023,577;45,98
1023,783;46,18
1023,989;46,43
1024,195;47,55
1024,401;48,21
1024,607;46,82
1024,812;48,45
1025,018;47,28
1025,224;48,1
1025,43;48,93
1025,635;49,24
1025,841;51,22
1026,047;50,62
1026,252;51,68
1026,458;51,9
1026,664;49,89
1026,869;50,26
1027,075;51,71
1027,28;50,02
1027,486;49,17
1027,691;48,35
1027,897;48,61
1028,102;48,36
1028,308;47,15
1028,513;47,36
1028,719;46,45
1028,924;47,94
1029,129;46,72
1029,335;47,6
1029,54;48,02
1029,745;47,75
1029,95;47,77
1030,156;47,24
1030,361;47,07
1030,566;48,03
1030,771;48,23
1030,976;49,08
1031,182;49,46
1031,387;47,39
1031,592;48,4
1031,797;49,34
1032,002;49,27
1032,207;50,63
1032,412;51,8
1032,617;55,69
1032,822;54,95
1033,027;55,63
1033,232;55,23
1033,437;55,79
1033,642;54,91
1033,846;55,57
1034,051;54,91
1034,256;54,87
1034,461;52,5
1034,666;52,43
1034,87;51,74
1035,075;49,46
1035,28;49,99
1035,484;48,92
1035,689;48,06
1035,894;47,12
1036,098;45,78
1036,303;45,89
1036,507;45,31
1036,712;46,03
1036,917;43,69
1037,121;46,31
1037,325;45,64
1037,53;45,18
1037,734;43,39
1037,939;45,18
1038,143;45,74
1038,348;47,17
1038,552;48,64
1038,756;50,12
1038,961;51,47
1039,165;50,8
1039,369;51,91
1039,573;51,41
1039,778;52,44
1039,982;56,15
1040,186;56,55
1040,39;57,81
1040,594;57,43
1040,798;54,91
1041,002;54,99
1041,206;55,68
1041,41;53,44
1041,614;53,16
1041,818;51,6
1042,022;53,08
1042,226;51,32
1042,43;51,14
1042,634;49,75
1042,838;48,67
1043,042;47,57
1043,246;43,55
1043,45;42,82
1043,653;41,91
1043,857;43,4
1044,061;42,21
1044,265;40,25
1044,468;40,88
1044,672;41,74
1044,876;42,12
1045,079;43,16
1045,283;44,47
1045,487;43
1045,69;43,57
1045,894;43,63
1046,097;45,73
1046,301;45,95
1046,504;47,8
1046,708;44,93
1046,911;45,44
1047,115;45,83
1047,318;48,83
1047,522;53,75
1047,725;53,62
1047,928;55,54
1048,132;54,4
1048,335;54,63
1048,538;55,01
1048,741;51,67
1048,945;49,69
1049,148;51,98
1049,351;52,23
1049,554;55,27
1049,757;58,19
1049,96;57,86
1050,163;59,45
1050,367;59,78
1050,57;59,5
1050,773;53,7
1050,976;57,79
1051,179;58,02
1051,382;56,39
1051,585;55,19
1051,787;56,49
1051,99;57,44
1052,193;58,83
1052,396;57,89
1052,599;57,93
1052,802;60,72
1053,005;63,63
1053,207;65,3
1053,41;66,31
1053,613;68,95
1053,815;62,35
1054,018;62,76
1054,221;65,06
1054,423;64,8
1054,626;63,29
1054,829;64,72
1055,031;71,38
1055,234;69,64
1055,436;70,86
1055,639;74,87
1055,841;73,92
1056,044;72,46
1056,246;74,27
