3997,70175;1,96745
3995,6506;1,97099
3993,59944;1,9757
3991,54829;1,97802
3989,49713;1,97809
3987,44598;1,9782
3985,39482;1,97732
3983,34367;1,97504
3981,29251;1,97493
3979,24136;1,97827
3977,1902;1,98221
3975,13905;1,98535
3973,08789;1,98738
3971,03673;1,98761
3968,98558;1,98657
3966,93442;1,98618
3964,88327;1,98752
3962,83211;1,99063
3960,78096;1,99468
3958,7298;1,99786
3956,67865;1,99943
3954,62749;2,00015
3952,57634;2,00116
3950,52518;2,0029
3948,47403;2,00538
3946,42287;2,00918
3944,37172;2,01232
3942,32056;2,01112
3940,2694;2,00656
3938,21825;2,00243
3936,16709;1,99974
3934,11594;1,99776
3932,06478;1,99633
3930,01363;1,99404
3927,96247;1,9909
3925,91132;1,98849
3923,86016;1,98631
3921,80901;1,98267
3919,75785;1,97686
3917,7067;1,96961
3915,65554;1,9619
3913,60439;1,95388
3911,55323;1,94739
3909,50207;1,946
3907,45092;1,94918
3905,39976;1,95298
3903,34861;1,9561
3901,29745;1,95684
3899,2463;1,95232
3897,19514;1,94598
3895,14399;1,94233
3893,09283;1,94033
3891,04168;1,93778
3888,99052;1,93745
3886,93937;1,94088
3884,88821;1,94726
3882,83706;1,95065
3880,7859;1,94733
3878,73474;1,9433
3876,68359;1,94224
3874,63243;1,9446
3872,58128;1,94863
3870,53012;1,9467
3868,47897;1,94179
3866,42781;1,94025
3864,37666;1,9391
3862,3255;1,93427
3860,27435;1,92872
3858,22319;1,92812
3856,17204;1,93238
3854,12088;1,93785
3852,06973;1,93794
3850,01857;1,93133
3847,96741;1,92509
3845,91626;1,92452
3843,8651;1,92967
3841,81395;1,93574
3839,76279;1,93623
3837,71164;1,93283
3835,66048;1,93147
3833,60933;1,93165
3831,55817;1,93191
3829,50702;1,93259
3827,45586;1,93126
3825,40471;1,92975
3823,35355;1,9315
3821,3024;1,93605
3819,25124;1,94036
3817,20008;1,93772
3815,14893;1,93164
3813,09777;1,92947
3811,04662;1,93008
3808,99546;1,93186
3806,94431;1,93579
3804,89315;1,94186
3802,842;1,94359
3800,79084;1,94344
3798,73969;1,94584
3796,68853;1,94513
3794,63738;1,94105
3792,58622;1,93735
3790,53506;1,93697
3788,48391;1,93995
3786,43275;1,9426
3784,3816;1,94284
3782,33044;1,94333
3780,27929;1,94608
3778,22813;1,94904
3776,17698;1,94922
3774,12582;1,94926
3772,07467;1,9531
3770,02351;1,9599
3767,97236;1,96496
3765,9212;1,96543
3763,87005;1,96772
3761,81889;1,97376
3759,76773;1,97906
3757,71658;1,9829
3755,66542;1,98798
3753,61427;1,99492
3751,56311;2,00291
3749,51196;2,00974
3747,4608;2,01063
3745,40965;2,00381
3743,35849;2,00345
3741,30734;2,01327
3739,25618;2,02236
3737,20503;2,03232
3735,15387;2,04399
3733,10272;2,04482
3731,05156;2,03581
3729,0004;2,03249
3726,94925;2,03867
3724,89809;2,04888
3722,84694;2,05612
3720,79578;2,05995
3718,74463;2,06336
3716,69347;2,06902
3714,64232;2,0798
3712,59116;2,09523
3710,54001;2,10749
3708,48885;2,11267
3706,4377;2,11949
3704,38654;2,13451
3702,33539;2,15674
3700,28423;2,18324
3698,23307;2,21041
3696,18192;2,23491
3694,13076;2,25591
3692,07961;2,27054
3690,02845;2,27186
3687,9773;2,26233
3685,92614;2,25636
3683,87499;2,25739
3681,82383;2,26485
3679,77268;2,28133
3677,72152;2,30461
3675,67037;2,32636
3673,61921;2,34317
3671,56806;2,35618
3669,5169;2,36884
3667,46574;2,38248
3665,41459;2,39587
3663,36343;2,41063
3661,31228;2,42892
3659,26112;2,45098
3657,20997;2,47492
3655,15881;2,49942
3653,10766;2,52347
3651,0565;2,5498
3649,00535;2,57785
3646,95419;2,59588
3644,90304;2,60598
3642,85188;2,61745
3640,80073;2,62786
3638,74957;2,63093
3636,69841;2,63384
3634,64726;2,64658
3632,5961;2,6714
3630,54495;2,70007
3628,49379;2,71932
3626,44264;2,72623
3624,39148;2,73189
3622,34033;2,74091
3620,28917;2,74683
3618,23802;2,75046
3616,18686;2,76099
3614,13571;2,78067
3612,08455;2,80538
3610,0334;2,82369
3607,98224;2,83057
3605,93108;2,83244
3603,87993;2,83587
3601,82877;2,85612
3599,77762;2,90057
3597,72646;2,93661
3595,67531;2,93261
3593,62415;2,90822
3591,573;2,88846
3589,52184;2,87677
3587,47069;2,88023
3585,41953;2,90164
3583,36838;2,92174
3581,31722;2,92438
3579,26607;2,91858
3577,21491;2,92084
3575,16375;2,92378
3573,1126;2,91611
3571,06144;2,91116
3569,01029;2,91329
3566,95913;2,90622
3564,90798;2,89342
3562,85682;2,89722
3560,80567;2,91998
3558,75451;2,94001
3556,70336;2,94386
3554,6522;2,93892
3552,60105;2,93721
3550,54989;2,94098
3548,49874;2,93688
3546,44758;2,92802
3544,39642;2,93648
3542,34527;2,952
3540,29411;2,95233
3538,24296;2,9447
3536,1918;2,94548
3534,14065;2,9561
3532,08949;2,95946
3530,03834;2,95011
3527,98718;2,94791
3525,93603;2,96554
3523,88487;2,99259
3521,83372;3,01285
3519,78256;3,00938
3517,73141;2,98494
3515,68025;2,96978
3513,62909;2,97099
3511,57794;2,96867
3509,52678;2,95623
3507,47563;2,94671
3505,42447;2,95503
3503,37332;2,96847
3501,32216;2,96807
3499,27101;2,96126
3497,21985;2,95474
3495,1687;2,94788
3493,11754;2,93926
3491,06639;2,93612
3489,01523;2,95366
3486,96407;2,96784
3484,91292;2,95225
3482,86176;2,9409
3480,81061;2,948
3478,75945;2,95114
3476,7083;2,95615
3474,65714;2,96095
3472,60599;2,9511
3470,55483;2,94353
3468,50368;2,95309
3466,45252;2,95379
3464,40137;2,93404
3462,35021;2,9256
3460,29906;2,94677
3458,2479;2,97032
3456,19674;2,9655
3454,14559;2,94736
3452,09443;2,94232
3450,04328;2,94549
3447,99212;2,93786
3445,94097;2,92899
3443,88981;2,93446
3441,83866;2,9437
3439,7875;2,93796
3437,73635;2,91781
3435,68519;2,90344
3433,63404;2,90556
3431,58288;2,9166
3429,53173;2,92388
3427,48057;2,92019
3425,42941;2,90879
3423,37826;2,90611
3421,3271;2,91929
3419,27595;2,9284
3417,22479;2,92173
3415,17364;2,91453
3413,12248;2,91379
3411,07133;2,89858
3409,02017;2,87656
3406,96902;2,87336
3404,91786;2,87228
3402,86671;2,86494
3400,81555;2,86425
3398,7644;2,86791
3396,71324;2,87395
3394,66208;2,87507
3392,61093;2,86348
3390,55977;2,85266
3388,50862;2,85159
3386,45746;2,85806
3384,40631;2,86699
3382,35515;2,86854
3380,304;2,86639
3378,25284;2,86691
3376,20169;2,86506
3374,15053;2,86252
3372,09938;2,86393
3370,04822;2,8637
3367,99707;2,86273
3365,94591;2,86561
3363,89475;2,86427
3361,8436;2,86365
3359,79244;2,86593
3357,74129;2,86091
3355,69013;2,85818
3353,63898;2,86624
3351,58782;2,8709
3349,53667;2,87088
3347,48551;2,8733
3345,43436;2,86757
3343,3832;2,85801
3341,33205;2,86355
3339,28089;2,87891
3337,22974;2,88176
3335,17858;2,8672
3333,12742;2,85427
3331,07627;2,85488
3329,02511;2,85474
3326,97396;2,84425
3324,9228;2,83675
3322,87165;2,82929
3320,82049;2,81137
3318,76934;2,79921
3316,71818;2,80823
3314,66703;2,82364
3312,61587;2,82785
3310,56472;2,82491
3308,51356;2,8245
3306,46241;2,8285
3304,41125;2,83145
3302,36009;2,83626
3300,30894;2,84377
3298,25778;2,84076
3296,20663;2,82721
3294,15547;2,81687
3292,10432;2,81226
3290,05316;2,80624
3288,00201;2,80056
3285,95085;2,80625
3283,8997;2,81651
3281,84854;2,81223
3279,79739;2,8017
3277,74623;2,80694
3275,69508;2,82495
3273,64392;2,83416
3271,59276;2,83035
3269,54161;2,82423
3267,49045;2,82664
3265,4393;2,83447
3263,38814;2,82606
3261,33699;2,80081
3259,28583;2,78554
3257,23468;2,78963
3255,18352;2,79767
3253,13237;2,80566
3251,08121;2,8214
3249,03006;2,83063
3246,9789;2,82421
3244,92775;2,81547
3242,87659;2,80802
3240,82543;2,80328
3238,77428;2,80183
3236,72312;2,79984
3234,67197;2,8007
3232,62081;2,80776
3230,56966;2,8135
3228,5185;2,81084
3226,46735;2,80057
3224,41619;2,79116
3222,36504;2,79431
3220,31388;2,79557
3218,26273;2,78353
3216,21157;2,77919
3214,16041;2,78378
3212,10926;2,78399
3210,0581;2,78968
3208,00695;2,80359
3205,95579;2,80979
3203,90464;2,80222
3201,85348;2,79571
3199,80233;2,80849
3197,75117;2,82587
3195,70002;2,82056
3193,64886;2,80083
3191,59771;2,78797
3189,54655;2,78628
3187,4954;2,78936
3185,44424;2,79502
3183,39308;2,79649
3181,34193;2,78516
3179,29077;2,77593
3177,23962;2,78344
3175,18846;2,7952
3173,13731;2,79617
3171,08615;2,79378
3169,035;2,79631
3166,98384;2,79349
3164,93269;2,78525
3162,88153;2,77918
3160,83038;2,77631
3158,77922;2,78283
3156,72807;2,79232
3154,67691;2,79173
3152,62575;2,78545
3150,5746;2,77673
3148,52344;2,76277
3146,47229;2,75373
3144,42113;2,7571
3142,36998;2,76952
3140,31882;2,78631
3138,26767;2,79555
3136,21651;2,79044
3134,16536;2,78062
3132,1142;2,77554
3130,06305;2,77299
3128,01189;2,76925
3125,96074;2,76644
3123,90958;2,76511
3121,85842;2,76942
3119,80727;2,7848
3117,75611;2,80154
3115,70496;2,80616
3113,6538;2,80138
3111,60265;2,79187
3109,55149;2,77711
3107,50034;2,76545
3105,44918;2,76487
3103,39803;2,76928
3101,34687;2,77096
3099,29572;2,76821
3097,24456;2,75605
3095,19341;2,74221
3093,14225;2,74355
3091,09109;2,75551
3089,03994;2,76559
3086,98878;2,77607
3084,93763;2,78083
3082,88647;2,76705
3080,83532;2,7458
3078,78416;2,73125
3076,73301;2,72484
3074,68185;2,72719
3072,6307;2,73877
3070,57954;2,75162
3068,52839;2,75848
3066,47723;2,76149
3064,42608;2,76187
3062,37492;2,76198
3060,32376;2,76436
3058,27261;2,76331
3056,22145;2,75516
3054,1703;2,74683
3052,11914;2,74486
3050,06799;2,74874
3048,01683;2,75278
3045,96568;2,75568
3043,91452;2,7583
3041,86337;2,75484
3039,81221;2,74462
3037,76106;2,73327
3035,7099;2,72735
3033,65875;2,73276
3031,60759;2,74234
3029,55643;2,74751
3027,50528;2,74908
3025,45412;2,7507
3023,40297;2,75181
3021,35181;2,74705
3019,30066;2,74339
3017,2495;2,75181
3015,19835;2,7571
3013,14719;2,74519
3011,09604;2,73551
3009,04488;2,74354
3006,99373;2,75438
3004,94257;2,75494
3002,89142;2,75931
3000,84026;2,77295
2998,7891;2,77633
2996,73795;2,76636
2994,68679;2,7599
2992,63564;2,75954
2990,58448;2,75685
2988,53333;2,74952
2986,48217;2,75117
2984,43102;2,76836
2982,37986;2,78319
2980,32871;2,78418
2978,27755;2,78367
2976,2264;2,78999
2974,17524;2,80092
2972,12409;2,80648
2970,07293;2,80097
2968,02177;2,79558
2965,97062;2,79291
2963,91946;2,78556
2961,86831;2,778
2959,81715;2,77522
2957,766;2,77407
2955,71484;2,77181
2953,66369;2,76935
2951,61253;2,7742
2949,56138;2,78214
2947,51022;2,77996
2945,45907;2,77266
2943,40791;2,77188
2941,35675;2,77296
2939,3056;2,76911
2937,25444;2,77103
2935,20329;2,78656
2933,15213;2,80009
2931,10098;2,80086
2929,04982;2,79654
2926,99867;2,78898
2924,94751;2,78145
2922,89636;2,78103
2920,8452;2,78254
2918,79405;2,77996
2916,74289;2,77501
2914,69174;2,76914
2912,64058;2,76184
2910,58942;2,75245
2908,53827;2,74772
2906,48711;2,75174
2904,43596;2,76204
2902,3848;2,77282
2900,33365;2,77641
2898,28249;2,77727
2896,23134;2,77687
2894,18018;2,77438
2892,12903;2,77817
2890,07787;2,77679
2888,02672;2,76486
2885,97556;2,7681
2883,92441;2,78893
2881,87325;2,80043
2879,82209;2,7903
2877,77094;2,77061
2875,71978;2,75743
2873,66863;2,75686
2871,61747;2,76467
2869,56632;2,76551
2867,51516;2,7546
2865,46401;2,74527
2863,41285;2,74439
2861,3617;2,75176
2859,31054;2,76029
2857,25939;2,76189
2855,20823;2,75501
2853,15708;2,74523
2851,10592;2,73975
2849,05476;2,73644
2847,00361;2,73189
2844,95245;2,72793
2842,9013;2,72142
2840,85014;2,70988
2838,79899;2,70043
2836,74783;2,69775
2834,69668;2,70343
2832,64552;2,71532
2830,59437;2,71856
2828,54321;2,70808
2826,49206;2,69832
2824,4409;2,69636
2822,38975;2,69413
2820,33859;2,68687
2818,28743;2,67909
2816,23628;2,67508
2814,18512;2,67245
2812,13397;2,66679
2810,08281;2,66118
2808,03166;2,65964
2805,9805;2,6569
2803,92935;2,64982
2801,87819;2,64593
2799,82704;2,64604
2797,77588;2,64496
2795,72473;2,64217
2793,67357;2,63562
2791,62242;2,62589
2789,57126;2,61943
2787,5201;2,6181
2785,46895;2,61939
2783,41779;2,62238
2781,36664;2,62552
2779,31548;2,62365
2777,26433;2,61553
2775,21317;2,60893
2773,16202;2,60814
2771,11086;2,60915
2769,05971;2,60917
2767,00855;2,60665
2764,9574;2,60031
2762,90624;2,59286
2760,85509;2,58737
2758,80393;2,584
2756,75277;2,58341
2754,70162;2,58474
2752,65046;2,58651
2750,59931;2,58812
2748,54815;2,58607
2746,497;2,58048
2744,44584;2,5786
2742,39469;2,58139
2740,34353;2,57892
2738,29238;2,57266
2736,24122;2,57284
2734,19007;2,57411
2732,13891;2,57112
2730,08776;2,56852
2728,0366;2,56519
2725,98544;2,55964
2723,93429;2,55849
2721,88313;2,56276
2719,83198;2,56281
2717,78082;2,55664
2715,72967;2,55205
2713,67851;2,55356
2711,62736;2,55808
2709,5762;2,55752
2707,52505;2,55343
2705,47389;2,55323
2703,42274;2,55717
2701,37158;2,55995
2699,32043;2,55609
2697,26927;2,55054
2695,21811;2,54978
2693,16696;2,55086
2691,1158;2,55017
2689,06465;2,54909
2687,01349;2,54816
2684,96234;2,54471
2682,91118;2,54149
2680,86003;2,54228
2678,80887;2,5441
2676,75772;2,54557
2674,70656;2,54659
2672,65541;2,54235
2670,60425;2,5342
2668,55309;2,52991
2666,50194;2,52791
2664,45078;2,52455
2662,39963;2,52397
2660,34847;2,5267
2658,29732;2,53116
2656,24616;2,53805
2654,19501;2,54223
2652,14385;2,5396
2650,0927;2,53486
2648,04154;2,52997
2645,99039;2,52468
2643,93923;2,524
2641,88808;2,52932
2639,83692;2,53508
2637,78576;2,54115
2635,73461;2,55168
2633,68345;2,56424
2631,6323;2,57332
2629,58114;2,5793
2627,52999;2,58316
2625,47883;2,5858
2623,42768;2,59239
2621,37652;2,60113
2619,32537;2,60639
2617,27421;2,60838
2615,22306;2,60864
2613,1719;2,61219
2611,12075;2,6185
2609,06959;2,62078
2607,01843;2,62101
2604,96728;2,62026
2602,91612;2,62077
2600,86497;2,62806
2598,81381;2,63576
2596,76266;2,63661
2594,7115;2,63521
2592,66035;2,63517
2590,60919;2,63263
2588,55804;2,62851
2586,50688;2,62886
2584,45573;2,63214
2582,40457;2,63516
2580,35342;2,63958
2578,30226;2,64426
2576,2511;2,64378
2574,19995;2,63964
2572,14879;2,63906
2570,09764;2,64317
2568,04648;2,65004
2565,99533;2,65926
2563,94417;2,66561
2561,89302;2,66268
2559,84186;2,658
2557,79071;2,66248
2555,73955;2,67072
2553,6884;2,67356
2551,63724;2,67223
2549,58609;2,66698
2547,53493;2,66362
2545,48377;2,67018
2543,43262;2,67815
2541,38146;2,68116
2539,33031;2,68544
2537,27915;2,68978
2535,228;2,68923
2533,17684;2,68964
2531,12569;2,69432
2529,07453;2,69596
2527,02338;2,69431
2524,97222;2,69526
2522,92107;2,7005
2520,86991;2,70746
2518,81876;2,71108
2516,7676;2,70773
2514,71644;2,70112
2512,66529;2,70037
2510,61413;2,70308
2508,56298;2,70158
2506,51182;2,70346
2504,46067;2,70938
2502,40951;2,70409
2500,35836;2,68847
2498,3072;2,67417
2496,25605;2,66523
2494,20489;2,66241
2492,15374;2,66058
2490,10258;2,65179
2488,05143;2,63952
2486,00027;2,63219
2483,94911;2,62647
2481,89796;2,61406
2479,8468;2,59773
2477,79565;2,58477
2475,74449;2,5727
2473,69334;2,55907
2471,64218;2,5503
2469,59103;2,54567
2467,53987;2,53653
2465,48872;2,52563
2463,43756;2,519
2461,38641;2,51552
2459,33525;2,514
2457,2841;2,5124
2455,23294;2,50725
2453,18178;2,50113
2451,13063;2,49849
2449,07947;2,49613
2447,02832;2,49147
2444,97716;2,48731
2442,92601;2,48374
2440,87485;2,48019
2438,8237;2,47912
2436,77254;2,48126
2434,72139;2,48232
2432,67023;2,47888
2430,61908;2,47355
2428,56792;2,47151
2426,51677;2,47037
2424,46561;2,46543
2422,41445;2,46047
2420,3633;2,45802
2418,31214;2,45455
2416,26099;2,44817
2414,20983;2,44157
2412,15868;2,43803
2410,10752;2,43828
2408,05637;2,44101
2406,00521;2,44232
2403,95406;2,4364
2401,9029;2,42547
2399,85175;2,41806
2397,80059;2,41558
2395,74944;2,41595
2393,69828;2,41678
2391,64712;2,41669
2389,59597;2,41534
2387,54481;2,41302
2385,49366;2,41136
2383,4425;2,40984
2381,39135;2,40644
2379,34019;2,40263
2377,28904;2,40144
2375,23788;2,40346
2373,18673;2,40709
2371,13557;2,40978
2369,08442;2,40737
2367,03326;2,40121
2364,9821;2,40195
2362,93095;2,41192
2360,87979;2,42
2358,82864;2,42038
2356,77748;2,41672
2354,72633;2,41081
2352,67517;2,40595
2350,62402;2,40713
2348,57286;2,40791
2346,52171;2,40297
2344,47055;2,39892
2342,4194;2,39867
2340,36824;2,39677
2338,31709;2,39329
2336,26593;2,39357
2334,21477;2,39938
2332,16362;2,4054
2330,11246;2,40517
2328,06131;2,39868
2326,01015;2,39216
2323,959;2,39184
2321,90784;2,3961
2319,85669;2,39596
2317,80553;2,38972
2315,75438;2,38661
2313,70322;2,39014
2311,65207;2,39308
2309,60091;2,39032
2307,54976;2,38492
2305,4986;2,3808
2303,44744;2,37811
2301,39629;2,3763
2299,34513;2,37551
2297,29398;2,37538
2295,24282;2,3757
2293,19167;2,37631
2291,14051;2,37692
2289,08936;2,37689
2287,0382;2,37631
2284,98705;2,37627
2282,93589;2,37722
2280,88474;2,37958
2278,83358;2,38232
2276,78243;2,38217
2274,73127;2,38071
2272,68011;2,38188
2270,62896;2,38361
2268,5778;2,38398
2266,52665;2,38562
2264,47549;2,38705
2262,42434;2,38556
2260,37318;2,38654
2258,32203;2,39328
2256,27087;2,3989
2254,21972;2,399
2252,16856;2,39852
2250,11741;2,40063
2248,06625;2,40361
2246,0151;2,40535
2243,96394;2,40556
2241,91278;2,40827
2239,86163;2,41502
2237,81047;2,42253
2235,75932;2,42675
2233,70816;2,42668
2231,65701;2,42598
2229,60585;2,42735
2227,5547;2,43124
2225,50354;2,43452
2223,45239;2,43509
2221,40123;2,43611
2219,35008;2,4375
2217,29892;2,43844
2215,24777;2,44028
2213,19661;2,4419
2211,14545;2,44282
2209,0943;2,44361
2207,04314;2,44555
2204,99199;2,45033
2202,94083;2,45442
2200,88968;2,45448
2198,83852;2,45479
2196,78737;2,45659
2194,73621;2,45659
2192,68506;2,45816
2190,6339;2,46283
2188,58275;2,46556
2186,53159;2,46579
2184,48044;2,46679
2182,42928;2,46958
2180,37812;2,47549
2178,32697;2,48293
2176,27581;2,48511
2174,22466;2,48285
2172,1735;2,48134
2170,12235;2,48217
2168,07119;2,48891
2166,02004;2,50039
2163,96888;2,50849
2161,91773;2,51036
2159,86657;2,51188
2157,81542;2,51673
2155,76426;2,52215
2153,71311;2,52881
2151,66195;2,53714
2149,61079;2,54304
2147,55964;2,545
2145,50848;2,54521
2143,45733;2,5459
2141,40617;2,54671
2139,35502;2,5463
2137,30386;2,54416
2135,25271;2,54441
2133,20155;2,54778
2131,1504;2,54579
2129,09924;2,53648
2127,04809;2,5292
2124,99693;2,52791
2122,94578;2,5227
2120,89462;2,51112
2118,84346;2,50211
2116,79231;2,49415
2114,74115;2,48575
2112,69;2,4836
2110,63884;2,48392
2108,58769;2,48119
2106,53653;2,47958
2104,48538;2,47872
2102,43422;2,47786
2100,38307;2,4792
2098,33191;2,48108
2096,28076;2,48258
2094,2296;2,48327
2092,17844;2,48084
2090,12729;2,47792
2088,07613;2,4825
2086,02498;2,49187
2083,97382;2,49652
2081,92267;2,49611
2079,87151;2,49366
2077,82036;2,49044
2075,7692;2,49078
2073,71805;2,49579
2071,66689;2,49738
2069,61574;2,49389
2067,56458;2,49113
2065,51343;2,48812
2063,46227;2,48453
2061,41111;2,48323
2059,35996;2,48124
2057,3088;2,47651
2055,25765;2,47177
2053,20649;2,46923
2051,15534;2,47119
2049,10418;2,47642
2047,05303;2,47881
2045,00187;2,4759
2042,95072;2,47209
2040,89956;2,47179
2038,84841;2,47362
2036,79725;2,47212
2034,7461;2,46816
2032,69494;2,46781
2030,64378;2,46981
2028,59263;2,47039
2026,54147;2,46976
2024,49032;2,46801
2022,43916;2,46564
2020,38801;2,46483
2018,33685;2,46616
2016,2857;2,46842
2014,23454;2,46889
2012,18339;2,46799
2010,13223;2,46916
2008,08108;2,46893
2006,02992;2,46536
2003,97877;2,46352
2001,92761;2,46449
1999,87645;2,46595
1997,8253;2,46714
1995,77414;2,46842
1993,72299;2,46996
1991,67183;2,47225
1989,62068;2,47624
1987,56952;2,47922
1985,51837;2,48059
1983,46721;2,48423
1981,41606;2,48848
1979,3649;2,49004
1977,31375;2,49064
1975,26259;2,49095
1973,21144;2,49145
1971,16028;2,49476
1969,10912;2,5014
1967,05797;2,50755
1965,00681;2,51134
1962,95566;2,51465
1960,9045;2,51626
1958,85335;2,51353
1956,80219;2,50692
1954,75104;2,50004
1952,69988;2,49726
1950,64873;2,4981
1948,59757;2,50009
1946,54642;2,50368
1944,49526;2,50822
1942,44411;2,51102
1940,39295;2,51165
1938,34179;2,50966
1936,29064;2,5064
1934,23948;2,50627
1932,18833;2,51028
1930,13717;2,51375
1928,08602;2,51285
1926,03486;2,51143
1923,98371;2,51448
1921,93255;2,52081
1919,8814;2,52565
1917,83024;2,52797
1915,77909;2,53069
1913,72793;2,53347
1911,67678;2,53549
1909,62562;2,53641
1907,57446;2,53598
1905,52331;2,53688
1903,47215;2,54168
1901,421;2,54633
1899,36984;2,54825
1897,31869;2,55035
1895,26753;2,55054
1893,21638;2,54873
1891,16522;2,55191
1889,11407;2,56089
1887,06291;2,56648
1885,01176;2,56385
1882,9606;2,55897
1880,90945;2,55557
1878,85829;2,55409
1876,80713;2,55789
1874,75598;2,56748
1872,70482;2,58017
1870,65367;2,59469
1868,60251;2,6065
1866,55136;2,60842
1864,5002;2,60532
1862,44905;2,60602
1860,39789;2,60999
1858,34674;2,61432
1856,29558;2,62012
1854,24443;2,62929
1852,19327;2,63861
1850,14212;2,64256
1848,09096;2,64503
1846,0398;2,6542
1843,98865;2,66611
1841,93749;2,67041
1839,88634;2,66926
1837,83518;2,67363
1835,78403;2,68565
1833,73287;2,69833
1831,68172;2,7064
1829,63056;2,70941
1827,57941;2,71161
1825,52825;2,71742
1823,4771;2,72595
1821,42594;2,73141
1819,37478;2,73493
1817,32363;2,74121
1815,27247;2,75234
1813,22132;2,77156
1811,17016;2,79624
1809,11901;2,8146
1807,06785;2,82182
1805,0167;2,83031
1802,96554;2,85036
1800,91439;2,87059
1798,86323;2,87562
1796,81208;2,87161
1794,76092;2,87195
1792,70977;2,87559
1790,65861;2,86911
1788,60745;2,85045
1786,5563;2,83438
1784,50514;2,8279
1782,45399;2,82195
1780,40283;2,81265
1778,35168;2,80567
1776,30052;2,80097
1774,24937;2,79575
1772,19821;2,79183
1770,14706;2,79445
1768,0959;2,80458
1766,04475;2,81474
1763,99359;2,81466
1761,94244;2,80847
1759,89128;2,80705
1757,84012;2,80731
1755,78897;2,80414
1753,73781;2,80165
1751,68666;2,80839
1749,6355;2,82534
1747,58435;2,83688
1745,53319;2,836
1743,48204;2,82979
1741,43088;2,82658
1739,37973;2,83545
1737,32857;2,85151
1735,27742;2,85411
1733,22626;2,84808
1731,17511;2,85137
1729,12395;2,8586
1727,07279;2,86197
1725,02164;2,86106
1722,97048;2,86199
1720,91933;2,86669
1718,86817;2,87089
1716,81702;2,87558
1714,76586;2,88029
1712,71471;2,88606
1710,66355;2,89373
1708,6124;2,8982
1706,56124;2,89952
1704,51009;2,90489
1702,45893;2,9139
1700,40778;2,92223
1698,35662;2,9263
1696,30546;2,92186
1694,25431;2,92132
1692,20315;2,92911
1690,152;2,94167
1688,10084;2,96654
1686,04969;3,00566
1683,99853;3,0333
1681,94738;3,01966
1679,89622;2,9959
1677,84507;2,99506
1675,79391;3,00478
1673,74276;2,99876
1671,6916;2,98203
1669,64045;2,98001
1667,58929;2,99407
1665,53813;2,99683
1663,48698;2,98478
1661,43582;2,97862
1659,38467;2,98522
1657,33351;3,00379
1655,28236;3,03357
1653,2312;3,04804
1651,18005;3,02604
1649,12889;3,0035
1647,07774;3,00008
1645,02658;3,00887
1642,97543;3,01379
1640,92427;3,012
1638,87312;3,01068
1636,82196;3,01023
1634,7708;3,00323
1632,71965;2,99041
1630,66849;2,98016
1628,61734;2,97859
1626,56618;2,98454
1624,51503;2,98636
1622,46387;2,97408
1620,41272;2,9563
1618,36156;2,94915
1616,31041;2,95346
1614,25925;2,95614
1612,2081;2,95413
1610,15694;2,94913
1608,10579;2,94054
1606,05463;2,93526
1604,00347;2,93673
1601,95232;2,93214
1599,90116;2,91581
1597,85001;2,90617
1595,79885;2,9117
1593,7477;2,91338
1591,69654;2,89869
1589,64539;2,87886
1587,59423;2,86515
1585,54308;2,85608
1583,49192;2,8483
1581,44077;2,84527
1579,38961;2,85069
1577,33846;2,85798
1575,2873;2,85622
1573,23614;2,84404
1571,18499;2,8253
1569,13383;2,80827
1567,08268;2,8053
1565,03152;2,81459
1562,98037;2,81934
1560,92921;2,80209
1558,87806;2,77069
1556,8269;2,75269
1554,77575;2,75017
1552,72459;2,75535
1550,67344;2,75758
1548,62228;2,75359
1546,57113;2,7514
1544,51997;2,75532
1542,46881;2,76693
1540,41766;2,78036
1538,3665;2,78587
1536,31535;2,78407
1534,26419;2,77975
1532,21304;2,78174
1530,16188;2,78827
1528,11073;2,79246
1526,05957;2,79792
1524,00842;2,80692
1521,95726;2,80954
1519,90611;2,80072
1517,85495;2,78383
1515,80379;2,76532
1513,75264;2,75661
1511,70148;2,76452
1509,65033;2,78043
1507,59917;2,78185
1505,54802;2,76832
1503,49686;2,76084
1501,44571;2,75682
1499,39455;2,7507
1497,3434;2,74301
1495,29224;2,73949
1493,24109;2,7454
1491,18993;2,75757
1489,13878;2,7698
1487,08762;2,77255
1485,03646;2,76624
1482,98531;2,75868
1480,93415;2,75327
1478,883;2,74989
1476,83184;2,74802
1474,78069;2,74755
1472,72953;2,74733
1470,67838;2,75115
1468,62722;2,75958
1466,57607;2,76708
1464,52491;2,77486
1462,47376;2,78793
1460,4226;2,79949
1458,37145;2,80017
1456,32029;2,79715
1454,26913;2,80531
1452,21798;2,82016
1450,16682;2,83293
1448,11567;2,83704
1446,06451;2,83188
1444,01336;2,82975
1441,9622;2,83885
1439,91105;2,84924
1437,85989;2,8455
1435,80874;2,8299
1433,75758;2,81563
1431,70643;2,80448
1429,65527;2,7956
1427,60412;2,78756
1425,55296;2,77457
1423,5018;2,75549
1421,45065;2,73567
1419,39949;2,71926
1417,34834;2,70674
1415,29718;2,69426
1413,24603;2,68394
1411,19487;2,68113
1409,14372;2,68353
1407,09256;2,68628
1405,04141;2,68812
1402,99025;2,68782
1400,9391;2,68606
1398,88794;2,68655
1396,83679;2,68561
1394,78563;2,67584
1392,73447;2,66371
1390,68332;2,65814
1388,63216;2,65547
1386,58101;2,65079
1384,52985;2,64852
1382,4787;2,65391
1380,42754;2,66639
1378,37639;2,68163
1376,32523;2,69465
1374,27408;2,69996
1372,22292;2,69881
1370,17177;2,69874
1368,12061;2,70211
1366,06946;2,70717
1364,0183;2,71404
1361,96714;2,7206
1359,91599;2,71905
1357,86483;2,71239
1355,81368;2,7133
1353,76252;2,72154
1351,71137;2,72747
1349,66021;2,72989
1347,60906;2,72965
1345,5579;2,72525
1343,50675;2,72375
1341,45559;2,73015
1339,40444;2,73858
1337,35328;2,74378
1335,30213;2,74302
1333,25097;2,73727
1331,19981;2,73259
1329,14866;2,73316
1327,0975;2,73818
1325,04635;2,7439
1322,99519;2,74849
1320,94404;2,75211
1318,89288;2,75316
1316,84173;2,75287
1314,79057;2,75555
1312,73942;2,7591
1310,68826;2,75772
1308,63711;2,75324
1306,58595;2,75246
1304,5348;2,75716
1302,48364;2,76219
1300,43248;2,76344
1298,38133;2,76273
1296,33017;2,76079
1294,27902;2,75777
1292,22786;2,7539
1290,17671;2,75057
1288,12555;2,75101
1286,0744;2,75519
1284,02324;2,7583
1281,97209;2,75679
1279,92093;2,75614
1277,86978;2,76359
1275,81862;2,776
1273,76747;2,78397
1271,71631;2,78188
1269,66515;2,77582
1267,614;2,77703
1265,56284;2,78805
1263,51169;2,79802
1261,46053;2,79659
1259,40938;2,79232
1257,35822;2,79431
1255,30707;2,79558
1253,25591;2,78692
1251,20476;2,77127
1249,1536;2,76176
1247,10245;2,7658
1245,05129;2,77656
1243,00013;2,78633
1240,94898;2,79332
1238,89782;2,79522
1236,84667;2,79192
1234,79551;2,78528
1232,74436;2,78297
1230,6932;2,79087
1228,64205;2,79765
1226,59089;2,79681
1224,53974;2,79948
1222,48858;2,81118
1220,43743;2,81798
1218,38627;2,81257
1216,33512;2,80672
1214,28396;2,80241
1212,2328;2,80128
1210,18165;2,81076
1208,13049;2,82291
1206,07934;2,82541
1204,02818;2,82349
1201,97703;2,82996
1199,92587;2,84071
1197,87472;2,84628
1195,82356;2,85287
1193,77241;2,86099
1191,72125;2,86067
1189,6701;2,8559
1187,61894;2,8536
1185,56779;2,85425
1183,51663;2,86079
1181,46547;2,87004
1179,41432;2,87461
1177,36316;2,88034
1175,31201;2,89408
1173,26085;2,90532
1171,2097;2,9081
1169,15854;2,91369
1167,10739;2,92902
1165,05623;2,94655
1163,00508;2,95343
1160,95392;2,9473
1158,90277;2,94095
1156,85161;2,94735
1154,80046;2,95503
1152,7493;2,94737
1150,69814;2,93408
1148,64699;2,93332
1146,59583;2,94431
1144,54468;2,95054
1142,49352;2,94416
1140,44237;2,93434
1138,39121;2,9217
1136,34006;2,90916
1134,2889;2,90738
1132,23775;2,9129
1130,18659;2,91766
1128,13544;2,92553
1126,08428;2,94297
1124,03313;2,95933
1121,98197;2,9545
1119,93081;2,93297
1117,87966;2,92566
1115,8285;2,93775
1113,77735;2,94878
1111,72619;2,94458
1109,67504;2,93289
1107,62388;2,93004
1105,57273;2,93514
1103,52157;2,94823
1101,47042;2,95311
1099,41926;2,92554
1097,36811;2,87636
1095,31695;2,83729
1093,2658;2,82991
1091,21464;2,83559
1089,16348;2,83106
1087,11233;2,83062
1085,06117;2,83166
1083,01002;2,81682
1080,95886;2,80145
1078,90771;2,79172
1076,85655;2,7763
1074,8054;2,76182
1072,75424;2,75454
1070,70309;2,7548
1068,65193;2,75788
1066,60078;2,75656
1064,54962;2,75062
1062,49847;2,73688
1060,44731;2,71937
1058,39615;2,70414
1056,345;2,69139
1054,29384;2,68539
1052,24269;2,67294
1050,19153;2,6438
1048,14038;2,61934
1046,08922;2,60638
1044,03807;2,59515
1041,98691;2,59064
1039,93576;2,59362
1037,8846;2,59501
1035,83345;2,58962
1033,78229;2,5802
1031,73114;2,57952
1029,67998;2,59251
1027,62882;2,6053
1025,57767;2,60489
1023,52651;2,59948
1021,47536;2,59944
1019,4242;2,60397
1017,37305;2,60992
1015,32189;2,61219
1013,27074;2,61092
1011,21958;2,61453
1009,16843;2,62452
1007,11727;2,63142
1005,06612;2,63165
1003,01496;2,63099
1000,96381;2,63623
998,91265;2,64496
996,86149;2,65535
994,81034;2,66979
992,75918;2,67863
990,70803;2,67987
988,65687;2,68349
986,60572;2,68684
984,55456;2,68777
982,50341;2,68725
980,45225;2,68025
978,4011;2,67622
976,34994;2,68376
974,29879;2,68915
972,24763;2,68771
970,19647;2,68811
968,14532;2,69167
966,09416;2,69817
964,04301;2,70136
961,99185;2,69521
959,9407;2,6889
957,88954;2,68975
955,83839;2,69609
953,78723;2,70461
951,73608;2,70965
949,68492;2,7081
947,63377;2,70654
945,58261;2,70879
943,53146;2,7137
941,4803;2,72443
939,42914;2,7381
937,37799;2,74217
935,32683;2,73633
933,27568;2,73872
931,22452;2,75154
929,17337;2,76156
927,12221;2,77254
925,07106;2,78868
923,0199;2,79541
920,96875;2,7885
918,91759;2,7849
916,86644;2,78927
914,81528;2,79333
912,76413;2,79713
910,71297;2,7963
908,66181;2,7923
906,61066;2,79501
904,5595;2,80446
902,50835;2,81336
900,45719;2,81779
898,40604;2,82684
896,35488;2,83873
894,30373;2,82831
892,25257;2,79243
890,20142;2,75179
888,15026;2,72434
886,09911;2,72094
884,04795;2,73543
881,9968;2,74931
879,94564;2,76086
877,89448;2,76491
875,84333;2,74221
873,79217;2,71282
871,74102;2,70842
869,68986;2,71756
867,63871;2,71954
865,58755;2,72498
863,5364;2,73294
861,48524;2,72841
859,43409;2,71825
857,38293;2,7199
855,33178;2,72707
853,28062;2,72813
851,22947;2,73705
849,17831;2,74773
847,12715;2,74594
845,076;2,74173
843,02484;2,74136
840,97369;2,73728
838,92253;2,72909
836,87138;2,7291
834,82022;2,73966
832,76907;2,73946
830,71791;2,73762
828,66676;2,74186
826,6156;2,73544
824,56445;2,72428
822,51329;2,71441
820,46214;2,70173
818,41098;2,70189
816,35982;2,71227
814,30867;2,70705
812,25751;2,68873
810,20636;2,68923
808,1552;2,71467
806,10405;2,74028
804,05289;2,74778
802,00174;2,74479
799,95058;2,75535
797,89943;2,76691
795,84827;2,75585
793,79712;2,74638
791,74596;2,75261
789,69481;2,76602
787,64365;2,77155
785,59249;2,77159
783,54134;2,77571
781,49018;2,77115
779,43903;2,76328
777,38787;2,76609
775,33672;2,78004
773,28556;2,7936
771,23441;2,78127
769,18325;2,74588
767,1321;2,7207
765,08094;2,73037
763,02979;2,76801
760,97863;2,8144
758,92748;2,85219
756,87632;2,84914
754,82516;2,80051
752,77401;2,73881
750,72285;2,70971
748,6717;2,71984
746,62054;2,7255
744,56939;2,71855
742,51823;2,72469
740,46708;2,73991
738,41592;2,74618
736,36477;2,73459
734,31361;2,72767
732,26246;2,74332
730,2113;2,7511
728,16015;2,74689
726,10899;2,75754
724,05783;2,76332
722,00668;2,75184
719,95552;2,74993
717,90437;2,77276
715,85321;2,7894
713,80206;2,77401
711,7509;2,7469
709,69975;2,74039
707,64859;2,74623
705,59744;2,74344
703,54628;2,74589
701,49513;2,76815
699,44397;2,78405
697,39281;2,76464
695,34166;2,73142
693,2905;2,71839
691,23935;2,72292
689,18819;2,72884
687,13704;2,72591
685,08588;2,71236
683,03473;2,70475
680,98357;2,71039
678,93242;2,72308
676,88126;2,73841
674,83011;2,75018
672,77895;2,75547
670,7278;2,74584
668,67664;2,72895
666,62548;2,72721
664,57433;2,72039
662,52317;2,70348
660,47202;2,69877
658,42086;2,7052
656,36971;2,72149
654,31855;2,74669
652,2674;2,74376
650,21624;2,7046
648,16509;2,68741
646,11393;2,70755
644,06278;2,72381
642,01162;2,73393
639,96047;2,7605
637,90931;2,78993
635,85815;2,78833
633,807;2,7541
631,75584;2,71395
629,70469;2,68422
627,65353;2,67077
625,60238;2,67231
623,55122;2,66715
621,50007;2,64329
619,44891;2,62707
617,39776;2,64189
615,3466;2,65698
613,29545;2,64839
611,24429;2,64992
609,19314;2,67081
607,14198;2,67926
605,09082;2,68288
603,03967;2,69715
600,98851;2,70491
598,93736;2,71602
596,8862;2,74904
594,83505;2,76783
592,78389;2,741
590,73274;2,70664
588,68158;2,70752
586,63043;2,72507
584,57927;2,71198
582,52812;2,67281
580,47696;2,65018
578,42581;2,66861
576,37465;2,70497
574,32349;2,71236
572,27234;2,71116
570,22118;2,71901
568,17003;2,69998
566,11887;2,66366
564,06772;2,64359
562,01656;2,66801
559,96541;2,72508
557,91425;2,75527
555,8631;2,72863
553,81194;2,68108
551,76079;2,64489
549,70963;2,63613
547,65848;2,66204
545,60732;2,70922
543,55616;2,72397
541,50501;2,69587
539,45385;2,6772
537,4027;2,68256
535,35154;2,69872
533,30039;2,72307
531,24923;2,72679
529,19808;2,69054
527,14692;2,64813
525,09577;2,60636
523,04461;2,57775
520,99346;2,58618
518,9423;2,60291
516,89115;2,60291
514,83999;2,60221
512,78883;2,59992
510,73768;2,59607
508,68652;2,59941
506,63537;2,60076
504,58421;2,59464
502,53306;2,57622
500,4819;2,54894
498,43075;2,53936
496,37959;2,55679
494,32844;2,57316
492,27728;2,57107
490,22613;2,56635
488,17497;2,59487
486,12382;2,67632
484,07266;2,74777
482,0215;2,72146
479,97035;2,63363
477,91919;2,57012
475,86804;2,56927
473,81688;2,60311
471,76573;2,62976
469,71457;2,66563
467,66342;2,71563
465,61226;2,72969
463,56111;2,69569
461,50995;2,63526
459,4588;2,56366
457,40764;2,52826
455,35649;2,53632
453,30533;2,53695
451,25417;2,52824
449,20302;2,52582
447,15186;2,52536
445,10071;2,57252
443,04955;2,69398
440,9984;2,7717
438,94724;2,71422
436,89609;2,65688
434,84493;2,66981
432,79378;2,6978
430,74262;2,70467
428,69147;2,68602
426,64031;2,63828
424,58916;2,56163
422,538;2,52067
420,48684;2,49344
418,43569;2,43999
416,38453;2,44904
414,33338;2,51108
412,28222;2,54261
410,23107;2,51081
408,17991;2,4619
406,12876;2,43419
404,0776;2,45441
402,02645;2,51364
399,97529;2,54221
