3997,70175;1,89336
3995,6506;1,89322
3993,59944;1,89196
3991,54829;1,88952
3989,49713;1,88913
3987,44598;1,89114
3985,39482;1,89269
3983,34367;1,89386
3981,29251;1,89655
3979,24136;1,90079
3977,1902;1,90443
3975,13905;1,90588
3973,08789;1,9066
3971,03673;1,90825
3968,98558;1,90969
3966,93442;1,90954
3964,88327;1,90803
3962,83211;1,90839
3960,78096;1,91327
3958,7298;1,91867
3956,67865;1,92114
3954,62749;1,92268
3952,57634;1,92418
3950,52518;1,92456
3948,47403;1,92545
3946,42287;1,92919
3944,37172;1,93202
3942,32056;1,93066
3940,2694;1,92727
3938,21825;1,9247
3936,16709;1,92409
3934,11594;1,92251
3932,06478;1,91858
3930,01363;1,91427
3927,96247;1,91082
3925,91132;1,90781
3923,86016;1,90443
3921,80901;1,8982
3919,75785;1,88948
3917,7067;1,88261
3915,65554;1,87892
3913,60439;1,87547
3911,55323;1,87014
3909,50207;1,86525
3907,45092;1,86152
3905,39976;1,85789
3903,34861;1,8563
3901,29745;1,85516
3899,2463;1,85198
3897,19514;1,85112
3895,14399;1,85114
3893,09283;1,84784
3891,04168;1,84525
3888,99052;1,84749
3886,93937;1,84801
3884,88821;1,8484
3882,83706;1,84849
3880,7859;1,84447
3878,73474;1,84386
3876,68359;1,8447
3874,63243;1,84458
3872,58128;1,84595
3870,53012;1,84302
3868,47897;1,84149
3866,42781;1,84156
3864,37666;1,83875
3862,3255;1,83619
3860,27435;1,83562
3858,22319;1,83688
3856,17204;1,83311
3854,12088;1,82426
3852,06973;1,82564
3850,01857;1,83141
3847,96741;1,83098
3845,91626;1,82819
3843,8651;1,82846
3841,81395;1,83294
3839,76279;1,83592
3837,71164;1,83579
3835,66048;1,83521
3833,60933;1,83234
3831,55817;1,82874
3829,50702;1,82847
3827,45586;1,83012
3825,40471;1,83442
3823,35355;1,83643
3821,3024;1,8347
3819,25124;1,83721
3817,20008;1,8349
3815,14893;1,8298
3813,09777;1,82889
3811,04662;1,8281
3808,99546;1,82625
3806,94431;1,82742
3804,89315;1,83487
3802,842;1,83635
3800,79084;1,83581
3798,73969;1,83993
3796,68853;1,83907
3794,63738;1,83604
3792,58622;1,83365
3790,53506;1,83235
3788,48391;1,8335
3786,43275;1,83517
3784,3816;1,83625
3782,33044;1,83727
3780,27929;1,83703
3778,22813;1,8376
3776,17698;1,83842
3774,12582;1,83868
3772,07467;1,83943
3770,02351;1,84203
3767,97236;1,84777
3765,9212;1,85162
3763,87005;1,85498
3761,81889;1,85814
3759,76773;1,86022
3757,71658;1,86293
3755,66542;1,8649
3753,61427;1,86531
3751,56311;1,86846
3749,51196;1,87826
3747,4608;1,88494
3745,40965;1,87879
3743,35849;1,87756
3741,30734;1,88647
3739,25618;1,8917
3737,20503;1,89324
3735,15387;1,89475
3733,10272;1,89532
3731,05156;1,89769
3729,0004;1,90418
3726,94925;1,91029
3724,89809;1,91511
3722,84694;1,91722
3720,79578;1,91919
3718,74463;1,92428
3716,69347;1,93182
3714,64232;1,93792
3712,59116;1,94181
3710,54001;1,949
3708,48885;1,95983
3706,4377;1,97192
3704,38654;1,986
3702,33539;2,00501
3700,28423;2,03236
3698,23307;2,06298
3696,18192;2,09133
3694,13076;2,11523
3692,07961;2,12769
3690,02845;2,12339
3687,9773;2,11142
3685,92614;2,10592
3683,87499;2,10563
3681,82383;2,10911
3679,77268;2,11674
3677,72152;2,1244
3675,67037;2,13274
3673,61921;2,1494
3671,56806;2,16263
3669,5169;2,17361
3667,46574;2,18898
3665,41459;2,20206
3663,36343;2,21526
3661,31228;2,23153
3659,26112;2,2487
3657,20997;2,26531
3655,15881;2,28547
3653,10766;2,30612
3651,0565;2,32279
3649,00535;2,34319
3646,95419;2,36607
3644,90304;2,38357
3642,85188;2,39379
3640,80073;2,39997
3638,74957;2,40284
3636,69841;2,40385
3634,64726;2,40917
3632,5961;2,42351
3630,54495;2,44252
3628,49379;2,46398
3626,44264;2,48255
3624,39148;2,49307
3622,34033;2,5004
3620,28917;2,50376
3618,23802;2,51151
3616,18686;2,53032
3614,13571;2,5434
3612,08455;2,54108
3610,0334;2,53122
3607,98224;2,5249
3605,93108;2,53029
3603,87993;2,54146
3601,82877;2,55031
3599,77762;2,55997
3597,72646;2,57109
3595,67531;2,57913
3593,62415;2,58817
3591,573;2,60178
3589,52184;2,61293
3587,47069;2,61698
3585,41953;2,61672
3583,36838;2,61174
3581,31722;2,60711
3579,26607;2,6125
3577,21491;2,62178
3575,16375;2,62368
3573,1126;2,624
3571,06144;2,63026
3569,01029;2,64165
3566,95913;2,65701
3564,90798;2,66526
3562,85682;2,66194
3560,80567;2,66126
3558,75451;2,66718
3556,70336;2,67216
3554,6522;2,67622
3552,60105;2,68605
3550,54989;2,70265
3548,49874;2,71211
3546,44758;2,70253
3544,39642;2,68261
3542,34527;2,66982
3540,29411;2,66888
3538,24296;2,67433
3536,1918;2,68422
3534,14065;2,70072
3532,08949;2,71524
3530,03834;2,71597
3527,98718;2,71008
3525,93603;2,70703
3523,88487;2,70379
3521,83372;2,70269
3519,78256;2,70592
3517,73141;2,70784
3515,68025;2,70454
3513,62909;2,69944
3511,57794;2,69922
3509,52678;2,70486
3507,47563;2,71472
3505,42447;2,72091
3503,37332;2,71729
3501,32216;2,71463
3499,27101;2,71411
3497,21985;2,7101
3495,1687;2,71256
3493,11754;2,72323
3491,06639;2,72908
3489,01523;2,7207
3486,96407;2,70656
3484,91292;2,70791
3482,86176;2,724
3480,81061;2,73394
3478,75945;2,73158
3476,7083;2,72093
3474,65714;2,7097
3472,60599;2,71158
3470,55483;2,72677
3468,50368;2,74626
3466,45252;2,75912
3464,40137;2,75265
3462,35021;2,73405
3460,29906;2,72264
3458,2479;2,7238
3456,19674;2,73341
3454,14559;2,74106
3452,09443;2,73671
3450,04328;2,72562
3447,99212;2,71575
3445,94097;2,70909
3443,88981;2,70953
3441,83866;2,71596
3439,7875;2,71596
3437,73635;2,70654
3435,68519;2,69952
3433,63404;2,70163
3431,58288;2,70871
3429,53173;2,71311
3427,48057;2,71701
3425,42941;2,71687
3423,37826;2,71026
3421,3271;2,70834
3419,27595;2,71167
3417,22479;2,71372
3415,17364;2,71148
3413,12248;2,70402
3411,07133;2,699
3409,02017;2,70424
3406,96902;2,71499
3404,91786;2,71997
3402,86671;2,72058
3400,81555;2,7226
3398,7644;2,72365
3396,71324;2,726
3394,66208;2,72967
3392,61093;2,72898
3390,55977;2,72534
3388,50862;2,72051
3386,45746;2,71669
3384,40631;2,71736
3382,35515;2,71895
3380,304;2,71874
3378,25284;2,72086
3376,20169;2,73032
3374,15053;2,73699
3372,09938;2,72572
3370,04822;2,70675
3367,99707;2,69809
3365,94591;2,70385
3363,89475;2,71393
3361,8436;2,71791
3359,79244;2,71841
3357,74129;2,72382
3355,69013;2,7298
3353,63898;2,71768
3351,58782;2,69971
3349,53667;2,69804
3347,48551;2,70094
3345,43436;2,70119
3343,3832;2,71462
3341,33205;2,73862
3339,28089;2,74725
3337,22974;2,73726
3335,17858;2,73074
3333,12742;2,73064
3331,07627;2,72586
3329,02511;2,72086
3326,97396;2,7185
3324,9228;2,71257
3322,87165;2,70868
3320,82049;2,71045
3318,76934;2,71091
3316,71818;2,71104
3314,66703;2,7113
3312,61587;2,70211
3310,56472;2,69044
3308,51356;2,69425
3306,46241;2,70948
3304,41125;2,7184
3302,36009;2,71859
3300,30894;2,71921
3298,25778;2,71832
3296,20663;2,71242
3294,15547;2,70773
3292,10432;2,70777
3290,05316;2,70849
3288,00201;2,70568
3285,95085;2,70155
3283,8997;2,69598
3281,84854;2,68747
3279,79739;2,67989
3277,74623;2,67877
3275,69508;2,68735
3273,64392;2,69882
3271,59276;2,70179
3269,54161;2,69321
3267,49045;2,68534
3265,4393;2,68803
3263,38814;2,69107
3261,33699;2,68342
3259,28583;2,66979
3257,23468;2,66331
3255,18352;2,66604
3253,13237;2,66575
3251,08121;2,66387
3249,03006;2,66947
3246,9789;2,67161
3244,92775;2,666
3242,87659;2,66703
3240,82543;2,67232
3238,77428;2,67744
3236,72312;2,68948
3234,67197;2,7009
3232,62081;2,69544
3230,56966;2,67824
3228,5185;2,66223
3226,46735;2,65255
3224,41619;2,64938
3222,36504;2,65074
3220,31388;2,65623
3218,26273;2,66156
3216,21157;2,66283
3214,16041;2,65915
3212,10926;2,65195
3210,0581;2,6499
3208,00695;2,65369
3205,95579;2,6569
3203,90464;2,66026
3201,85348;2,66438
3199,80233;2,66995
3197,75117;2,67371
3195,70002;2,66944
3193,64886;2,6614
3191,59771;2,65749
3189,54655;2,66315
3187,4954;2,67229
3185,44424;2,66395
3183,39308;2,64163
3181,34193;2,6308
3179,29077;2,63405
3177,23962;2,6411
3175,18846;2,64782
3173,13731;2,64824
3171,08615;2,64446
3169,035;2,64825
3166,98384;2,66089
3164,93269;2,66875
3162,88153;2,66192
3160,83038;2,65026
3158,77922;2,64721
3156,72807;2,64898
3154,67691;2,64518
3152,62575;2,64127
3150,5746;2,6443
3148,52344;2,64667
3146,47229;2,63831
3144,42113;2,62484
3142,36998;2,62437
3140,31882;2,63902
3138,26767;2,64897
3136,21651;2,64525
3134,16536;2,63656
3132,1142;2,62912
3130,06305;2,62274
3128,01189;2,61903
3125,96074;2,61917
3123,90958;2,61848
3121,85842;2,61688
3119,80727;2,61672
3117,75611;2,6149
3115,70496;2,61421
3113,6538;2,6217
3111,60265;2,63309
3109,55149;2,637
3107,50034;2,62964
3105,44918;2,62214
3103,39803;2,62601
3101,34687;2,63142
3099,29572;2,62755
3097,24456;2,62432
3095,19341;2,62967
3093,14225;2,63311
3091,09109;2,6243
3089,03994;2,61454
3086,98878;2,61521
3084,93763;2,61666
3082,88647;2,614
3080,83532;2,61471
3078,78416;2,61561
3076,73301;2,61127
3074,68185;2,60832
3072,6307;2,61491
3070,57954;2,62292
3068,52839;2,61806
3066,47723;2,60636
3064,42608;2,60234
3062,37492;2,60859
3060,32376;2,61793
3058,27261;2,62204
3056,22145;2,61948
3054,1703;2,61644
3052,11914;2,61722
3050,06799;2,61958
3048,01683;2,61943
3045,96568;2,615
3043,91452;2,60843
3041,86337;2,60322
3039,81221;2,60144
3037,76106;2,60594
3035,7099;2,61335
3033,65875;2,61885
3031,60759;2,62707
3029,55643;2,6334
3027,50528;2,62893
3025,45412;2,62205
3023,40297;2,62271
3021,35181;2,62653
3019,30066;2,62519
3017,2495;2,62112
3015,19835;2,62308
3013,14719;2,63012
3011,09604;2,63261
3009,04488;2,63023
3006,99373;2,63226
3004,94257;2,63994
3002,89142;2,64416
3000,84026;2,64215
2998,7891;2,63874
2996,73795;2,63764
2994,68679;2,64392
2992,63564;2,65514
2990,58448;2,66001
2988,53333;2,65393
2986,48217;2,64854
2984,43102;2,65425
2982,37986;2,66185
2980,32871;2,66262
2978,27755;2,66197
2976,2264;2,66356
2974,17524;2,66973
2972,12409;2,68291
2970,07293;2,69599
2968,02177;2,70685
2965,97062;2,72047
2963,91946;2,72715
2961,86831;2,72048
2959,81715;2,70981
2957,766;2,69869
2955,71484;2,69028
2953,66369;2,68572
2951,61253;2,68492
2949,56138;2,69204
2947,51022;2,70358
2945,45907;2,70935
2943,40791;2,707
2941,35675;2,70719
2939,3056;2,71875
2937,25444;2,73132
2935,20329;2,72686
2933,15213;2,7113
2931,10098;2,70198
2929,04982;2,69503
2926,99867;2,68265
2924,94751;2,6712
2922,89636;2,66293
2920,8452;2,65156
2918,79405;2,63968
2916,74289;2,63515
2914,69174;2,63402
2912,64058;2,63383
2910,58942;2,6389
2908,53827;2,64364
2906,48711;2,63972
2904,43596;2,63268
2902,3848;2,63321
2900,33365;2,64117
2898,28249;2,64866
2896,23134;2,64869
2894,18018;2,64565
2892,12903;2,64798
2890,07787;2,6537
2888,02672;2,65548
2885,97556;2,64599
2883,92441;2,63213
2881,87325;2,62861
2879,82209;2,63611
2877,77094;2,64615
2875,71978;2,65194
2873,66863;2,65756
2871,61747;2,66798
2869,56632;2,67438
2867,51516;2,67261
2865,46401;2,67164
2863,41285;2,67539
2861,3617;2,67484
2859,31054;2,66643
2857,25939;2,66033
2855,20823;2,65767
2853,15708;2,64601
2851,10592;2,62893
2849,05476;2,62311
2847,00361;2,62711
2844,95245;2,62785
2842,9013;2,62373
2840,85014;2,61455
2838,79899;2,59931
2836,74783;2,58406
2834,69668;2,57568
2832,64552;2,57554
2830,59437;2,57479
2828,54321;2,56811
2826,49206;2,56023
2824,4409;2,55076
2822,38975;2,53974
2820,33859;2,53283
2818,28743;2,53009
2816,23628;2,52475
2814,18512;2,51628
2812,13397;2,5113
2810,08281;2,51
2808,03166;2,50771
2805,9805;2,50455
2803,92935;2,50421
2801,87819;2,50513
2799,82704;2,50043
2797,77588;2,49205
2795,72473;2,48555
2793,67357;2,479
2791,62242;2,47089
2789,57126;2,46419
2787,5201;2,46
2785,46895;2,45539
2783,41779;2,45211
2781,36664;2,45206
2779,31548;2,45311
2777,26433;2,45276
2775,21317;2,44794
2773,16202;2,43991
2771,11086;2,43251
2769,05971;2,42811
2767,00855;2,42463
2764,9574;2,41944
2762,90624;2,41661
2760,85509;2,41954
2758,80393;2,42358
2756,75277;2,42423
2754,70162;2,4216
2752,65046;2,41649
2750,59931;2,41135
2748,54815;2,40595
2746,497;2,39994
2744,44584;2,39596
2742,39469;2,39476
2740,34353;2,39712
2738,29238;2,40026
2736,24122;2,40033
2734,19007;2,40117
2732,13891;2,40408
2730,08776;2,40524
2728,0366;2,40465
2725,98544;2,40391
2723,93429;2,40158
2721,88313;2,39519
2719,83198;2,38731
2717,78082;2,38281
2715,72967;2,38266
2713,67851;2,38474
2711,62736;2,38733
2709,5762;2,38946
2707,52505;2,38867
2705,47389;2,38391
2703,42274;2,37763
2701,37158;2,37256
2699,32043;2,37032
2697,26927;2,37225
2695,21811;2,3755
2693,16696;2,37449
2691,1158;2,37119
2689,06465;2,37208
2687,01349;2,37553
2684,96234;2,37644
2682,91118;2,37569
2680,86003;2,37692
2678,80887;2,37923
2676,75772;2,37898
2674,70656;2,37707
2672,65541;2,37428
2670,60425;2,37198
2668,55309;2,37155
2666,50194;2,37112
2664,45078;2,37074
2662,39963;2,36999
2660,34847;2,36817
2658,29732;2,36659
2656,24616;2,36749
2654,19501;2,37192
2652,14385;2,37511
2650,0927;2,3725
2648,04154;2,36824
2645,99039;2,36899
2643,93923;2,3752
2641,88808;2,38169
2639,83692;2,38514
2637,78576;2,38861
2635,73461;2,3952
2633,68345;2,40356
2631,6323;2,4118
2629,58114;2,4171
2627,52999;2,41719
2625,47883;2,42013
2623,42768;2,4328
2621,37652;2,44508
2619,32537;2,44999
2617,27421;2,45436
2615,22306;2,46064
2613,1719;2,46567
2611,12075;2,46838
2609,06959;2,47132
2607,01843;2,4738
2604,96728;2,47317
2602,91612;2,47502
2600,86497;2,48177
2598,81381;2,48417
2596,76266;2,47984
2594,7115;2,478
2592,66035;2,47899
2590,60919;2,47688
2588,55804;2,47627
2586,50688;2,4815
2584,45573;2,48823
2582,40457;2,49142
2580,35342;2,48955
2578,30226;2,4841
2576,2511;2,48153
2574,19995;2,48522
2572,14879;2,48936
2570,09764;2,49154
2568,04648;2,49232
2565,99533;2,49132
2563,94417;2,49312
2561,89302;2,50091
2559,84186;2,50828
2557,79071;2,50899
2555,73955;2,50594
2553,6884;2,50271
2551,63724;2,50419
2549,58609;2,51209
2547,53493;2,51808
2545,48377;2,51878
2543,43262;2,51952
2541,38146;2,52336
2539,33031;2,52826
2537,27915;2,53182
2535,228;2,53455
2533,17684;2,53632
2531,12569;2,53665
2529,07453;2,5409
2527,02338;2,54919
2524,97222;2,55568
2522,92107;2,56288
2520,86991;2,56989
2518,81876;2,57088
2516,7676;2,56725
2514,71644;2,56414
2512,66529;2,56098
2510,61413;2,55534
2508,56298;2,55161
2506,51182;2,54865
2504,46067;2,54221
2502,40951;2,53534
2500,35836;2,53105
2498,3072;2,52579
2496,25605;2,51713
2494,20489;2,50813
2492,15374;2,49686
2490,10258;2,48443
2488,05143;2,47632
2486,00027;2,46753
2483,94911;2,45448
2481,89796;2,44425
2479,8468;2,43947
2477,79565;2,43432
2475,74449;2,42576
2473,69334;2,4157
2471,64218;2,40592
2469,59103;2,39787
2467,53987;2,3917
2465,48872;2,38472
2463,43756;2,37564
2461,38641;2,36689
2459,33525;2,36068
2457,2841;2,35831
2455,23294;2,35838
2453,18178;2,35792
2451,13063;2,35686
2449,07947;2,35391
2447,02832;2,34735
2444,97716;2,34115
2442,92601;2,34046
2440,87485;2,34276
2438,8237;2,34184
2436,77254;2,33796
2434,72139;2,33356
2432,67023;2,32911
2430,61908;2,32791
2428,56792;2,32998
2426,51677;2,3284
2424,46561;2,32324
2422,41445;2,32018
2420,3633;2,31847
2418,31214;2,31554
2416,26099;2,31087
2414,20983;2,30543
2412,15868;2,30317
2410,10752;2,30268
2408,05637;2,29835
2406,00521;2,29427
2403,95406;2,29467
2401,9029;2,29414
2399,85175;2,28994
2397,80059;2,28531
2395,74944;2,28216
2393,69828;2,27953
2391,64712;2,27626
2389,59597;2,27207
2387,54481;2,2678
2385,49366;2,26601
2383,4425;2,26722
2381,39135;2,26785
2379,34019;2,26574
2377,28904;2,26206
2375,23788;2,25834
2373,18673;2,2578
2371,13557;2,26389
2369,08442;2,27345
2367,03326;2,277
2364,9821;2,27317
2362,93095;2,27239
2360,87979;2,27478
2358,82864;2,27032
2356,77748;2,2617
2354,72633;2,25803
2352,67517;2,26035
2350,62402;2,26365
2348,57286;2,26254
2346,52171;2,25674
2344,47055;2,25362
2342,4194;2,25881
2340,36824;2,2678
2338,31709;2,27345
2336,26593;2,27185
2334,21477;2,2651
2332,16362;2,25946
2330,11246;2,25721
2328,06131;2,25422
2326,01015;2,25027
2323,959;2,25092
2321,90784;2,25401
2319,85669;2,25427
2317,80553;2,25423
2315,75438;2,25498
2313,70322;2,25419
2311,65207;2,25381
2309,60091;2,25494
2307,54976;2,25417
2305,4986;2,25081
2303,44744;2,24807
2301,39629;2,24699
2299,34513;2,24648
2297,29398;2,24579
2295,24282;2,2444
2293,19167;2,24284
2291,14051;2,24203
2289,08936;2,24207
2287,0382;2,24212
2284,98705;2,24088
2282,93589;2,23881
2280,88474;2,23791
2278,83358;2,23922
2276,78243;2,24057
2274,73127;2,24001
2272,68011;2,24018
2270,62896;2,24207
2268,5778;2,24321
2266,52665;2,24334
2264,47549;2,24405
2262,42434;2,24608
2260,37318;2,24847
2258,32203;2,25059
2256,27087;2,25287
2254,21972;2,25472
2252,16856;2,25572
2250,11741;2,25643
2248,06625;2,25754
2246,0151;2,25904
2243,96394;2,26057
2241,91278;2,26385
2239,86163;2,26941
2237,81047;2,27331
2235,75932;2,2748
2233,70816;2,27612
2231,65701;2,27813
2229,60585;2,28254
2227,5547;2,28828
2225,50354;2,29125
2223,45239;2,2909
2221,40123;2,29111
2219,35008;2,29293
2217,29892;2,29306
2215,24777;2,2912
2213,19661;2,29048
2211,14545;2,29276
2209,0943;2,29682
2207,04314;2,29933
2204,99199;2,29998
2202,94083;2,30156
2200,88968;2,3037
2198,83852;2,30325
2196,78737;2,30034
2194,73621;2,30059
2192,68506;2,3055
2190,6339;2,30919
2188,58275;2,31036
2186,53159;2,31141
2184,48044;2,31146
2182,42928;2,31073
2180,37812;2,31261
2178,32697;2,31768
2176,27581;2,32182
2174,22466;2,32295
2172,1735;2,3245
2170,12235;2,32785
2168,07119;2,33117
2166,02004;2,33629
2163,96888;2,34351
2161,91773;2,34869
2159,86657;2,3508
2157,81542;2,35449
2155,76426;2,36365
2153,71311;2,3738
2151,66195;2,37747
2149,61079;2,37591
2147,55964;2,37647
2145,50848;2,38042
2143,45733;2,38398
2141,40617;2,38619
2139,35502;2,3892
2137,30386;2,39052
2135,25271;2,38693
2133,20155;2,38321
2131,1504;2,3805
2129,09924;2,3756
2127,04809;2,36796
2124,99693;2,35859
2122,94578;2,35011
2120,89462;2,34331
2118,84346;2,3372
2116,79231;2,33179
2114,74115;2,3285
2112,69;2,32645
2110,63884;2,32272
2108,58769;2,31797
2106,53653;2,31521
2104,48538;2,31436
2102,43422;2,31332
2100,38307;2,31255
2098,33191;2,31388
2096,28076;2,31724
2094,2296;2,32019
2092,17844;2,3205
2090,12729;2,32103
2088,07613;2,32526
2086,02498;2,32955
2083,97382;2,33194
2081,92267;2,33436
2079,87151;2,33574
2077,82036;2,33534
2075,7692;2,33463
2073,71805;2,3351
2071,66689;2,33571
2069,61574;2,33518
2067,56458;2,33476
2065,51343;2,33269
2063,46227;2,32815
2061,41111;2,32499
2059,35996;2,32291
2057,3088;2,31876
2055,25765;2,31444
2053,20649;2,3137
2051,15534;2,3166
2049,10418;2,31939
2047,05303;2,31934
2045,00187;2,31696
2042,95072;2,31419
2040,89956;2,31374
2038,84841;2,31555
2036,79725;2,31637
2034,7461;2,31659
2032,69494;2,31887
2030,64378;2,32201
2028,59263;2,32274
2026,54147;2,32147
2024,49032;2,32148
2022,43916;2,32254
2020,38801;2,32176
2018,33685;2,31851
2016,2857;2,31539
2014,23454;2,31486
2012,18339;2,31669
2010,13223;2,32001
2008,08108;2,32353
2006,02992;2,3256
2003,97877;2,32589
2001,92761;2,32522
1999,87645;2,32453
1997,8253;2,32441
1995,77414;2,3251
1993,72299;2,32683
1991,67183;2,32974
1989,62068;2,33224
1987,56952;2,33237
1985,51837;2,33159
1983,46721;2,33227
1981,41606;2,33502
1979,3649;2,33774
1977,31375;2,34
1975,26259;2,34164
1973,21144;2,34255
1971,16028;2,3457
1969,10912;2,35125
1967,05797;2,35655
1965,00681;2,36241
1962,95566;2,37018
1960,9045;2,37664
1958,85335;2,37561
1956,80219;2,36856
1954,75104;2,36198
1952,69988;2,35829
1950,64873;2,35817
1948,59757;2,36158
1946,54642;2,36525
1944,49526;2,36524
1942,44411;2,36382
1940,39295;2,36664
1938,34179;2,37052
1936,29064;2,37267
1934,23948;2,37409
1932,18833;2,37561
1930,13717;2,37799
1928,08602;2,3808
1926,03486;2,38217
1923,98371;2,38082
1921,93255;2,38013
1919,8814;2,38135
1917,83024;2,38352
1915,77909;2,3869
1913,72793;2,3881
1911,67678;2,38792
1909,62562;2,38885
1907,57446;2,39276
1905,52331;2,39702
1903,47215;2,39729
1901,421;2,39717
1899,36984;2,40297
1897,31869;2,41054
1895,26753;2,413
1893,21638;2,41382
1891,16522;2,4159
1889,11407;2,41969
1887,06291;2,42425
1885,01176;2,42556
1882,9606;2,42644
1880,90945;2,42905
1878,85829;2,43221
1876,80713;2,43451
1874,75598;2,43603
1872,70482;2,44098
1870,65367;2,44957
1868,60251;2,45968
1866,55136;2,46889
1864,5002;2,47205
1862,44905;2,47125
1860,39789;2,47263
1858,34674;2,47726
1856,29558;2,48255
1854,24443;2,48851
1852,19327;2,49705
1850,14212;2,508
1848,09096;2,51954
1846,0398;2,52747
1843,98865;2,53039
1841,93749;2,53278
1839,88634;2,53527
1837,83518;2,54142
1835,78403;2,5518
1833,73287;2,55967
1831,68172;2,56162
1829,63056;2,56561
1827,57941;2,57742
1825,52825;2,58736
1823,4771;2,59426
1821,42594;2,60086
1819,37478;2,60613
1817,32363;2,61293
1815,27247;2,624
1813,22132;2,63469
1811,17016;2,64301
1809,11901;2,65314
1807,06785;2,66365
1805,0167;2,67311
1802,96554;2,68574
1800,91439;2,70301
1798,86323;2,71772
1796,81208;2,72446
1794,76092;2,72638
1792,70977;2,72453
1790,65861;2,71913
1788,60745;2,71382
1786,5563;2,71079
1784,50514;2,7094
1782,45399;2,7069
1780,40283;2,70346
1778,35168;2,70391
1776,30052;2,70828
1774,24937;2,71322
1772,19821;2,7195
1770,14706;2,73037
1768,0959;2,74207
1766,04475;2,75392
1763,99359;2,76402
1761,94244;2,77776
1759,89128;2,79841
1757,84012;2,81322
1755,78897;2,82396
1753,73781;2,83341
1751,68666;2,8363
1749,6355;2,83677
1747,58435;2,82831
1745,53319;2,80771
1743,48204;2,78935
1741,43088;2,77992
1739,37973;2,77425
1737,32857;2,76911
1735,27742;2,7625
1733,22626;2,7603
1731,17511;2,75304
1729,12395;2,7365
1727,07279;2,72754
1725,02164;2,72982
1722,97048;2,73859
1720,91933;2,74612
1718,86817;2,74426
1716,81702;2,73793
1714,76586;2,73637
1712,71471;2,74316
1710,66355;2,75448
1708,6124;2,76689
1706,56124;2,78216
1704,51009;2,79936
1702,45893;2,80938
1700,40778;2,81588
1698,35662;2,81932
1696,30546;2,79926
1694,25431;2,78158
1692,20315;2,78178
1690,152;2,79142
1688,10084;2,80982
1686,04969;2,82235
1683,99853;2,82261
1681,94738;2,82175
1679,89622;2,81639
1677,84507;2,81144
1675,79391;2,8107
1673,74276;2,81309
1671,6916;2,80947
1669,64045;2,80169
1667,58929;2,7992
1665,53813;2,79015
1663,48698;2,77345
1661,43582;2,76824
1659,38467;2,77645
1657,33351;2,78535
1655,28236;2,7798
1653,2312;2,7574
1651,18005;2,74953
1649,12889;2,74943
1647,07774;2,73949
1645,02658;2,73353
1642,97543;2,73245
1640,92427;2,72438
1638,87312;2,70999
1636,82196;2,69492
1634,7708;2,69005
1632,71965;2,69382
1630,66849;2,69329
1628,61734;2,69061
1626,56618;2,68807
1624,51503;2,67747
1622,46387;2,66532
1620,41272;2,66398
1618,36156;2,66811
1616,31041;2,67828
1614,25925;2,68975
1612,2081;2,68819
1610,15694;2,67862
1608,10579;2,6757
1606,05463;2,68371
1604,00347;2,69073
1601,95232;2,68685
1599,90116;2,67719
1597,85001;2,67196
1595,79885;2,67569
1593,7477;2,68477
1591,69654;2,69326
1589,64539;2,69881
1587,59423;2,69997
1585,54308;2,69667
1583,49192;2,69243
1581,44077;2,69215
1579,38961;2,69743
1577,33846;2,70132
1575,2873;2,7017
1573,23614;2,70094
1571,18499;2,69472
1569,13383;2,69038
1567,08268;2,69453
1565,03152;2,70219
1562,98037;2,71094
1560,92921;2,70446
1558,87806;2,67912
1556,8269;2,66564
1554,77575;2,6631
1552,72459;2,66296
1550,67344;2,66058
1548,62228;2,65799
1546,57113;2,66229
1544,51997;2,67441
1542,46881;2,68151
1540,41766;2,6668
1538,3665;2,65112
1536,31535;2,64348
1534,26419;2,63108
1532,21304;2,62594
1530,16188;2,631
1528,11073;2,63517
1526,05957;2,64075
1524,00842;2,64471
1521,95726;2,63533
1519,90611;2,62003
1517,85495;2,60593
1515,80379;2,59686
1513,75264;2,59483
1511,70148;2,59722
1509,65033;2,60308
1507,59917;2,60263
1505,54802;2,59767
1503,49686;2,59653
1501,44571;2,59457
1499,39455;2,59087
1497,3434;2,58732
1495,29224;2,58857
1493,24109;2,59174
1491,18993;2,59049
1489,13878;2,59139
1487,08762;2,59383
1485,03646;2,59134
1482,98531;2,58798
1480,93415;2,59037
1478,883;2,59825
1476,83184;2,60823
1474,78069;2,62017
1472,72953;2,63017
1470,67838;2,63775
1468,62722;2,64035
1466,57607;2,6369
1464,52491;2,63729
1462,47376;2,6478
1460,4226;2,65679
1458,37145;2,65109
1456,32029;2,63825
1454,26913;2,63546
1452,21798;2,63659
1450,16682;2,63699
1448,11567;2,6386
1446,06451;2,64319
1444,01336;2,64597
1441,9622;2,64276
1439,91105;2,63587
1437,85989;2,62571
1435,80874;2,61789
1433,75758;2,61546
1431,70643;2,60951
1429,65527;2,59997
1427,60412;2,59241
1425,55296;2,58431
1423,5018;2,57339
1421,45065;2,56085
1419,39949;2,55149
1417,34834;2,55272
1415,29718;2,55432
1413,24603;2,5495
1411,19487;2,54484
1409,14372;2,54522
1407,09256;2,54694
1405,04141;2,54859
1402,99025;2,55449
1400,9391;2,56013
1398,88794;2,56213
1396,83679;2,56101
1394,78563;2,55665
1392,73447;2,55656
1390,68332;2,55939
1388,63216;2,55817
1386,58101;2,55259
1384,52985;2,5452
1382,4787;2,54107
1380,42754;2,54627
1378,37639;2,55777
1376,32523;2,56537
1374,27408;2,5643
1372,22292;2,5597
1370,17177;2,55499
1368,12061;2,55322
1366,06946;2,55568
1364,0183;2,55743
1361,96714;2,55884
1359,91599;2,56209
1357,86483;2,56605
1355,81368;2,57241
1353,76252;2,57883
1351,71137;2,57754
1349,66021;2,56873
1347,60906;2,56146
1345,5579;2,56155
1343,50675;2,56882
1341,45559;2,5788
1339,40444;2,58565
1337,35328;2,58637
1335,30213;2,58331
1333,25097;2,58123
1331,19981;2,5815
1329,14866;2,58376
1327,0975;2,5875
1325,04635;2,59215
1322,99519;2,59735
1320,94404;2,60201
1318,89288;2,60313
1316,84173;2,60009
1314,79057;2,59736
1312,73942;2,59841
1310,68826;2,60204
1308,63711;2,60249
1306,58595;2,59768
1304,5348;2,59213
1302,48364;2,58873
1300,43248;2,58878
1298,38133;2,59275
1296,33017;2,59553
1294,27902;2,59717
1292,22786;2,60207
1290,17671;2,60558
1288,12555;2,6046
1286,0744;2,60296
1284,02324;2,60542
1281,97209;2,6133
1279,92093;2,61886
1277,86978;2,61688
1275,81862;2,61664
1273,76747;2,62455
1271,71631;2,6307
1269,66515;2,62732
1267,614;2,62284
1265,56284;2,62489
1263,51169;2,62878
1261,46053;2,63171
1259,40938;2,63498
1257,35822;2,63732
1255,30707;2,63982
1253,25591;2,64274
1251,20476;2,6437
1249,1536;2,6429
1247,10245;2,64243
1245,05129;2,64079
1243,00013;2,6363
1240,94898;2,63411
1238,89782;2,63677
1236,84667;2,63897
1234,79551;2,63868
1232,74436;2,63668
1230,6932;2,63129
1228,64205;2,62343
1226,59089;2,61848
1224,53974;2,61843
1222,48858;2,61882
1220,43743;2,61724
1218,38627;2,61668
1216,33512;2,61882
1214,28396;2,62314
1212,2328;2,62713
1210,18165;2,6269
1208,13049;2,62325
1206,07934;2,62189
1204,02818;2,62487
1201,97703;2,62789
1199,92587;2,62519
1197,87472;2,623
1195,82356;2,63186
1193,77241;2,64286
1191,72125;2,64483
1189,6701;2,64595
1187,61894;2,64976
1185,56779;2,6552
1183,51663;2,66197
1181,46547;2,66023
1179,41432;2,64911
1177,36316;2,64205
1175,31201;2,64283
1173,26085;2,64609
1171,2097;2,64935
1169,15854;2,64959
1167,10739;2,64442
1165,05623;2,63818
1163,00508;2,63705
1160,95392;2,64439
1158,90277;2,65302
1156,85161;2,65226
1154,80046;2,64581
1152,7493;2,63911
1150,69814;2,63613
1148,64699;2,63807
1146,59583;2,63587
1144,54468;2,63265
1142,49352;2,63559
1140,44237;2,63677
1138,39121;2,632
1136,34006;2,62784
1134,2889;2,63216
1132,23775;2,64519
1130,18659;2,65855
1128,13544;2,66344
1126,08428;2,6626
1124,03313;2,6635
1121,98197;2,66444
1119,93081;2,66416
1117,87966;2,66588
1115,8285;2,67182
1113,77735;2,67953
1111,72619;2,68146
1109,67504;2,67778
1107,62388;2,67816
1105,57273;2,68515
1103,52157;2,69153
1101,47042;2,69157
1099,41926;2,68441
1097,36811;2,67259
1095,31695;2,66195
1093,2658;2,65158
1091,21464;2,64468
1089,16348;2,64467
1087,11233;2,6412
1085,06117;2,63311
1083,01002;2,62635
1080,95886;2,62529
1078,90771;2,632
1076,85655;2,6394
1074,8054;2,64346
1072,75424;2,64678
1070,70309;2,64676
1068,65193;2,64168
1066,60078;2,63856
1064,54962;2,64108
1062,49847;2,64325
1060,44731;2,64277
1058,39615;2,63819
1056,345;2,6302
1054,29384;2,62376
1052,24269;2,61306
1050,19153;2,59445
1048,14038;2,57795
1046,08922;2,56564
1044,03807;2,55263
1041,98691;2,54428
1039,93576;2,54527
1037,8846;2,54782
1035,83345;2,55136
1033,78229;2,56291
1031,73114;2,57292
1029,67998;2,57151
1027,62882;2,56692
1025,57767;2,56645
1023,52651;2,56855
1021,47536;2,57239
1019,4242;2,57743
1017,37305;2,5787
1015,32189;2,57807
1013,27074;2,58604
1011,21958;2,59991
1009,16843;2,60144
1007,11727;2,59017
1005,06612;2,58349
1003,01496;2,58487
1000,96381;2,58713
998,91265;2,5881
996,86149;2,58838
994,81034;2,58719
992,75918;2,58492
990,70803;2,58394
988,65687;2,58968
986,60572;2,6048
984,55456;2,61973
982,50341;2,62037
980,45225;2,60672
978,4011;2,58963
976,34994;2,57996
974,29879;2,58306
972,24763;2,5947
970,19647;2,60951
968,14532;2,61676
966,09416;2,61129
964,04301;2,60295
961,99185;2,59693
959,9407;2,59567
957,88954;2,59737
955,83839;2,59829
953,78723;2,59966
951,73608;2,59911
949,68492;2,59446
947,63377;2,59462
945,58261;2,6024
943,53146;2,60772
941,4803;2,61177
939,42914;2,6174
937,37799;2,61948
935,32683;2,61897
933,27568;2,61939
931,22452;2,6226
929,17337;2,62508
927,12221;2,62133
925,07106;2,617
923,0199;2,61885
920,96875;2,6269
918,91759;2,64302
916,86644;2,66007
914,81528;2,6586
912,76413;2,64232
910,71297;2,63302
908,66181;2,64018
906,61066;2,65437
904,5595;2,65615
902,50835;2,64897
900,45719;2,64655
898,40604;2,64208
896,35488;2,6359
894,30373;2,6366
892,25257;2,6368
890,20142;2,62769
888,15026;2,61758
886,09911;2,61613
884,04795;2,6205
881,9968;2,6265
879,94564;2,63387
877,89448;2,63507
875,84333;2,62528
873,79217;2,61463
871,74102;2,60941
869,68986;2,60754
867,63871;2,60474
865,58755;2,59621
863,5364;2,58131
861,48524;2,56766
859,43409;2,56286
857,38293;2,56695
855,33178;2,57484
853,28062;2,58558
851,22947;2,59401
849,17831;2,59689
847,12715;2,60055
845,076;2,59945
843,02484;2,59879
840,97369;2,60585
838,92253;2,601
836,87138;2,5869
834,82022;2,5889
832,76907;2,60429
830,71791;2,60709
828,66676;2,58999
826,6156;2,57795
824,56445;2,584
822,51329;2,59133
820,46214;2,58269
818,41098;2,56496
816,35982;2,55362
814,30867;2,55206
812,25751;2,55432
810,20636;2,55623
808,1552;2,55415
806,10405;2,55657
804,05289;2,57762
802,00174;2,6045
799,95058;2,61582
797,89943;2,61631
795,84827;2,61389
793,79712;2,60963
791,74596;2,612
789,69481;2,61929
787,64365;2,6207
785,59249;2,62142
783,54134;2,63144
781,49018;2,64047
779,43903;2,63439
777,38787;2,62935
775,33672;2,63315
773,28556;2,63685
771,23441;2,63301
769,18325;2,61676
767,1321;2,60446
765,08094;2,61456
763,02979;2,63645
760,97863;2,64885
758,92748;2,65084
756,87632;2,66056
754,82516;2,67751
752,77401;2,6775
750,72285;2,65719
748,6717;2,62778
746,62054;2,60196
744,56939;2,59623
742,51823;2,60642
740,46708;2,61002
738,41592;2,60431
736,36477;2,60686
734,31361;2,60984
732,26246;2,60098
730,2113;2,59487
728,16015;2,60503
726,10899;2,62976
724,05783;2,64424
722,00668;2,62971
719,95552;2,60541
717,90437;2,59705
715,85321;2,59602
713,80206;2,5866
711,7509;2,57718
709,69975;2,58124
707,64859;2,59982
705,59744;2,62026
703,54628;2,63058
701,49513;2,63418
699,44397;2,64038
697,39281;2,64406
695,34166;2,6361
693,2905;2,62537
691,23935;2,62478
689,18819;2,62266
687,13704;2,60488
685,08588;2,59539
683,03473;2,62162
680,98357;2,66269
678,93242;2,67682
676,88126;2,66406
674,83011;2,64926
672,77895;2,64263
670,7278;2,64125
668,67664;2,638
666,62548;2,63487
664,57433;2,63741
662,52317;2,63559
660,47202;2,62169
658,42086;2,6083
656,36971;2,60903
654,31855;2,6152
652,2674;2,61494
650,21624;2,60923
648,16509;2,60366
646,11393;2,60247
644,06278;2,60248
642,01162;2,59234
639,96047;2,57086
637,90931;2,55843
635,85815;2,56832
633,807;2,58723
631,75584;2,59949
629,70469;2,59728
627,65353;2,58
625,60238;2,56405
623,55122;2,56333
621,50007;2,58088
619,44891;2,5975
617,39776;2,58581
615,3466;2,56817
613,29545;2,58082
611,24429;2,61024
609,19314;2,62029
607,14198;2,63161
605,09082;2,66153
603,03967;2,67329
600,98851;2,65421
598,93736;2,63783
596,8862;2,64326
594,83505;2,66405
592,78389;2,67027
590,73274;2,65939
588,68158;2,65958
586,63043;2,66699
584,57927;2,64686
582,52812;2,60754
580,47696;2,57432
578,42581;2,57468
576,37465;2,59487
574,32349;2,58941
572,27234;2,57914
570,22118;2,5999
568,17003;2,62356
566,11887;2,61833
564,06772;2,60176
562,01656;2,59286
559,96541;2,58834
557,91425;2,58819
555,8631;2,60277
553,81194;2,6201
551,76079;2,61526
549,70963;2,60491
547,65848;2,61722
545,60732;2,62887
543,55616;2,61525
541,50501;2,59243
539,45385;2,56926
537,4027;2,54885
535,35154;2,54164
533,30039;2,55817
531,24923;2,59046
529,19808;2,60058
527,14692;2,57334
525,09577;2,55178
523,04461;2,55833
520,99346;2,57075
518,9423;2,58752
516,89115;2,60811
514,83999;2,60356
512,78883;2,57578
510,73768;2,54785
508,68652;2,52137
506,63537;2,50467
504,58421;2,49932
502,53306;2,48522
500,4819;2,46328
498,43075;2,4613
496,37959;2,49214
494,32844;2,52031
492,27728;2,51647
490,22613;2,5029
488,17497;2,50575
486,12382;2,52307
484,07266;2,53192
482,0215;2,52633
479,97035;2,52183
477,91919;2,52181
475,86804;2,50903
473,81688;2,4883
471,76573;2,49294
469,71457;2,50706
467,66342;2,49497
465,61226;2,4894
463,56111;2,50433
461,50995;2,51221
459,4588;2,53022
457,40764;2,58746
455,35649;2,62439
453,30533;2,57736
451,25417;2,51694
449,20302;2,52401
447,15186;2,57268
445,10071;2,59135
443,04955;2,56381
440,9984;2,5225
438,94724;2,49551
436,89609;2,49291
434,84493;2,49998
432,79378;2,49087
430,74262;2,46032
428,69147;2,43486
426,64031;2,45176
424,58916;2,50322
422,538;2,55821
420,48684;2,56902
418,43569;2,50637
416,38453;2,45244
414,33338;2,4546
412,28222;2,49108
410,23107;2,51941
408,17991;2,48029
406,12876;2,3982
404,0776;2,38821
402,02645;2,48809
399,97529;2,64991
