3997,70175;1,83077
3995,6506;1,82886
3993,59944;1,82832
3991,54829;1,82974
3989,49713;1,8329
3987,44598;1,83599
3985,39482;1,83686
3983,34367;1,83543
3981,29251;1,83419
3979,24136;1,8353
3977,1902;1,83798
3975,13905;1,84052
3973,08789;1,84294
3971,03673;1,84603
3968,98558;1,84905
3966,93442;1,85137
3964,88327;1,85339
3962,83211;1,85535
3960,78096;1,85804
3958,7298;1,86112
3956,67865;1,86331
3954,62749;1,86496
3952,57634;1,86655
3950,52518;1,86745
3948,47403;1,86773
3946,42287;1,8687
3944,37172;1,86887
3942,32056;1,86666
3940,2694;1,86446
3938,21825;1,86476
3936,16709;1,86784
3934,11594;1,86955
3932,06478;1,86632
3930,01363;1,86039
3927,96247;1,85523
3925,91132;1,85132
3923,86016;1,84862
3921,80901;1,84529
3919,75785;1,83959
3917,7067;1,83321
3915,65554;1,82811
3913,60439;1,82368
3911,55323;1,81965
3909,50207;1,81772
3907,45092;1,81743
3905,39976;1,8185
3903,34861;1,82083
3901,29745;1,81847
3899,2463;1,81037
3897,19514;1,80614
3895,14399;1,80627
3893,09283;1,80415
3891,04168;1,80234
3888,99052;1,80602
3886,93937;1,80798
3884,88821;1,80816
3882,83706;1,80919
3880,7859;1,80636
3878,73474;1,80389
3876,68359;1,80311
3874,63243;1,80189
3872,58128;1,80133
3870,53012;1,79861
3868,47897;1,79801
3866,42781;1,79773
3864,37666;1,79349
3862,3255;1,78903
3860,27435;1,78745
3858,22319;1,78878
3856,17204;1,78779
3854,12088;1,78379
3852,06973;1,78544
3850,01857;1,78841
3847,96741;1,7874
3845,91626;1,78588
3843,8651;1,78718
3841,81395;1,79039
3839,76279;1,78968
3837,71164;1,78625
3835,66048;1,78617
3833,60933;1,78724
3831,55817;1,78775
3829,50702;1,78898
3827,45586;1,78956
3825,40471;1,79168
3823,35355;1,79202
3821,3024;1,78964
3819,25124;1,79322
3817,20008;1,79358
3815,14893;1,78859
3813,09777;1,78666
3811,04662;1,78792
3808,99546;1,79037
3806,94431;1,79363
3804,89315;1,79829
3802,842;1,79748
3800,79084;1,79618
3798,73969;1,7991
3796,68853;1,79894
3794,63738;1,79853
3792,58622;1,79919
3790,53506;1,79877
3788,48391;1,79744
3786,43275;1,79626
3784,3816;1,79738
3782,33044;1,80072
3780,27929;1,80273
3778,22813;1,80424
3776,17698;1,80599
3774,12582;1,80812
3772,07467;1,81082
3770,02351;1,81331
3767,97236;1,81636
3765,9212;1,81828
3763,87005;1,8208
3761,81889;1,82236
3759,76773;1,82199
3757,71658;1,82453
3755,66542;1,83068
3753,61427;1,83592
3751,56311;1,83921
3749,51196;1,84423
3747,4608;1,84818
3745,40965;1,84441
3743,35849;1,84445
3741,30734;1,85332
3739,25618;1,8613
3737,20503;1,86628
3735,15387;1,86935
3733,10272;1,87014
3731,05156;1,87076
3729,0004;1,87261
3726,94925;1,87405
3724,89809;1,87826
3722,84694;1,88475
3720,79578;1,89113
3718,74463;1,89711
3716,69347;1,90336
3714,64232;1,90871
3712,59116;1,91242
3710,54001;1,91854
3708,48885;1,92919
3706,4377;1,94279
3704,38654;1,95884
3702,33539;1,9804
3700,28423;2,00984
3698,23307;2,03988
3696,18192;2,06345
3694,13076;2,07736
3692,07961;2,07894
3690,02845;2,0712
3687,9773;2,06321
3685,92614;2,062
3683,87499;2,06366
3681,82383;2,06631
3679,77268;2,07312
3677,72152;2,08413
3675,67037;2,09815
3673,61921;2,11697
3671,56806;2,13015
3669,5169;2,13938
3667,46574;2,15293
3665,41459;2,16595
3663,36343;2,17786
3661,31228;2,19188
3659,26112;2,20804
3657,20997;2,22377
3655,15881;2,23975
3653,10766;2,25582
3651,0565;2,27642
3649,00535;2,3065
3646,95419;2,32952
3644,90304;2,33817
3642,85188;2,34275
3640,80073;2,35254
3638,74957;2,36607
3636,69841;2,37669
3634,64726;2,38315
3632,5961;2,393
3630,54495;2,41142
3628,49379;2,43267
3626,44264;2,44477
3624,39148;2,44889
3622,34033;2,45667
3620,28917;2,46954
3618,23802;2,47916
3616,18686;2,48383
3614,13571;2,49252
3612,08455;2,51052
3610,0334;2,5291
3607,98224;2,53955
3605,93108;2,54487
3603,87993;2,55125
3601,82877;2,56195
3599,77762;2,57271
3597,72646;2,57651
3595,67531;2,57617
3593,62415;2,58109
3591,573;2,59276
3589,52184;2,60304
3587,47069;2,60994
3585,41953;2,62209
3583,36838;2,63774
3581,31722;2,64579
3579,26607;2,64548
3577,21491;2,64939
3575,16375;2,66641
3573,1126;2,68555
3571,06144;2,68933
3569,01029;2,68475
3566,95913;2,69538
3564,90798;2,72104
3562,85682;2,73946
3560,80567;2,74147
3558,75451;2,7305
3556,70336;2,7213
3554,6522;2,72653
3552,60105;2,74027
3550,54989;2,75121
3548,49874;2,7594
3546,44758;2,76725
3544,39642;2,7682
3542,34527;2,76641
3540,29411;2,7728
3538,24296;2,78676
3536,1918;2,80486
3534,14065;2,81832
3532,08949;2,81725
3530,03834;2,81042
3527,98718;2,81085
3525,93603;2,81644
3523,88487;2,82118
3521,83372;2,8269
3519,78256;2,83641
3517,73141;2,85098
3515,68025;2,8692
3513,62909;2,87731
3511,57794;2,86401
3509,52678;2,85051
3507,47563;2,85725
3505,42447;2,86744
3503,37332;2,87256
3501,32216;2,87648
3499,27101;2,87264
3497,21985;2,8651
3495,1687;2,86582
3493,11754;2,8767
3491,06639;2,88803
3489,01523;2,89613
3486,96407;2,91395
3484,91292;2,93507
3482,86176;2,93635
3480,81061;2,92121
3478,75945;2,90057
3476,7083;2,88283
3474,65714;2,88635
3472,60599;2,9174
3470,55483;2,94367
3468,50368;2,937
3466,45252;2,92197
3464,40137;2,93015
3462,35021;2,95119
3460,29906;2,95433
3458,2479;2,93511
3456,19674;2,92099
3454,14559;2,92762
3452,09443;2,93994
3450,04328;2,95242
3447,99212;2,97339
3445,94097;2,98015
3443,88981;2,96057
3441,83866;2,9533
3439,7875;2,97144
3437,73635;2,97668
3435,68519;2,95602
3433,63404;2,94765
3431,58288;2,961
3429,53173;2,96254
3427,48057;2,94883
3425,42941;2,93945
3423,37826;2,93854
3421,3271;2,94729
3419,27595;2,96572
3417,22479;2,96994
3415,17364;2,94613
3413,12248;2,9236
3411,07133;2,92544
3409,02017;2,93604
3406,96902;2,93367
3404,91786;2,92885
3402,86671;2,92445
3400,81555;2,91085
3398,7644;2,90443
3396,71324;2,91794
3394,66208;2,92867
3392,61093;2,91374
3390,55977;2,89971
3388,50862;2,90531
3386,45746;2,91699
3384,40631;2,93682
3382,35515;2,95955
3380,304;2,96119
3378,25284;2,93822
3376,20169;2,91316
3374,15053;2,91272
3372,09938;2,93134
3370,04822;2,94455
3367,99707;2,93705
3365,94591;2,91007
3363,89475;2,89139
3361,8436;2,89564
3359,79244;2,90888
3357,74129;2,91843
3355,69013;2,91668
3353,63898;2,9116
3351,58782;2,91385
3349,53667;2,9119
3347,48551;2,90352
3345,43436;2,90135
3343,3832;2,90862
3341,33205;2,92452
3339,28089;2,93763
3337,22974;2,92788
3335,17858;2,90823
3333,12742;2,90103
3331,07627;2,90162
3329,02511;2,90659
3326,97396;2,91754
3324,9228;2,91543
3322,87165;2,8905
3320,82049;2,87067
3318,76934;2,86683
3316,71818;2,86158
3314,66703;2,85085
3312,61587;2,84775
3310,56472;2,85106
3308,51356;2,84499
3306,46241;2,83351
3304,41125;2,8292
3302,36009;2,8294
3300,30894;2,83134
3298,25778;2,84076
3296,20663;2,8583
3294,15547;2,8683
3292,10432;2,85816
3290,05316;2,8379
3288,00201;2,82144
3285,95085;2,81709
3283,8997;2,81928
3281,84854;2,81534
3279,79739;2,80962
3277,74623;2,81079
3275,69508;2,81676
3273,64392;2,82555
3271,59276;2,83531
3269,54161;2,83228
3267,49045;2,81766
3265,4393;2,81512
3263,38814;2,8278
3261,33699;2,8341
3259,28583;2,82817
3257,23468;2,824
3255,18352;2,82742
3253,13237;2,82809
3251,08121;2,81836
3249,03006;2,80443
3246,9789;2,79981
3244,92775;2,8094
3242,87659;2,81813
3240,82543;2,8161
3238,77428;2,81457
3236,72312;2,82014
3234,67197;2,82282
3232,62081;2,81597
3230,56966;2,80815
3228,5185;2,80582
3226,46735;2,80505
3224,41619;2,80321
3222,36504;2,79782
3220,31388;2,78522
3218,26273;2,7727
3216,21157;2,76928
3214,16041;2,77541
3212,10926;2,78527
3210,0581;2,78415
3208,00695;2,77077
3205,95579;2,76186
3203,90464;2,76303
3201,85348;2,77304
3199,80233;2,78187
3197,75117;2,77614
3195,70002;2,76435
3193,64886;2,76234
3191,59771;2,76797
3189,54655;2,76958
3187,4954;2,76494
3185,44424;2,75815
3183,39308;2,7509
3181,34193;2,74349
3179,29077;2,73841
3177,23962;2,73806
3175,18846;2,74076
3173,13731;2,74526
3171,08615;2,75084
3169,035;2,75436
3166,98384;2,7488
3164,93269;2,73525
3162,88153;2,72874
3160,83038;2,73177
3158,77922;2,72972
3156,72807;2,72369
3154,67691;2,7273
3152,62575;2,73386
3150,5746;2,72822
3148,52344;2,7145
3146,47229;2,7054
3144,42113;2,70391
3142,36998;2,70622
3140,31882;2,70586
3138,26767;2,69889
3136,21651;2,69197
3134,16536;2,69418
3132,1142;2,70204
3130,06305;2,70115
3128,01189;2,68988
3125,96074;2,68074
3123,90958;2,679
3121,85842;2,67734
3119,80727;2,6666
3117,75611;2,65188
3115,70496;2,65052
3113,6538;2,66701
3111,60265;2,68565
3109,55149;2,69147
3107,50034;2,68532
3105,44918;2,67764
3103,39803;2,67567
3101,34687;2,67654
3099,29572;2,67234
3097,24456;2,66622
3095,19341;2,66913
3093,14225;2,67812
3091,09109;2,67901
3089,03994;2,67034
3086,98878;2,6634
3084,93763;2,65874
3082,88647;2,65472
3080,83532;2,65705
3078,78416;2,66031
3076,73301;2,65566
3074,68185;2,64706
3072,6307;2,64077
3070,57954;2,64036
3068,52839;2,64516
3066,47723;2,64767
3064,42608;2,64515
3062,37492;2,64174
3060,32376;2,63619
3058,27261;2,62748
3056,22145;2,6222
3054,1703;2,62379
3052,11914;2,62624
3050,06799;2,62544
3048,01683;2,62184
3045,96568;2,61864
3043,91452;2,61748
3041,86337;2,6136
3039,81221;2,60812
3037,76106;2,60628
3035,7099;2,6063
3033,65875;2,60414
3031,60759;2,60062
3029,55643;2,60344
3027,50528;2,61228
3025,45412;2,61637
3023,40297;2,61105
3021,35181;2,60024
3019,30066;2,58999
3017,2495;2,58287
3015,19835;2,5787
3013,14719;2,58018
3011,09604;2,58906
3009,04488;2,5972
3006,99373;2,59802
3004,94257;2,59834
3002,89142;2,60159
3000,84026;2,60279
2998,7891;2,60509
2996,73795;2,61655
2994,68679;2,62742
2992,63564;2,62917
2990,58448;2,63196
2988,53333;2,63682
2986,48217;2,63912
2984,43102;2,64118
2982,37986;2,6425
2980,32871;2,64131
2978,27755;2,64087
2976,2264;2,64505
2974,17524;2,65256
2972,12409;2,65981
2970,07293;2,66613
2968,02177;2,66951
2965,97062;2,66795
2963,91946;2,66264
2961,86831;2,654
2959,81715;2,64745
2957,766;2,64847
2955,71484;2,64996
2953,66369;2,64863
2951,61253;2,64989
2949,56138;2,65319
2947,51022;2,65322
2945,45907;2,64693
2943,40791;2,63818
2941,35675;2,63141
2939,3056;2,62913
2937,25444;2,63459
2935,20329;2,64077
2933,15213;2,64117
2931,10098;2,64287
2929,04982;2,64822
2926,99867;2,65018
2924,94751;2,64365
2922,89636;2,63214
2920,8452;2,62657
2918,79405;2,63047
2916,74289;2,63255
2914,69174;2,62409
2912,64058;2,6135
2910,58942;2,61471
2908,53827;2,61825
2906,48711;2,61383
2904,43596;2,61219
2902,3848;2,61133
2900,33365;2,60435
2898,28249;2,59927
2896,23134;2,59736
2894,18018;2,59658
2892,12903;2,59732
2890,07787;2,59521
2888,02672;2,59245
2885,97556;2,59483
2883,92441;2,59827
2881,87325;2,60031
2879,82209;2,60501
2877,77094;2,60763
2875,71978;2,60416
2873,66863;2,60466
2871,61747;2,61019
2869,56632;2,61043
2867,51516;2,60336
2865,46401;2,59339
2863,41285;2,58902
2861,3617;2,59144
2859,31054;2,58769
2857,25939;2,57435
2855,20823;2,5647
2853,15708;2,56593
2851,10592;2,57154
2849,05476;2,57132
2847,00361;2,56419
2844,95245;2,55573
2842,9013;2,54544
2840,85014;2,53478
2838,79899;2,52566
2836,74783;2,51576
2834,69668;2,50838
2832,64552;2,50544
2830,59437;2,50426
2828,54321;2,50272
2826,49206;2,49843
2824,4409;2,49119
2822,38975;2,4842
2820,33859;2,47901
2818,28743;2,47292
2816,23628;2,46465
2814,18512;2,45515
2812,13397;2,44626
2810,08281;2,44322
2808,03166;2,44836
2805,9805;2,45491
2803,92935;2,45516
2801,87819;2,44862
2799,82704;2,43937
2797,77588;2,43292
2795,72473;2,43121
2793,67357;2,42891
2791,62242;2,42232
2789,57126;2,41526
2787,5201;2,40867
2785,46895;2,40069
2783,41779;2,39377
2781,36664;2,39139
2779,31548;2,39296
2777,26433;2,39196
2775,21317;2,3846
2773,16202;2,37551
2771,11086;2,36929
2769,05971;2,36482
2767,00855;2,36134
2764,9574;2,36193
2762,90624;2,36403
2760,85509;2,3629
2758,80393;2,36
2756,75277;2,35911
2754,70162;2,35981
2752,65046;2,35747
2750,59931;2,35268
2748,54815;2,35143
2746,497;2,35304
2744,44584;2,35118
2742,39469;2,34821
2740,34353;2,34886
2738,29238;2,34884
2736,24122;2,34451
2734,19007;2,33859
2732,13891;2,3358
2730,08776;2,33555
2728,0366;2,33461
2725,98544;2,33385
2723,93429;2,33148
2721,88313;2,32674
2719,83198;2,3227
2717,78082;2,31909
2715,72967;2,31785
2713,67851;2,31973
2711,62736;2,3214
2709,5762;2,32226
2707,52505;2,32005
2705,47389;2,31481
2703,42274;2,3121
2701,37158;2,31296
2699,32043;2,31317
2697,26927;2,31128
2695,21811;2,30928
2693,16696;2,30806
2691,1158;2,30896
2689,06465;2,31041
2687,01349;2,30903
2684,96234;2,30881
2682,91118;2,31255
2680,86003;2,31592
2678,80887;2,31608
2676,75772;2,31407
2674,70656;2,31304
2672,65541;2,31323
2670,60425;2,30913
2668,55309;2,30155
2666,50194;2,30009
2664,45078;2,30472
2662,39963;2,30659
2660,34847;2,30699
2658,29732;2,31067
2656,24616;2,31347
2654,19501;2,31265
2652,14385;2,31078
2650,0927;2,31018
2648,04154;2,31194
2645,99039;2,31448
2643,93923;2,31695
2641,88808;2,32091
2639,83692;2,32745
2637,78576;2,33745
2635,73461;2,34818
2633,68345;2,35443
2631,6323;2,3582
2629,58114;2,36375
2627,52999;2,36859
2625,47883;2,37151
2623,42768;2,37838
2621,37652;2,38991
2619,32537;2,40077
2617,27421;2,40917
2615,22306;2,4156
2613,1719;2,4197
2611,12075;2,42178
2609,06959;2,42439
2607,01843;2,42868
2604,96728;2,43448
2602,91612;2,43965
2600,86497;2,4406
2598,81381;2,44034
2596,76266;2,44456
2594,7115;2,45139
2592,66035;2,45504
2590,60919;2,45559
2588,55804;2,45498
2586,50688;2,45536
2584,45573;2,46037
2582,40457;2,46685
2580,35342;2,46906
2578,30226;2,46931
2576,2511;2,47203
2574,19995;2,47544
2572,14879;2,47798
2570,09764;2,48273
2568,04648;2,48891
2565,99533;2,49207
2563,94417;2,49397
2561,89302;2,49666
2559,84186;2,49791
2557,79071;2,49969
2555,73955;2,5048
2553,6884;2,51015
2551,63724;2,51125
2549,58609;2,50878
2547,53493;2,50709
2545,48377;2,50878
2543,43262;2,51122
2541,38146;2,5118
2539,33031;2,51092
2537,27915;2,50959
2535,228;2,51225
2533,17684;2,52384
2531,12569;2,53966
2529,07453;2,54977
2527,02338;2,55622
2524,97222;2,56087
2522,92107;2,55809
2520,86991;2,55484
2518,81876;2,55675
2516,7676;2,55797
2514,71644;2,55716
2512,66529;2,55848
2510,61413;2,56249
2508,56298;2,56358
2506,51182;2,55724
2504,46067;2,54519
2502,40951;2,53426
2500,35836;2,52972
2498,3072;2,5268
2496,25605;2,51705
2494,20489;2,5006
2492,15374;2,4856
2490,10258;2,47426
2488,05143;2,46287
2486,00027;2,45319
2483,94911;2,44709
2481,89796;2,43966
2479,8468;2,42599
2477,79565;2,41006
2475,74449;2,39865
2473,69334;2,39069
2471,64218;2,38263
2469,59103;2,37667
2467,53987;2,37269
2465,48872;2,36724
2463,43756;2,36019
2461,38641;2,35304
2459,33525;2,3491
2457,2841;2,34781
2455,23294;2,34528
2453,18178;2,34055
2451,13063;2,33586
2449,07947;2,33367
2447,02832;2,33157
2444,97716;2,32759
2442,92601;2,32239
2440,87485;2,31793
2438,8237;2,31756
2436,77254;2,31992
2434,72139;2,32027
2432,67023;2,31883
2430,61908;2,3181
2428,56792;2,31793
2426,51677;2,31541
2424,46561;2,31036
2422,41445;2,30639
2420,3633;2,30327
2418,31214;2,29914
2416,26099;2,29478
2414,20983;2,29191
2412,15868;2,28997
2410,10752;2,28717
2408,05637;2,28385
2406,00521;2,28037
2403,95406;2,27641
2401,9029;2,27216
2399,85175;2,26839
2397,80059;2,26495
2395,74944;2,26156
2393,69828;2,25811
2391,64712;2,25396
2389,59597;2,2495
2387,54481;2,24641
2385,49366;2,24481
2383,4425;2,24351
2381,39135;2,24272
2379,34019;2,24344
2377,28904;2,2456
2375,23788;2,24834
2373,18673;2,25167
2371,13557;2,25467
2369,08442;2,25612
2367,03326;2,25855
2364,9821;2,26182
2362,93095;2,25991
2360,87979;2,25081
2358,82864;2,23872
2356,77748;2,23108
2354,72633;2,23065
2352,67517;2,23333
2350,62402;2,23612
2348,57286;2,23435
2346,52171;2,22512
2344,47055;2,21643
2342,4194;2,21854
2340,36824;2,22728
2338,31709;2,23202
2336,26593;2,2316
2334,21477;2,23062
2332,16362;2,22887
2330,11246;2,22513
2328,06131;2,22378
2326,01015;2,22661
2323,959;2,22735
2321,90784;2,2221
2319,85669;2,21681
2317,80553;2,21705
2315,75438;2,22018
2313,70322;2,22183
2311,65207;2,22085
2309,60091;2,2179
2307,54976;2,21398
2305,4986;2,21066
2303,44744;2,20914
2301,39629;2,20924
2299,34513;2,20998
2297,29398;2,21018
2295,24282;2,20932
2293,19167;2,20796
2291,14051;2,20682
2289,08936;2,20591
2287,0382;2,20475
2284,98705;2,20379
2282,93589;2,20339
2280,88474;2,20216
2278,83358;2,20097
2276,78243;2,20352
2274,73127;2,20912
2272,68011;2,21229
2270,62896;2,21137
2268,5778;2,21119
2266,52665;2,21434
2264,47549;2,21663
2262,42434;2,21613
2260,37318;2,21652
2258,32203;2,21947
2256,27087;2,2226
2254,21972;2,22334
2252,16856;2,22335
2250,11741;2,22553
2248,06625;2,22884
2246,0151;2,23224
2243,96394;2,23589
2241,91278;2,23784
2239,86163;2,23798
2237,81047;2,23845
2235,75932;2,24146
2233,70816;2,24631
2231,65701;2,25053
2229,60585;2,25314
2227,5547;2,25366
2225,50354;2,25488
2223,45239;2,25803
2221,40123;2,25998
2219,35008;2,26209
2217,29892;2,26522
2215,24777;2,26628
2213,19661;2,26722
2211,14545;2,27158
2209,0943;2,27597
2207,04314;2,27598
2204,99199;2,27335
2202,94083;2,27201
2200,88968;2,27255
2198,83852;2,27448
2196,78737;2,27824
2194,73621;2,28017
2192,68506;2,28019
2190,6339;2,28346
2188,58275;2,28836
2186,53159;2,29103
2184,48044;2,29227
2182,42928;2,29236
2180,37812;2,29106
2178,32697;2,29239
2176,27581;2,29747
2174,22466;2,30015
2172,1735;2,29942
2170,12235;2,30149
2168,07119;2,30801
2166,02004;2,31558
2163,96888;2,32205
2161,91773;2,32706
2159,86657;2,33068
2157,81542;2,33431
2155,76426;2,33955
2153,71311;2,34563
2151,66195;2,35139
2149,61079;2,35629
2147,55964;2,35866
2145,50848;2,36003
2143,45733;2,36345
2141,40617;2,36665
2139,35502;2,36564
2137,30386;2,35999
2135,25271;2,35432
2133,20155;2,35149
2131,1504;2,34823
2129,09924;2,34426
2127,04809;2,34077
2124,99693;2,33559
2122,94578;2,32916
2120,89462;2,32257
2118,84346;2,317
2116,79231;2,31481
2114,74115;2,31225
2112,69;2,30587
2110,63884;2,29998
2108,58769;2,29734
2106,53653;2,29647
2104,48538;2,2965
2102,43422;2,29688
2100,38307;2,29717
2098,33191;2,29763
2096,28076;2,29799
2094,2296;2,29926
2092,17844;2,30321
2090,12729;2,30782
2088,07613;2,31025
2086,02498;2,31308
2083,97382;2,3197
2081,92267;2,32631
2079,87151;2,32783
2077,82036;2,32683
2075,7692;2,32693
2073,71805;2,32656
2071,66689;2,32414
2069,61574;2,31991
2067,56458;2,31509
2065,51343;2,31176
2063,46227;2,3097
2061,41111;2,3068
2059,35996;2,30438
2057,3088;2,30279
2055,25765;2,3
2053,20649;2,29822
2051,15534;2,29898
2049,10418;2,29882
2047,05303;2,29623
2045,00187;2,29523
2042,95072;2,29628
2040,89956;2,29545
2038,84841;2,29364
2036,79725;2,29245
2034,7461;2,29019
2032,69494;2,28737
2030,64378;2,28826
2028,59263;2,29227
2026,54147;2,29392
2024,49032;2,29121
2022,43916;2,2881
2020,38801;2,28966
2018,33685;2,29366
2016,2857;2,29431
2014,23454;2,29196
2012,18339;2,29198
2010,13223;2,29628
2008,08108;2,30036
2006,02992;2,30105
2003,97877;2,30059
2001,92761;2,30164
1999,87645;2,30421
1997,8253;2,3066
1995,77414;2,30724
1993,72299;2,30584
1991,67183;2,30496
1989,62068;2,30647
1987,56952;2,30767
1985,51837;2,30919
1983,46721;2,31309
1981,41606;2,31922
1979,3649;2,32561
1977,31375;2,32963
1975,26259;2,33054
1973,21144;2,32975
1971,16028;2,32958
1969,10912;2,33226
1967,05797;2,33996
1965,00681;2,3504
1962,95566;2,3564
1960,9045;2,35789
1958,85335;2,35782
1956,80219;2,35347
1954,75104;2,34535
1952,69988;2,33987
1950,64873;2,34004
1948,59757;2,34448
1946,54642;2,35032
1944,49526;2,35485
1942,44411;2,35664
1940,39295;2,35654
1938,34179;2,35594
1936,29064;2,35629
1934,23948;2,35669
1932,18833;2,35656
1930,13717;2,35711
1928,08602;2,3593
1926,03486;2,36433
1923,98371;2,3706
1921,93255;2,37573
1919,8814;2,37714
1917,83024;2,3761
1915,77909;2,37919
1913,72793;2,38547
1911,67678;2,38854
1909,62562;2,38619
1907,57446;2,38561
1905,52331;2,38943
1903,47215;2,39278
1901,421;2,39434
1899,36984;2,39625
1897,31869;2,39895
1895,26753;2,40116
1893,21638;2,40276
1891,16522;2,40376
1889,11407;2,40781
1887,06291;2,41568
1885,01176;2,42056
1882,9606;2,42137
1880,90945;2,4227
1878,85829;2,42728
1876,80713;2,43293
1874,75598;2,43662
1872,70482;2,4381
1870,65367;2,43819
1868,60251;2,44197
1866,55136;2,45082
1864,5002;2,45749
1862,44905;2,46113
1860,39789;2,46492
1858,34674;2,47187
1856,29558;2,48307
1854,24443;2,49332
1852,19327;2,49986
1850,14212;2,50592
1848,09096;2,5115
1846,0398;2,51451
1843,98865;2,52123
1841,93749;2,53537
1839,88634;2,54621
1837,83518;2,55228
1835,78403;2,56013
1833,73287;2,56889
1831,68172;2,57349
1829,63056;2,57654
1827,57941;2,58247
1825,52825;2,58679
1823,4771;2,59226
1821,42594;2,60259
1819,37478;2,6148
1817,32363;2,62728
1815,27247;2,63904
1813,22132;2,64888
1811,17016;2,66233
1809,11901;2,6848
1807,06785;2,71235
1805,0167;2,7388
1802,96554;2,7578
1800,91439;2,76984
1798,86323;2,77942
1796,81208;2,78155
1794,76092;2,77312
1792,70977;2,76084
1790,65861;2,75197
1788,60745;2,74237
1786,5563;2,72862
1784,50514;2,7139
1782,45399;2,6997
1780,40283;2,68886
1778,35168;2,68538
1776,30052;2,68668
1774,24937;2,68687
1772,19821;2,68531
1770,14706;2,6866
1768,0959;2,68829
1766,04475;2,68988
1763,99359;2,68904
1761,94244;2,6886
1759,89128;2,69631
1757,84012;2,70496
1755,78897;2,71171
1753,73781;2,71502
1751,68666;2,7117
1749,6355;2,71494
1747,58435;2,72837
1745,53319;2,73823
1743,48204;2,74172
1741,43088;2,74432
1739,37973;2,74585
1737,32857;2,74391
1735,27742;2,73945
1733,22626;2,74733
1731,17511;2,76541
1729,12395;2,77568
1727,07279;2,78014
1725,02164;2,78639
1722,97048;2,79736
1720,91933;2,80668
1718,86817;2,80901
1716,81702;2,81303
1714,76586;2,82205
1712,71471;2,83208
1710,66355;2,84013
1708,6124;2,84456
1706,56124;2,85794
1704,51009;2,8931
1702,45893;2,92713
1700,40778;2,94448
1698,35662;2,9656
1696,30546;2,98479
1694,25431;2,99819
1692,20315;3,00999
1690,152;3,02822
1688,10084;3,05102
1686,04969;3,05271
1683,99853;3,04385
1681,94738;3,06682
1679,89622;3,09527
1677,84507;3,09728
1675,79391;3,08632
1673,74276;3,08863
1671,6916;3,08725
1669,64045;3,0669
1667,58929;3,05732
1665,53813;3,06579
1663,48698;3,06785
1661,43582;3,05287
1659,38467;3,03148
1657,33351;3,02145
1655,28236;3,02774
1653,2312;3,03682
1651,18005;3,03229
1649,12889;3,00859
1647,07774;2,98628
1645,02658;2,99058
1642,97543;3,00427
1640,92427;3,00403
1638,87312;2,992
1636,82196;2,97626
1634,7708;2,96234
1632,71965;2,95463
1630,66849;2,95233
1628,61734;2,95569
1626,56618;2,96144
1624,51503;2,96629
1622,46387;2,97523
1620,41272;2,98261
1618,36156;2,97383
1616,31041;2,9586
1614,25925;2,95744
1612,2081;2,96615
1610,15694;2,97644
1608,10579;2,98105
1606,05463;2,9733
1604,00347;2,95464
1601,95232;2,93926
1599,90116;2,94613
1597,85001;2,96941
1595,79885;2,9824
1593,7477;2,97656
1591,69654;2,96941
1589,64539;2,96958
1587,59423;2,97182
1585,54308;2,97782
1583,49192;2,98849
1581,44077;2,99824
1579,38961;3,00023
1577,33846;2,99051
1575,2873;2,98372
1573,23614;2,98911
1571,18499;2,98917
1569,13383;2,97768
1567,08268;2,96193
1565,03152;2,94901
1562,98037;2,94267
1560,92921;2,93423
1558,87806;2,92772
1556,8269;2,93552
1554,77575;2,93153
1552,72459;2,90933
1550,67344;2,88427
1548,62228;2,8655
1546,57113;2,84644
1544,51997;2,81376
1542,46881;2,76979
1540,41766;2,74248
1538,3665;2,76141
1536,31535;2,78611
1534,26419;2,78065
1532,21304;2,76919
1530,16188;2,76969
1528,11073;2,76727
1526,05957;2,76051
1524,00842;2,75701
1521,95726;2,74559
1519,90611;2,72285
1517,85495;2,70205
1515,80379;2,69419
1513,75264;2,69512
1511,70148;2,69631
1509,65033;2,69776
1507,59917;2,68845
1505,54802;2,67089
1503,49686;2,66729
1501,44571;2,67149
1499,39455;2,67373
1497,3434;2,67197
1495,29224;2,66991
1493,24109;2,67002
1491,18993;2,67038
1489,13878;2,67288
1487,08762;2,67386
1485,03646;2,67326
1482,98531;2,6777
1480,93415;2,68798
1478,883;2,69944
1476,83184;2,70802
1474,78069;2,71017
1472,72953;2,7022
1470,67838;2,69575
1468,62722;2,69811
1466,57607;2,70224
1464,52491;2,70831
1462,47376;2,72075
1460,4226;2,73148
1458,37145;2,73593
1456,32029;2,7479
1454,26913;2,77038
1452,21798;2,78909
1450,16682;2,79931
1448,11567;2,80226
1446,06451;2,80468
1444,01336;2,80921
1441,9622;2,80877
1439,91105;2,79648
1437,85989;2,77091
1435,80874;2,74459
1433,75758;2,72792
1431,70643;2,70935
1429,65527;2,68304
1427,60412;2,65544
1425,55296;2,62985
1423,5018;2,60901
1421,45065;2,59316
1419,39949;2,57854
1417,34834;2,56854
1415,29718;2,56093
1413,24603;2,55119
1411,19487;2,5404
1409,14372;2,53129
1407,09256;2,52493
1405,04141;2,5199
1402,99025;2,51566
1400,9391;2,51225
1398,88794;2,51199
1396,83679;2,516
1394,78563;2,52195
1392,73447;2,52725
1390,68332;2,52722
1388,63216;2,52559
1386,58101;2,53089
1384,52985;2,54106
1382,4787;2,55055
1380,42754;2,56336
1378,37639;2,5825
1376,32523;2,60242
1374,27408;2,61591
1372,22292;2,62169
1370,17177;2,62262
1368,12061;2,62399
1366,06946;2,62697
1364,0183;2,62512
1361,96714;2,61779
1359,91599;2,61479
1357,86483;2,62037
1355,81368;2,6261
1353,76252;2,6247
1351,71137;2,62225
1349,66021;2,62792
1347,60906;2,63895
1345,5579;2,64342
1343,50675;2,6379
1341,45559;2,62913
1339,40444;2,62482
1337,35328;2,62778
1335,30213;2,63103
1333,25097;2,63181
1331,19981;2,63756
1329,14866;2,64534
1327,0975;2,64424
1325,04635;2,63829
1322,99519;2,63796
1320,94404;2,64216
1318,89288;2,64385
1316,84173;2,64137
1314,79057;2,635
1312,73942;2,62709
1310,68826;2,62212
1308,63711;2,61965
1306,58595;2,61895
1304,5348;2,62095
1302,48364;2,62194
1300,43248;2,62037
1298,38133;2,6195
1296,33017;2,61815
1294,27902;2,61696
1292,22786;2,61971
1290,17671;2,62186
1288,12555;2,61812
1286,0744;2,61028
1284,02324;2,60415
1281,97209;2,60781
1279,92093;2,61816
1277,86978;2,62159
1275,81862;2,61852
1273,76747;2,62172
1271,71631;2,6317
1269,66515;2,63693
1267,614;2,63357
1265,56284;2,62607
1263,51169;2,62118
1261,46053;2,62388
1259,40938;2,62978
1257,35822;2,63371
1255,30707;2,63679
1253,25591;2,6349
1251,20476;2,62554
1249,1536;2,62024
1247,10245;2,62415
1245,05129;2,63174
1243,00013;2,63938
1240,94898;2,64479
1238,89782;2,64798
1236,84667;2,64849
1234,79551;2,64527
1232,74436;2,64232
1230,6932;2,641
1228,64205;2,64055
1226,59089;2,64505
1224,53974;2,65194
1222,48858;2,65297
1220,43743;2,64553
1218,38627;2,63559
1216,33512;2,63596
1214,28396;2,64532
1212,2328;2,64817
1210,18165;2,64427
1208,13049;2,64358
1206,07934;2,64599
1204,02818;2,64844
1201,97703;2,65209
1199,92587;2,65727
1197,87472;2,66078
1195,82356;2,66257
1193,77241;2,6659
1191,72125;2,66855
1189,6701;2,67045
1187,61894;2,67482
1185,56779;2,6813
1183,51663;2,68922
1181,46547;2,69533
1179,41432;2,69495
1177,36316;2,69423
1175,31201;2,70038
1173,26085;2,70544
1171,2097;2,7026
1169,15854;2,70369
1167,10739;2,71203
1165,05623;2,71414
1163,00508;2,71556
1160,95392;2,72566
1158,90277;2,73343
1156,85161;2,73522
1154,80046;2,73848
1152,7493;2,74459
1150,69814;2,74949
1148,64699;2,75206
1146,59583;2,75059
1144,54468;2,74814
1142,49352;2,75631
1140,44237;2,76634
1138,39121;2,76352
1136,34006;2,7652
1134,2889;2,7805
1132,23775;2,79075
1130,18659;2,79325
1128,13544;2,79519
1126,08428;2,80206
1124,03313;2,8177
1121,98197;2,82324
1119,93081;2,81544
1117,87966;2,81196
1115,8285;2,8117
1113,77735;2,81806
1111,72619;2,84268
1109,67504;2,86983
1107,62388;2,87168
1105,57273;2,87073
1103,52157;2,89176
1101,47042;2,89752
1099,41926;2,86872
1097,36811;2,84786
1095,31695;2,85506
1093,2658;2,86522
1091,21464;2,85706
1089,16348;2,84787
1087,11233;2,8585
1085,06117;2,87599
1083,01002;2,87264
1080,95886;2,85951
1078,90771;2,85946
1076,85655;2,87488
1074,8054;2,90239
1072,75424;2,92112
1070,70309;2,91689
1068,65193;2,91132
1066,60078;2,91365
1064,54962;2,91117
1062,49847;2,89578
1060,44731;2,87634
1058,39615;2,85664
1056,345;2,82707
1054,29384;2,78247
1052,24269;2,73374
1050,19153;2,70002
1048,14038;2,68583
1046,08922;2,68498
1044,03807;2,6901
1041,98691;2,69194
1039,93576;2,69102
1037,8846;2,69755
1035,83345;2,71143
1033,78229;2,72095
1031,73114;2,72457
1029,67998;2,73171
1027,62882;2,7395
1025,57767;2,7357
1023,52651;2,72483
1021,47536;2,72004
1019,4242;2,72783
1017,37305;2,74202
1015,32189;2,74281
1013,27074;2,73093
1011,21958;2,72816
1009,16843;2,73954
1007,11727;2,75417
1005,06612;2,76212
1003,01496;2,76371
1000,96381;2,76494
998,91265;2,76396
996,86149;2,75733
994,81034;2,75005
992,75918;2,74349
990,70803;2,73843
988,65687;2,7411
986,60572;2,7575
984,55456;2,77574
982,50341;2,77453
980,45225;2,76292
978,4011;2,7587
976,34994;2,7621
974,29879;2,76854
972,24763;2,77517
970,19647;2,77779
968,14532;2,77241
966,09416;2,76429
964,04301;2,77235
961,99185;2,79824
959,9407;2,80999
957,88954;2,79405
955,83839;2,77209
953,78723;2,76757
951,73608;2,78587
949,68492;2,80561
947,63377;2,81259
945,58261;2,8127
943,53146;2,80965
941,4803;2,81136
939,42914;2,82064
937,37799;2,82291
935,32683;2,81553
933,27568;2,81454
931,22452;2,82853
929,17337;2,85002
927,12221;2,86328
925,07106;2,86758
923,0199;2,87447
920,96875;2,8796
918,91759;2,8731
916,86644;2,86479
914,81528;2,86439
912,76413;2,86771
910,71297;2,87167
908,66181;2,88181
906,61066;2,88449
904,5595;2,85837
902,50835;2,82799
900,45719;2,83057
898,40604;2,84604
896,35488;2,8341
894,30373;2,80781
892,25257;2,78714
890,20142;2,77442
888,15026;2,77416
886,09911;2,76983
884,04795;2,74937
881,9968;2,73502
879,94564;2,74
877,89448;2,75402
875,84333;2,75072
873,79217;2,72232
871,74102;2,69961
869,68986;2,69239
867,63871;2,68988
865,58755;2,69115
863,5364;2,70243
861,48524;2,71938
859,43409;2,73125
857,38293;2,73545
855,33178;2,736
853,28062;2,73443
851,22947;2,72915
849,17831;2,72556
847,12715;2,72916
845,076;2,73137
843,02484;2,726
840,97369;2,71257
838,92253;2,69778
836,87138;2,69843
834,82022;2,71331
832,76907;2,72364
830,71791;2,72312
828,66676;2,70677
826,6156;2,67461
824,56445;2,64467
822,51329;2,62294
820,46214;2,60512
818,41098;2,60195
816,35982;2,61975
814,30867;2,64447
812,25751;2,66084
810,20636;2,66836
808,1552;2,67615
806,10405;2,68264
804,05289;2,68531
802,00174;2,69965
799,95058;2,73172
797,89943;2,75316
795,84827;2,74179
793,79712;2,73704
791,74596;2,763
789,69481;2,7847
787,64365;2,77843
785,59249;2,76963
783,54134;2,77895
781,49018;2,80125
779,43903;2,80953
777,38787;2,78621
775,33672;2,76679
773,28556;2,7737
771,23441;2,78893
769,18325;2,80393
767,1321;2,81286
765,08094;2,81816
763,02979;2,83018
760,97863;2,83097
758,92748;2,82236
756,87632;2,83306
754,82516;2,82741
752,77401;2,79239
750,72285;2,76129
748,6717;2,73883
746,62054;2,73276
744,56939;2,73639
742,51823;2,72852
740,46708;2,71935
738,41592;2,71799
736,36477;2,71447
734,31361;2,71563
732,26246;2,72651
730,2113;2,72548
728,16015;2,72005
726,10899;2,73614
724,05783;2,77474
722,00668;2,79838
719,95552;2,80412
717,90437;2,81476
715,85321;2,81653
713,80206;2,80529
711,7509;2,80845
709,69975;2,81993
707,64859;2,80726
705,59744;2,77238
703,54628;2,74372
701,49513;2,73877
699,44397;2,75977
697,39281;2,79025
695,34166;2,80856
693,2905;2,81155
691,23935;2,81071
689,18819;2,81671
687,13704;2,81784
685,08588;2,80239
683,03473;2,77297
680,98357;2,73946
678,93242;2,72449
676,88126;2,73147
674,83011;2,72958
672,77895;2,71905
670,7278;2,74124
668,67664;2,79995
666,62548;2,82729
664,57433;2,80541
662,52317;2,80218
660,47202;2,84161
658,42086;2,86875
656,36971;2,83315
654,31855;2,77181
652,2674;2,76233
650,21624;2,80388
648,16509;2,82912
646,11393;2,81077
644,06278;2,76675
642,01162;2,7325
639,96047;2,73217
637,90931;2,74739
635,85815;2,76184
633,807;2,77718
631,75584;2,78922
629,70469;2,80092
627,65353;2,80571
625,60238;2,79253
623,55122;2,78309
621,50007;2,77236
619,44891;2,76489
617,39776;2,78528
615,3466;2,80236
613,29545;2,77581
611,24429;2,7481
609,19314;2,75007
607,14198;2,74994
605,09082;2,76579
603,03967;2,82951
600,98851;2,87148
598,93736;2,83827
596,8862;2,81671
594,83505;2,83775
592,78389;2,83064
590,73274;2,79816
588,68158;2,81327
586,63043;2,86816
584,57927;2,87908
582,52812;2,83055
580,47696;2,79301
578,42581;2,77489
576,37465;2,74992
574,32349;2,72325
572,27234;2,73222
570,22118;2,78029
568,17003;2,81967
566,11887;2,83184
564,06772;2,82145
562,01656;2,78573
559,96541;2,75362
557,91425;2,75964
555,8631;2,79214
553,81194;2,81348
551,76079;2,82866
549,70963;2,82609
547,65848;2,8113
545,60732;2,83176
543,55616;2,86849
541,50501;2,84601
539,45385;2,797
537,4027;2,79155
535,35154;2,81586
533,30039;2,8197
531,24923;2,78233
529,19808;2,74599
527,14692;2,7407
525,09577;2,75716
523,04461;2,76226
520,99346;2,73699
518,9423;2,69669
516,89115;2,66758
514,83999;2,67997
512,78883;2,71103
510,73768;2,70139
508,68652;2,6793
506,63537;2,6829
504,58421;2,67698
502,53306;2,64532
500,4819;2,61394
498,43075;2,61402
496,37959;2,65499
494,32844;2,71801
492,27728;2,76916
490,22613;2,80082
488,17497;2,80034
486,12382;2,74047
484,07266;2,65714
482,0215;2,61105
479,97035;2,61484
477,91919;2,65293
475,86804;2,68729
473,81688;2,67004
471,76573;2,62712
469,71457;2,61279
467,66342;2,64256
465,61226;2,68963
463,56111;2,70418
461,50995;2,69302
459,4588;2,67925
457,40764;2,65575
455,35649;2,63414
453,30533;2,66047
451,25417;2,74561
449,20302;2,78519
447,15186;2,71984
445,10071;2,67171
443,04955;2,67481
440,9984;2,67477
438,94724;2,7193
436,89609;2,7865
434,84493;2,84095
432,79378;2,90479
430,74262;2,90487
428,69147;2,88877
426,64031;2,89355
424,58916;2,85067
422,538;2,7626
420,48684;2,69244
418,43569;2,6579
416,38453;2,62892
414,33338;2,62157
412,28222;2,6073
410,23107;2,58818
408,17991;2,60709
406,12876;2,62896
404,0776;2,61567
402,02645;2,58281
399,97529;2,59275
