3997,70175;1,71551
3995,6506;1,71857
3993,59944;1,7207
3991,54829;1,72025
3989,49713;1,71948
3987,44598;1,72165
3985,39482;1,72531
3983,34367;1,72627
3981,29251;1,72533
3979,24136;1,72668
3977,1902;1,7305
3975,13905;1,73437
3973,08789;1,73721
3971,03673;1,73898
3968,98558;1,74033
3966,93442;1,74261
3964,88327;1,74582
3962,83211;1,74907
3960,78096;1,75259
3958,7298;1,75679
3956,67865;1,76153
3954,62749;1,76535
3952,57634;1,76696
3950,52518;1,76827
3948,47403;1,77118
3946,42287;1,77386
3944,37172;1,77442
3942,32056;1,77312
3940,2694;1,77114
3938,21825;1,76916
3936,16709;1,76672
3934,11594;1,76343
3932,06478;1,75919
3930,01363;1,75404
3927,96247;1,74761
3925,91132;1,73965
3923,86016;1,73148
3921,80901;1,72462
3919,75785;1,71823
3917,7067;1,71117
3915,65554;1,70499
3913,60439;1,70126
3911,55323;1,69843
3909,50207;1,69486
3907,45092;1,69073
3905,39976;1,68564
3903,34861;1,67929
3901,29745;1,67383
3899,2463;1,67187
3897,19514;1,67284
3895,14399;1,67359
3893,09283;1,6726
3891,04168;1,67051
3888,99052;1,66852
3886,93937;1,66687
3884,88821;1,6661
3882,83706;1,66737
3880,7859;1,66822
3878,73474;1,66692
3876,68359;1,66589
3874,63243;1,66468
3872,58128;1,66187
3870,53012;1,65862
3868,47897;1,65676
3866,42781;1,65667
3864,37666;1,65626
3862,3255;1,65516
3860,27435;1,65447
3858,22319;1,65408
3856,17204;1,65376
3854,12088;1,65217
3852,06973;1,64977
3850,01857;1,65052
3847,96741;1,65355
3845,91626;1,65485
3843,8651;1,65309
3841,81395;1,65057
3839,76279;1,64967
3837,71164;1,65023
3835,66048;1,65138
3833,60933;1,65265
3831,55817;1,6537
3829,50702;1,65467
3827,45586;1,6553
3825,40471;1,65514
3823,35355;1,65496
3821,3024;1,6554
3819,25124;1,65665
3817,20008;1,65761
3815,14893;1,65797
3813,09777;1,66003
3811,04662;1,66261
3808,99546;1,66229
3806,94431;1,65938
3804,89315;1,65765
3802,842;1,6578
3800,79084;1,65863
3798,73969;1,66166
3796,68853;1,66554
3794,63738;1,66773
3792,58622;1,6684
3790,53506;1,66814
3788,48391;1,66795
3786,43275;1,66883
3784,3816;1,67043
3782,33044;1,67238
3780,27929;1,67427
3778,22813;1,67586
3776,17698;1,67749
3774,12582;1,67872
3772,07467;1,67902
3770,02351;1,67916
3767,97236;1,68036
3765,9212;1,68224
3763,87005;1,68429
3761,81889;1,68625
3759,76773;1,68714
3757,71658;1,68761
3755,66542;1,68902
3753,61427;1,69065
3751,56311;1,69167
3749,51196;1,69284
3747,4608;1,69441
3745,40965;1,69604
3743,35849;1,69879
3741,30734;1,70423
3739,25618;1,71035
3737,20503;1,71351
3735,15387;1,71411
3733,10272;1,71638
3731,05156;1,72065
3729,0004;1,72479
3726,94925;1,72878
3724,89809;1,73243
3722,84694;1,73498
3720,79578;1,73738
3718,74463;1,74157
3716,69347;1,74748
3714,64232;1,75318
3712,59116;1,7588
3710,54001;1,76795
3708,48885;1,78165
3706,4377;1,79676
3704,38654;1,81452
3702,33539;1,84057
3700,28423;1,87558
3698,23307;1,91223
3696,18192;1,94241
3694,13076;1,95884
3692,07961;1,95727
3690,02845;1,94054
3687,9773;1,92074
3685,92614;1,91013
3683,87499;1,908
3681,82383;1,90815
3679,77268;1,90812
3677,72152;1,91008
3675,67037;1,917
3673,61921;1,92935
3671,56806;1,94432
3669,5169;1,95893
3667,46574;1,97245
3665,41459;1,98697
3663,36343;2,00235
3661,31228;2,01495
3659,26112;2,0235
3657,20997;2,03224
3655,15881;2,04518
3653,10766;2,06019
3651,0565;2,07606
3649,00535;2,09773
3646,95419;2,12528
3644,90304;2,15026
3642,85188;2,16673
3640,80073;2,17502
3638,74957;2,18128
3636,69841;2,18961
3634,64726;2,19848
3632,5961;2,20792
3630,54495;2,22047
3628,49379;2,23488
3626,44264;2,24619
3624,39148;2,25477
3622,34033;2,26415
3620,28917;2,27622
3618,23802;2,29005
3616,18686;2,3035
3614,13571;2,31637
3612,08455;2,32819
3610,0334;2,33833
3607,98224;2,34601
3605,93108;2,35112
3603,87993;2,35715
3601,82877;2,36711
3599,77762;2,37941
3597,72646;2,39082
3595,67531;2,40065
3593,62415;2,41047
3591,573;2,41982
3589,52184;2,42867
3587,47069;2,44027
3585,41953;2,45168
3583,36838;2,45944
3581,31722;2,46709
3579,26607;2,4732
3577,21491;2,47578
3575,16375;2,4803
3573,1126;2,48839
3571,06144;2,49415
3569,01029;2,49747
3566,95913;2,5018
3564,90798;2,50406
3562,85682;2,50477
3560,80567;2,5105
3558,75451;2,51931
3556,70336;2,52508
3554,6522;2,53301
3552,60105;2,54862
3550,54989;2,56318
3548,49874;2,56653
3546,44758;2,56267
3544,39642;2,5645
3542,34527;2,5727
3540,29411;2,57872
3538,24296;2,58426
3536,1918;2,59509
3534,14065;2,60888
3532,08949;2,62025
3530,03834;2,62476
3527,98718;2,6176
3525,93603;2,60615
3523,88487;2,60501
3521,83372;2,61264
3519,78256;2,62193
3517,73141;2,63212
3515,68025;2,63604
3513,62909;2,62871
3511,57794;2,62141
3509,52678;2,62509
3507,47563;2,63798
3505,42447;2,65316
3503,37332;2,66394
3501,32216;2,66656
3499,27101;2,66268
3497,21985;2,65521
3495,1687;2,65392
3493,11754;2,66824
3491,06639;2,69059
3489,01523;2,70801
3486,96407;2,71579
3484,91292;2,7103
3482,86176;2,6981
3480,81061;2,69623
3478,75945;2,7038
3476,7083;2,70707
3474,65714;2,7045
3472,60599;2,70502
3470,55483;2,71389
3468,50368;2,7216
3466,45252;2,71714
3464,40137;2,70952
3462,35021;2,71334
3460,29906;2,72734
3458,2479;2,74321
3456,19674;2,75208
3454,14559;2,74269
3452,09443;2,72221
3450,04328;2,71722
3447,99212;2,73389
3445,94097;2,75212
3443,88981;2,7589
3441,83866;2,76026
3439,7875;2,76221
3437,73635;2,76197
3435,68519;2,7534
3433,63404;2,74187
3431,58288;2,74196
3429,53173;2,75329
3427,48057;2,75985
3425,42941;2,75939
3423,37826;2,75921
3421,3271;2,76123
3419,27595;2,7656
3417,22479;2,76672
3415,17364;2,76268
3413,12248;2,76332
3411,07133;2,77627
3409,02017;2,78882
3406,96902;2,78571
3404,91786;2,76929
3402,86671;2,74956
3400,81555;2,73829
3398,7644;2,74061
3396,71324;2,7501
3394,66208;2,75898
3392,61093;2,76348
3390,55977;2,76229
3388,50862;2,75998
3386,45746;2,75907
3384,40631;2,75395
3382,35515;2,74435
3380,304;2,73872
3378,25284;2,74147
3376,20169;2,74803
3374,15053;2,75332
3372,09938;2,75042
3370,04822;2,74088
3367,99707;2,73296
3365,94591;2,72885
3363,89475;2,73101
3361,8436;2,73755
3359,79244;2,73905
3357,74129;2,73847
3355,69013;2,74956
3353,63898;2,76336
3351,58782;2,75904
3349,53667;2,73871
3347,48551;2,72024
3345,43436;2,71798
3343,3832;2,72643
3341,33205;2,72645
3339,28089;2,7128
3337,22974;2,69993
3335,17858;2,70508
3333,12742;2,72364
3331,07627;2,73404
3329,02511;2,73472
3326,97396;2,73686
3324,9228;2,74274
3322,87165;2,74631
3320,82049;2,73598
3318,76934;2,71511
3316,71818;2,70314
3314,66703;2,70497
3312,61587;2,70821
3310,56472;2,70801
3308,51356;2,70449
3306,46241;2,69762
3304,41125;2,69114
3302,36009;2,6842
3300,30894;2,67845
3298,25778;2,68051
3296,20663;2,68853
3294,15547;2,69423
3292,10432;2,69696
3290,05316;2,70088
3288,00201;2,70291
3285,95085;2,69702
3283,8997;2,68548
3281,84854;2,68008
3279,79739;2,68389
3277,74623;2,68298
3275,69508;2,67709
3273,64392;2,67916
3271,59276;2,68015
3269,54161;2,66969
3267,49045;2,66065
3265,4393;2,66082
3263,38814;2,66331
3261,33699;2,66311
3259,28583;2,65904
3257,23468;2,65248
3255,18352;2,65209
3253,13237;2,66362
3251,08121;2,67706
3249,03006;2,67441
3246,9789;2,65994
3244,92775;2,65691
3242,87659;2,66591
3240,82543;2,67189
3238,77428;2,67087
3236,72312;2,66824
3234,67197;2,66795
3232,62081;2,66294
3230,56966;2,65332
3228,5185;2,65149
3226,46735;2,65462
3224,41619;2,65417
3222,36504;2,65067
3220,31388;2,64552
3218,26273;2,64144
3216,21157;2,64139
3214,16041;2,64457
3212,10926;2,64345
3210,0581;2,63537
3208,00695;2,63108
3205,95579;2,63467
3203,90464;2,63995
3201,85348;2,64296
3199,80233;2,64171
3197,75117;2,63792
3195,70002;2,63774
3193,64886;2,64154
3191,59771;2,64307
3189,54655;2,63464
3187,4954;2,61703
3185,44424;2,6056
3183,39308;2,61046
3181,34193;2,61814
3179,29077;2,61191
3177,23962;2,60141
3175,18846;2,59773
3173,13731;2,59646
3171,08615;2,59569
3169,035;2,59518
3166,98384;2,59127
3164,93269;2,5847
3162,88153;2,5846
3160,83038;2,59075
3158,77922;2,59212
3156,72807;2,58773
3154,67691;2,58129
3152,62575;2,5746
3150,5746;2,57089
3148,52344;2,56843
3146,47229;2,56438
3144,42113;2,56132
3142,36998;2,56279
3140,31882;2,56549
3138,26767;2,5638
3136,21651;2,55875
3134,16536;2,54793
3132,1142;2,53441
3130,06305;2,53256
3128,01189;2,54
3125,96074;2,54083
3123,90958;2,53424
3121,85842;2,5297
3119,80727;2,52719
3117,75611;2,52392
3115,70496;2,52317
3113,6538;2,5249
3111,60265;2,52575
3109,55149;2,52473
3107,50034;2,52131
3105,44918;2,51763
3103,39803;2,51696
3101,34687;2,51739
3099,29572;2,51657
3097,24456;2,51574
3095,19341;2,51304
3093,14225;2,50844
3091,09109;2,50728
3089,03994;2,51027
3086,98878;2,51319
3084,93763;2,51051
3082,88647;2,50107
3080,83532;2,49618
3078,78416;2,50331
3076,73301;2,5107
3074,68185;2,50836
3072,6307;2,50262
3070,57954;2,49995
3068,52839;2,49638
3066,47723;2,49029
3064,42608;2,48869
3062,37492;2,49183
3060,32376;2,49493
3058,27261;2,49817
3056,22145;2,5006
3054,1703;2,50188
3052,11914;2,50244
3050,06799;2,49886
3048,01683;2,49324
3045,96568;2,49143
3043,91452;2,49303
3041,86337;2,49454
3039,81221;2,49304
3037,76106;2,49062
3035,7099;2,49157
3033,65875;2,49448
3031,60759;2,49441
3029,55643;2,48962
3027,50528;2,48677
3025,45412;2,49045
3023,40297;2,4952
3021,35181;2,49953
3019,30066;2,50463
3017,2495;2,50528
3015,19835;2,50171
3013,14719;2,49992
3011,09604;2,5001
3009,04488;2,50142
3006,99373;2,50607
3004,94257;2,51519
3002,89142;2,52901
3000,84026;2,54627
2998,7891;2,56278
2996,73795;2,57723
2994,68679;2,59362
2992,63564;2,60791
2990,58448;2,61334
2988,53333;2,61508
2986,48217;2,61857
2984,43102;2,626
2982,37986;2,63409
2980,32871;2,63634
2978,27755;2,6316
2976,2264;2,61974
2974,17524;2,60976
2972,12409;2,61184
2970,07293;2,61861
2968,02177;2,61877
2965,97062;2,61354
2963,91946;2,6055
2961,86831;2,59456
2959,81715;2,5838
2957,766;2,57812
2955,71484;2,58577
2953,66369;2,60166
2951,61253;2,60468
2949,56138;2,59538
2947,51022;2,588
2945,45907;2,58462
2943,40791;2,58486
2941,35675;2,58608
2939,3056;2,59082
2937,25444;2,60383
2935,20329;2,6122
2933,15213;2,6051
2931,10098;2,59364
2929,04982;2,59043
2926,99867;2,59277
2924,94751;2,58826
2922,89636;2,58022
2920,8452;2,57921
2918,79405;2,58418
2916,74289;2,59084
2914,69174;2,59125
2912,64058;2,58492
2910,58942;2,57893
2908,53827;2,57559
2906,48711;2,57609
2904,43596;2,57743
2902,3848;2,5757
2900,33365;2,57259
2898,28249;2,57437
2896,23134;2,58012
2894,18018;2,58399
2892,12903;2,58836
2890,07787;2,59649
2888,02672;2,60869
2885,97556;2,62135
2883,92441;2,63331
2881,87325;2,64656
2879,82209;2,65858
2877,77094;2,66353
2875,71978;2,65799
2873,66863;2,64746
2871,61747;2,64189
2869,56632;2,63911
2867,51516;2,63016
2865,46401;2,61933
2863,41285;2,61417
2861,3617;2,61224
2859,31054;2,60782
2857,25939;2,59796
2855,20823;2,58879
2853,15708;2,5865
2851,10592;2,58061
2849,05476;2,56439
2847,00361;2,55132
2844,95245;2,54441
2842,9013;2,53454
2840,85014;2,51979
2838,79899;2,5
2836,74783;2,48005
2834,69668;2,4655
2832,64552;2,45262
2830,59437;2,4357
2828,54321;2,41911
2826,49206;2,40748
2824,4409;2,39674
2822,38975;2,38637
2820,33859;2,37618
2818,28743;2,36347
2816,23628;2,3499
2814,18512;2,33884
2812,13397;2,3319
2810,08281;2,329
2808,03166;2,32921
2805,9805;2,32819
2803,92935;2,32247
2801,87819;2,31666
2799,82704;2,31513
2797,77588;2,31311
2795,72473;2,3057
2793,67357;2,29691
2791,62242;2,29118
2789,57126;2,28665
2787,5201;2,28118
2785,46895;2,27514
2783,41779;2,26846
2781,36664;2,26314
2779,31548;2,26057
2777,26433;2,25699
2775,21317;2,25106
2773,16202;2,24542
2771,11086;2,24124
2769,05971;2,23833
2767,00855;2,23581
2764,9574;2,23345
2762,90624;2,23144
2760,85509;2,22834
2758,80393;2,22178
2756,75277;2,21444
2754,70162;2,21293
2752,65046;2,21485
2750,59931;2,21375
2748,54815;2,21166
2746,497;2,21104
2744,44584;2,20986
2742,39469;2,20807
2740,34353;2,20762
2738,29238;2,20785
2736,24122;2,20672
2734,19007;2,2041
2732,13891;2,20107
2730,08776;2,19819
2728,0366;2,19707
2725,98544;2,19777
2723,93429;2,19758
2721,88313;2,19727
2719,83198;2,19642
2717,78082;2,19232
2715,72967;2,18947
2713,67851;2,19006
2711,62736;2,1885
2709,5762;2,18396
2707,52505;2,1803
2705,47389;2,18015
2703,42274;2,1824
2701,37158;2,18194
2699,32043;2,17864
2697,26927;2,17741
2695,21811;2,17886
2693,16696;2,18
2691,1158;2,17901
2689,06465;2,17779
2687,01349;2,18032
2684,96234;2,18539
2682,91118;2,18836
2680,86003;2,18904
2678,80887;2,18867
2676,75772;2,18757
2674,70656;2,18696
2672,65541;2,18761
2670,60425;2,18838
2668,55309;2,1883
2666,50194;2,18823
2664,45078;2,18816
2662,39963;2,18839
2660,34847;2,19043
2658,29732;2,19454
2656,24616;2,19894
2654,19501;2,20127
2652,14385;2,20257
2650,0927;2,20523
2648,04154;2,20988
2645,99039;2,21577
2643,93923;2,22114
2641,88808;2,22693
2639,83692;2,23698
2637,78576;2,25323
2635,73461;2,27379
2633,68345;2,296
2631,6323;2,3181
2629,58114;2,33659
2627,52999;2,34969
2625,47883;2,36268
2623,42768;2,37723
2621,37652;2,38871
2619,32537;2,40015
2617,27421;2,41326
2615,22306;2,42297
2613,1719;2,43179
2611,12075;2,44237
2609,06959;2,45304
2607,01843;2,46567
2604,96728;2,47837
2602,91612;2,48703
2600,86497;2,49317
2598,81381;2,49979
2596,76266;2,50555
2594,7115;2,50893
2592,66035;2,5131
2590,60919;2,51658
2588,55804;2,5164
2586,50688;2,5157
2584,45573;2,51853
2582,40457;2,52373
2580,35342;2,52689
2578,30226;2,52632
2576,2511;2,52548
2574,19995;2,53121
2572,14879;2,53889
2570,09764;2,53894
2568,04648;2,53716
2565,99533;2,54242
2563,94417;2,5498
2561,89302;2,55006
2559,84186;2,54525
2557,79071;2,54316
2555,73955;2,54696
2553,6884;2,55427
2551,63724;2,56054
2549,58609;2,56642
2547,53493;2,57605
2545,48377;2,58766
2543,43262;2,59765
2541,38146;2,60654
2539,33031;2,62046
2537,27915;2,64377
2535,228;2,66539
2533,17684;2,67593
2531,12569;2,68857
2529,07453;2,71508
2527,02338;2,74223
2524,97222;2,75371
2522,92107;2,75712
2520,86991;2,76366
2518,81876;2,7683
2516,7676;2,76358
2514,71644;2,76027
2512,66529;2,7671
2510,61413;2,76803
2508,56298;2,75509
2506,51182;2,73873
2504,46067;2,72371
2502,40951;2,70609
2500,35836;2,68118
2498,3072;2,65708
2496,25605;2,63772
2494,20489;2,61644
2492,15374;2,59213
2490,10258;2,56633
2488,05143;2,54467
2486,00027;2,52667
2483,94911;2,50519
2481,89796;2,48293
2479,8468;2,46325
2477,79565;2,4414
2475,74449;2,41687
2473,69334;2,39359
2471,64218;2,37415
2469,59103;2,35932
2467,53987;2,34396
2465,48872;2,32709
2463,43756;2,31389
2461,38641;2,30377
2459,33525;2,29435
2457,2841;2,28452
2455,23294;2,27404
2453,18178;2,26379
2451,13063;2,25378
2449,07947;2,24485
2447,02832;2,23637
2444,97716;2,22696
2442,92601;2,21907
2440,87485;2,21257
2438,8237;2,20549
2436,77254;2,20007
2434,72139;2,19671
2432,67023;2,19284
2430,61908;2,18778
2428,56792;2,18216
2426,51677;2,17613
2424,46561;2,16903
2422,41445;2,16214
2420,3633;2,15857
2418,31214;2,15732
2416,26099;2,15437
2414,20983;2,14899
2412,15868;2,14325
2410,10752;2,13921
2408,05637;2,13635
2406,00521;2,13246
2403,95406;2,12928
2401,9029;2,12783
2399,85175;2,12585
2397,80059;2,12422
2395,74944;2,1232
2393,69828;2,12113
2391,64712;2,11795
2389,59597;2,11523
2387,54481;2,11409
2385,49366;2,11414
2383,4425;2,11377
2381,39135;2,1122
2379,34019;2,11016
2377,28904;2,10872
2375,23788;2,10916
2373,18673;2,11116
2371,13557;2,11321
2369,08442;2,11572
2367,03326;2,11902
2364,9821;2,12094
2362,93095;2,11945
2360,87979;2,11526
2358,82864;2,11051
2356,77748;2,10696
2354,72633;2,10627
2352,67517;2,10821
2350,62402;2,11086
2348,57286;2,11316
2346,52171;2,11412
2344,47055;2,11285
2342,4194;2,11096
2340,36824;2,11042
2338,31709;2,1104
2336,26593;2,10961
2334,21477;2,10833
2332,16362;2,10753
2330,11246;2,10801
2328,06131;2,10954
2326,01015;2,11076
2323,959;2,11047
2321,90784;2,10952
2319,85669;2,10963
2317,80553;2,11075
2315,75438;2,11252
2313,70322;2,11453
2311,65207;2,1151
2309,60091;2,11303
2307,54976;2,1098
2305,4986;2,10768
2303,44744;2,10708
2301,39629;2,1071
2299,34513;2,10666
2297,29398;2,10543
2295,24282;2,10437
2293,19167;2,1045
2291,14051;2,10514
2289,08936;2,10412
2287,0382;2,10132
2284,98705;2,09928
2282,93589;2,09899
2280,88474;2,0988
2278,83358;2,09824
2276,78243;2,09896
2274,73127;2,10206
2272,68011;2,10611
2270,62896;2,10816
2268,5778;2,10815
2266,52665;2,10888
2264,47549;2,11084
2262,42434;2,11234
2260,37318;2,11417
2258,32203;2,11767
2256,27087;2,1214
2254,21972;2,12383
2252,16856;2,12495
2250,11741;2,12605
2248,06625;2,12756
2246,0151;2,12842
2243,96394;2,13076
2241,91278;2,13467
2239,86163;2,13684
2237,81047;2,13837
2235,75932;2,14217
2233,70816;2,14718
2231,65701;2,15162
2229,60585;2,15545
2227,5547;2,15893
2225,50354;2,16209
2223,45239;2,16582
2221,40123;2,16949
2219,35008;2,17033
2217,29892;2,16877
2215,24777;2,16806
2213,19661;2,17016
2211,14545;2,17336
2209,0943;2,17497
2207,04314;2,17488
2204,99199;2,174
2202,94083;2,17397
2200,88968;2,17611
2198,83852;2,17963
2196,78737;2,18295
2194,73621;2,1849
2192,68506;2,18493
2190,6339;2,18478
2188,58275;2,18636
2186,53159;2,18873
2184,48044;2,19087
2182,42928;2,19272
2180,37812;2,1939
2178,32697;2,19466
2176,27581;2,19668
2174,22466;2,20171
2172,1735;2,20857
2170,12235;2,21381
2168,07119;2,21708
2166,02004;2,22119
2163,96888;2,2276
2161,91773;2,23484
2159,86657;2,24199
2157,81542;2,2523
2155,76426;2,26606
2153,71311;2,27767
2151,66195;2,28616
2149,61079;2,29548
2147,55964;2,30465
2145,50848;2,3116
2143,45733;2,31773
2141,40617;2,32158
2139,35502;2,32032
2137,30386;2,31568
2135,25271;2,30971
2133,20155;2,302
2131,1504;2,29388
2129,09924;2,28558
2127,04809;2,27573
2124,99693;2,26445
2122,94578;2,25177
2120,89462;2,23885
2118,84346;2,22698
2116,79231;2,2168
2114,74115;2,20932
2112,69;2,20344
2110,63884;2,19757
2108,58769;2,1925
2106,53653;2,18931
2104,48538;2,18705
2102,43422;2,18426
2100,38307;2,18177
2098,33191;2,17998
2096,28076;2,17795
2094,2296;2,17715
2092,17844;2,17871
2090,12729;2,18077
2088,07613;2,18141
2086,02498;2,18035
2083,97382;2,17964
2081,92267;2,18044
2079,87151;2,18275
2077,82036;2,18567
2075,7692;2,18669
2073,71805;2,18648
2071,66689;2,18793
2069,61574;2,19019
2067,56458;2,19079
2065,51343;2,19041
2063,46227;2,1913
2061,41111;2,19256
2059,35996;2,19145
2057,3088;2,18983
2055,25765;2,19005
2053,20649;2,1908
2051,15534;2,19244
2049,10418;2,19611
2047,05303;2,19948
2045,00187;2,20016
2042,95072;2,19975
2040,89956;2,20055
2038,84841;2,20128
2036,79725;2,19997
2034,7461;2,19843
2032,69494;2,19925
2030,64378;2,20156
2028,59263;2,20254
2026,54147;2,20243
2024,49032;2,20441
2022,43916;2,20698
2020,38801;2,20745
2018,33685;2,20788
2016,2857;2,2086
2014,23454;2,20809
2012,18339;2,20742
2010,13223;2,20773
2008,08108;2,20908
2006,02992;2,21157
2003,97877;2,21382
2001,92761;2,21589
1999,87645;2,21899
1997,8253;2,22073
1995,77414;2,22055
1993,72299;2,22133
1991,67183;2,2237
1989,62068;2,22544
1987,56952;2,22482
1985,51837;2,22349
1983,46721;2,22447
1981,41606;2,2278
1979,3649;2,2308
1977,31375;2,23287
1975,26259;2,2353
1973,21144;2,23854
1971,16028;2,24372
1969,10912;2,25149
1967,05797;2,26065
1965,00681;2,27236
1962,95566;2,28632
1960,9045;2,29437
1958,85335;2,29174
1956,80219;2,28326
1954,75104;2,27513
1952,69988;2,27049
1950,64873;2,26767
1948,59757;2,2639
1946,54642;2,26067
1944,49526;2,26068
1942,44411;2,26446
1940,39295;2,26933
1938,34179;2,27193
1936,29064;2,27316
1934,23948;2,27497
1932,18833;2,27694
1930,13717;2,27857
1928,08602;2,28146
1926,03486;2,28596
1923,98371;2,28905
1921,93255;2,29034
1919,8814;2,29302
1917,83024;2,29777
1915,77909;2,3029
1913,72793;2,30669
1911,67678;2,30842
1909,62562;2,31044
1907,57446;2,3155
1905,52331;2,3222
1903,47215;2,32668
1901,421;2,32723
1899,36984;2,32709
1897,31869;2,32994
1895,26753;2,33519
1893,21638;2,34122
1891,16522;2,34691
1889,11407;2,35056
1887,06291;2,35365
1885,01176;2,35896
1882,9606;2,36553
1880,90945;2,37171
1878,85829;2,37885
1876,80713;2,3871
1874,75598;2,39286
1872,70482;2,3958
1870,65367;2,40045
1868,60251;2,40803
1866,55136;2,41598
1864,5002;2,42365
1862,44905;2,43147
1860,39789;2,44038
1858,34674;2,44959
1856,29558;2,45597
1854,24443;2,46047
1852,19327;2,46742
1850,14212;2,47723
1848,09096;2,48724
1846,0398;2,49774
1843,98865;2,51135
1841,93749;2,52753
1839,88634;2,54249
1837,83518;2,5541
1835,78403;2,56528
1833,73287;2,58003
1831,68172;2,59699
1829,63056;2,61376
1827,57941;2,62892
1825,52825;2,64289
1823,4771;2,66099
1821,42594;2,68397
1819,37478;2,70702
1817,32363;2,72934
1815,27247;2,75351
1813,22132;2,78246
1811,17016;2,81992
1809,11901;2,86995
1807,06785;2,93116
1805,0167;2,99403
1802,96554;3,05792
1800,91439;3,12604
1798,86323;3,17064
1796,81208;3,17131
1794,76092;3,14974
1792,70977;3,11767
1790,65861;3,07757
1788,60745;3,03964
1786,5563;3,00121
1784,50514;2,957
1782,45399;2,91605
1780,40283;2,89021
1778,35168;2,87877
1776,30052;2,87341
1774,24937;2,86643
1772,19821;2,85329
1770,14706;2,8408
1768,0959;2,84162
1766,04475;2,85434
1763,99359;2,86878
1761,94244;2,87986
1759,89128;2,88759
1757,84012;2,89571
1755,78897;2,90473
1753,73781;2,90738
1751,68666;2,90131
1749,6355;2,89999
1747,58435;2,90995
1745,53319;2,91423
1743,48204;2,90859
1741,43088;2,90949
1739,37973;2,92277
1737,32857;2,93962
1735,27742;2,9553
1733,22626;2,9648
1731,17511;2,96463
1729,12395;2,96534
1727,07279;2,9761
1725,02164;2,99079
1722,97048;2,99474
1720,91933;2,98126
1718,86817;2,95703
1716,81702;2,9418
1714,76586;2,95814
1712,71471;2,99853
1710,66355;3,03093
1708,6124;3,03813
1706,56124;3,03128
1704,51009;3,02424
1702,45893;3,02411
1700,40778;3,04264
1698,35662;3,07226
1696,30546;3,08342
1694,25431;3,0806
1692,20315;3,08064
1690,152;3,08489
1688,10084;3,09233
1686,04969;3,10615
1683,99853;3,13118
1681,94738;3,16144
1679,89622;3,17709
1677,84507;3,17387
1675,79391;3,17047
1673,74276;3,18517
1671,6916;3,21449
1669,64045;3,23746
1667,58929;3,2363
1665,53813;3,23312
1663,48698;3,24543
1661,43582;3,25736
1659,38467;3,25193
1657,33351;3,22216
1655,28236;3,18577
1653,2312;3,19058
1651,18005;3,23651
1649,12889;3,26363
1647,07774;3,27577
1645,02658;3,29095
1642,97543;3,31411
1640,92427;3,34674
1638,87312;3,36527
1636,82196;3,35699
1634,7708;3,34742
1632,71965;3,3436
1630,66849;3,33344
1628,61734;3,32506
1626,56618;3,33682
1624,51503;3,36457
1622,46387;3,37541
1620,41272;3,35958
1618,36156;3,33426
1616,31041;3,30677
1614,25925;3,29485
1612,2081;3,29966
1610,15694;3,29985
1608,10579;3,29237
1606,05463;3,29245
1604,00347;3,30494
1601,95232;3,31099
1599,90116;3,29581
1597,85001;3,26433
1595,79885;3,23964
1593,7477;3,2444
1591,69654;3,26801
1589,64539;3,27358
1587,59423;3,24308
1585,54308;3,19115
1583,49192;3,1374
1581,44077;3,09078
1579,38961;3,0458
1577,33846;2,99793
1575,2873;2,95765
1573,23614;2,93043
1571,18499;2,89535
1569,13383;2,83605
1567,08268;2,76955
1565,03152;2,71565
1562,98037;2,67776
1560,92921;2,63996
1558,87806;2,58012
1556,8269;2,5233
1554,77575;2,49166
1552,72459;2,4719
1550,67344;2,45656
1548,62228;2,44553
1546,57113;2,43884
1544,51997;2,43031
1542,46881;2,41622
1540,41766;2,40969
1538,3665;2,42373
1536,31535;2,4409
1534,26419;2,44474
1532,21304;2,44152
1530,16188;2,44256
1528,11073;2,4447
1526,05957;2,44368
1524,00842;2,44055
1521,95726;2,43618
1519,90611;2,43506
1517,85495;2,43927
1515,80379;2,44381
1513,75264;2,4464
1511,70148;2,44744
1509,65033;2,44278
1507,59917;2,43212
1505,54802;2,43299
1503,49686;2,44899
1501,44571;2,46043
1499,39455;2,45993
1497,3434;2,45743
1495,29224;2,46157
1493,24109;2,46651
1491,18993;2,46586
1489,13878;2,4624
1487,08762;2,46176
1485,03646;2,46574
1482,98531;2,47288
1480,93415;2,48079
1478,883;2,48754
1476,83184;2,49147
1474,78069;2,49224
1472,72953;2,48891
1470,67838;2,48242
1468,62722;2,47849
1466,57607;2,47621
1464,52491;2,47151
1462,47376;2,46574
1460,4226;2,46103
1458,37145;2,45632
1456,32029;2,45378
1454,26913;2,45636
1452,21798;2,45987
1450,16682;2,46082
1448,11567;2,45913
1446,06451;2,45652
1444,01336;2,45394
1441,9622;2,45157
1439,91105;2,4496
1437,85989;2,44465
1435,80874;2,43474
1433,75758;2,4252
1431,70643;2,41869
1429,65527;2,41454
1427,60412;2,41197
1425,55296;2,40752
1423,5018;2,39914
1421,45065;2,3874
1419,39949;2,37199
1417,34834;2,35661
1415,29718;2,34581
1413,24603;2,33768
1411,19487;2,33136
1409,14372;2,32958
1407,09256;2,33493
1405,04141;2,34848
1402,99025;2,36733
1400,9391;2,3836
1398,88794;2,39274
1396,83679;2,40046
1394,78563;2,41346
1392,73447;2,42845
1390,68332;2,44277
1388,63216;2,45923
1386,58101;2,47604
1384,52985;2,48764
1382,4787;2,49516
1380,42754;2,50434
1378,37639;2,51577
1376,32523;2,52378
1374,27408;2,52779
1372,22292;2,53438
1370,17177;2,54365
1368,12061;2,54969
1366,06946;2,55336
1364,0183;2,55998
1361,96714;2,56681
1359,91599;2,56803
1357,86483;2,56601
1355,81368;2,56529
1353,76252;2,56582
1351,71137;2,56415
1349,66021;2,56112
1347,60906;2,56163
1345,5579;2,56367
1343,50675;2,56125
1341,45559;2,55382
1339,40444;2,54633
1337,35328;2,5434
1335,30213;2,54189
1333,25097;2,5392
1331,19981;2,53898
1329,14866;2,54081
1327,0975;2,54237
1325,04635;2,54572
1322,99519;2,55042
1320,94404;2,55196
1318,89288;2,54783
1316,84173;2,54269
1314,79057;2,54032
1312,73942;2,53675
1310,68826;2,53067
1308,63711;2,52608
1306,58595;2,52384
1304,5348;2,52019
1302,48364;2,51563
1300,43248;2,51398
1298,38133;2,51379
1296,33017;2,5118
1294,27902;2,50876
1292,22786;2,50736
1290,17671;2,50847
1288,12555;2,51057
1286,0744;2,51136
1284,02324;2,51267
1281,97209;2,51793
1279,92093;2,52456
1277,86978;2,52603
1275,81862;2,52135
1273,76747;2,51691
1271,71631;2,51613
1269,66515;2,51816
1267,614;2,52319
1265,56284;2,52742
1263,51169;2,52476
1261,46053;2,51821
1259,40938;2,51604
1257,35822;2,52007
1255,30707;2,52607
1253,25591;2,52931
1251,20476;2,52959
1249,1536;2,52834
1247,10245;2,52803
1245,05129;2,53118
1243,00013;2,53331
1240,94898;2,53339
1238,89782;2,53794
1236,84667;2,54696
1234,79551;2,55461
1232,74436;2,55798
1230,6932;2,55692
1228,64205;2,55218
1226,59089;2,54874
1224,53974;2,5519
1222,48858;2,55864
1220,43743;2,56214
1218,38627;2,56053
1216,33512;2,55633
1214,28396;2,55465
1212,2328;2,55923
1210,18165;2,56666
1208,13049;2,57045
1206,07934;2,57218
1204,02818;2,57743
1201,97703;2,58489
1199,92587;2,59457
1197,87472;2,60506
1195,82356;2,60869
1193,77241;2,61059
1191,72125;2,61495
1189,6701;2,61405
1187,61894;2,60874
1185,56779;2,60676
1183,51663;2,6109
1181,46547;2,62055
1179,41432;2,62944
1177,36316;2,63187
1175,31201;2,6329
1173,26085;2,63803
1171,2097;2,64332
1169,15854;2,64479
1167,10739;2,64295
1165,05623;2,64033
1163,00508;2,64063
1160,95392;2,64641
1158,90277;2,65223
1156,85161;2,64734
1154,80046;2,63634
1152,7493;2,63328
1150,69814;2,63408
1148,64699;2,62825
1146,59583;2,62572
1144,54468;2,63191
1142,49352;2,6355
1140,44237;2,63651
1138,39121;2,63967
1136,34006;2,63657
1134,2889;2,62816
1132,23775;2,62481
1130,18659;2,62411
1128,13544;2,62054
1126,08428;2,61757
1124,03313;2,62259
1121,98197;2,63697
1119,93081;2,64925
1117,87966;2,64826
1115,8285;2,64291
1113,77735;2,64398
1111,72619;2,64467
1109,67504;2,64182
1107,62388;2,64013
1105,57273;2,64586
1103,52157;2,65954
1101,47042;2,66305
1099,41926;2,65565
1097,36811;2,65715
1095,31695;2,66539
1093,2658;2,67284
1091,21464;2,68596
1089,16348;2,70151
1087,11233;2,71451
1085,06117;2,73087
1083,01002;2,73893
1080,95886;2,72344
1078,90771;2,70232
1076,85655;2,69237
1074,8054;2,68793
1072,75424;2,68441
1070,70309;2,6828
1068,65193;2,68461
1066,60078;2,68312
1064,54962;2,67211
1062,49847;2,66488
1060,44731;2,67135
1058,39615;2,6809
1056,345;2,67978
1054,29384;2,668
1052,24269;2,659
1050,19153;2,66087
1048,14038;2,66286
1046,08922;2,66004
1044,03807;2,66011
1041,98691;2,66549
1039,93576;2,66976
1037,8846;2,66706
1035,83345;2,66351
1033,78229;2,66792
1031,73114;2,67893
1029,67998;2,68717
1027,62882;2,68598
1025,57767;2,68128
1023,52651;2,68344
1021,47536;2,69193
1019,4242;2,70348
1017,37305;2,71286
1015,32189;2,70903
1013,27074;2,69969
1011,21958;2,69567
1009,16843;2,69121
1007,11727;2,68856
1005,06612;2,69407
1003,01496;2,70199
1000,96381;2,70281
998,91265;2,69558
996,86149;2,68995
994,81034;2,68686
992,75918;2,68115
990,70803;2,67577
988,65687;2,66931
986,60572;2,66441
984,55456;2,6696
982,50341;2,67598
980,45225;2,67059
978,4011;2,65994
976,34994;2,65387
974,29879;2,64941
972,24763;2,6477
970,19647;2,65443
968,14532;2,66053
966,09416;2,65899
964,04301;2,65772
961,99185;2,65383
959,9407;2,64409
957,88954;2,64813
955,83839;2,66906
953,78723;2,68279
951,73608;2,68426
949,68492;2,68784
947,63377;2,7
945,58261;2,70851
943,53146;2,70116
941,4803;2,6908
939,42914;2,69148
937,37799;2,69913
935,32683;2,70626
933,27568;2,7109
931,22452;2,71162
929,17337;2,70957
927,12221;2,69949
925,07106;2,6858
923,0199;2,68416
920,96875;2,68943
918,91759;2,69074
916,86644;2,69329
914,81528;2,6972
912,76413;2,69301
910,71297;2,68368
908,66181;2,68201
906,61066;2,68487
904,5595;2,67901
902,50835;2,67172
900,45719;2,678
898,40604;2,69092
896,35488;2,68826
894,30373;2,66758
892,25257;2,62677
890,20142;2,55541
888,15026;2,49068
886,09911;2,48337
884,04795;2,53401
881,9968;2,5896
879,94564;2,60233
877,89448;2,58774
875,84333;2,57027
873,79217;2,55628
871,74102;2,56332
869,68986;2,59884
867,63871;2,63934
865,58755;2,66911
863,5364;2,68847
861,48524;2,71087
859,43409;2,73682
857,38293;2,73253
855,33178;2,70754
853,28062;2,70614
851,22947;2,74196
849,17831;2,78575
847,12715;2,78052
845,076;2,72826
843,02484;2,68134
840,97369;2,66292
838,92253;2,6663
836,87138;2,68169
834,82022;2,69868
832,76907;2,69761
830,71791;2,67777
828,66676;2,66278
826,6156;2,65975
824,56445;2,67187
822,51329;2,69494
820,46214;2,7105
818,41098;2,7167
816,35982;2,72033
814,30867;2,71312
812,25751;2,69997
810,20636;2,69302
808,1552;2,69068
806,10405;2,69002
804,05289;2,69067
802,00174;2,6929
799,95058;2,70242
797,89943;2,72711
795,84827;2,76526
793,79712;2,77615
791,74596;2,74938
789,69481;2,72311
787,64365;2,72123
785,59249;2,74788
783,54134;2,76953
781,49018;2,77549
779,43903;2,79766
777,38787;2,82161
775,33672;2,80996
773,28556;2,78337
771,23441;2,77838
769,18325;2,80121
767,1321;2,82203
765,08094;2,80726
763,02979;2,78147
760,97863;2,77423
758,92748;2,77102
756,87632;2,76656
754,82516;2,76998
752,77401;2,77184
750,72285;2,76461
748,6717;2,76228
746,62054;2,7702
744,56939;2,77975
742,51823;2,79388
740,46708;2,80813
738,41592;2,80022
736,36477;2,79165
734,31361;2,80177
732,26246;2,8196
730,2113;2,84738
728,16015;2,88752
726,10899;2,92824
724,05783;2,98376
722,00668;3,06518
719,95552;3,1378
717,90437;3,16805
715,85321;3,14744
713,80206;3,09694
711,7509;3,03854
709,69975;2,98481
707,64859;2,93086
705,59744;2,87437
703,54628;2,83332
701,49513;2,81658
699,44397;2,82301
697,39281;2,83624
695,34166;2,82707
693,2905;2,8038
691,23935;2,81056
689,18819;2,85744
687,13704;2,89921
685,08588;2,8831
683,03473;2,82323
680,98357;2,78443
678,93242;2,78556
676,88126;2,793
674,83011;2,79431
672,77895;2,80428
670,7278;2,82293
668,67664;2,83618
666,62548;2,83287
664,57433;2,82246
662,52317;2,8174
660,47202;2,82011
658,42086;2,81844
656,36971;2,80744
654,31855;2,80566
652,2674;2,82947
650,21624;2,86502
648,16509;2,88919
646,11393;2,89269
644,06278;2,8791
642,01162;2,87061
639,96047;2,87787
637,90931;2,88271
635,85815;2,88031
633,807;2,87883
631,75584;2,88644
629,70469;2,90366
627,65353;2,91999
625,60238;2,95006
623,55122;2,99659
621,50007;3,04845
619,44891;3,05356
617,39776;2,97771
615,3466;2,93057
613,29545;2,96829
611,24429;2,97175
609,19314;2,89687
607,14198;2,86591
605,09082;2,90865
603,03967;2,94644
600,98851;2,93483
598,93736;2,91104
596,8862;2,90684
594,83505;2,9233
592,78389;2,96982
590,73274;3,06367
588,68158;3,12031
586,63043;3,08945
584,57927;3,01414
582,52812;2,92064
580,47696;2,85483
578,42581;2,88859
576,37465;2,95657
574,32349;2,96007
572,27234;2,95293
570,22118;2,98082
568,17003;3,00171
566,11887;2,98222
564,06772;2,92842
562,01656;2,89117
559,96541;2,92335
557,91425;2,98
555,8631;2,98986
553,81194;2,98187
551,76079;3,00445
549,70963;3,02511
547,65848;3,027
545,60732;3,00193
543,55616;2,97783
541,50501;3,02516
539,45385;3,09058
537,4027;3,10211
535,35154;3,10299
533,30039;3,14293
531,24923;3,25173
529,19808;3,40888
527,14692;3,42136
525,09577;3,28673
523,04461;3,20015
520,99346;3,20795
518,9423;3,16715
516,89115;3,06332
514,83999;3,01657
512,78883;3,04554
510,73768;3,17199
508,68652;3,26311
506,63537;3,17653
504,58421;3,09029
502,53306;3,10759
500,4819;3,09508
498,43075;3,0434
496,37959;3,04786
494,32844;3,06808
492,27728;3,0584
490,22613;3,05206
488,17497;3,05285
486,12382;3,06554
484,07266;3,13282
482,0215;3,20148
479,97035;3,22239
477,91919;3,34061
475,86804;3,39589
473,81688;3,27581
471,76573;3,2451
469,71457;3,21279
467,66342;3,17751
465,61226;3,24061
463,56111;3,3532
461,50995;3,43638
459,4588;3,24637
457,40764;3,11849
455,35649;3,13777
453,30533;3,07393
451,25417;3,04351
449,20302;3,15292
447,15186;3,36128
445,10071;3,26804
443,04955;3,06668
440,9984;3,09777
438,94724;3,13573
436,89609;2,97266
434,84493;2,93256
432,79378;3,02276
430,74262;3,01304
428,69147;3,07771
426,64031;3,20285
424,58916;3,03883
422,538;2,91193
420,48684;2,9486
418,43569;2,96593
416,38453;2,87293
414,33338;2,80828
412,28222;2,75781
410,23107;2,75292
408,17991;2,71759
406,12876;2,6953
404,0776;2,7035
402,02645;2,72073
399,97529;2,74315
