3997,70175;1,79585
3995,6506;1,79373
3993,59944;1,79147
3991,54829;1,79213
3989,49713;1,79518
3987,44598;1,79793
3985,39482;1,79889
3983,34367;1,79821
3981,29251;1,79706
3979,24136;1,79637
3977,1902;1,79706
3975,13905;1,79974
3973,08789;1,80252
3971,03673;1,80333
3968,98558;1,80351
3966,93442;1,8057
3964,88327;1,80974
3962,83211;1,81334
3960,78096;1,81545
3958,7298;1,81592
3956,67865;1,81594
3954,62749;1,81746
3952,57634;1,82
3950,52518;1,82218
3948,47403;1,82423
3946,42287;1,82626
3944,37172;1,82642
3942,32056;1,825
3940,2694;1,82428
3938,21825;1,8241
3936,16709;1,82329
3934,11594;1,82106
3932,06478;1,81832
3930,01363;1,81641
3927,96247;1,81416
3925,91132;1,80987
3923,86016;1,80653
3921,80901;1,80596
3919,75785;1,80396
3917,7067;1,79839
3915,65554;1,7927
3913,60439;1,78987
3911,55323;1,78929
3909,50207;1,79039
3907,45092;1,79165
3905,39976;1,79131
3903,34861;1,79083
3901,29745;1,78994
3899,2463;1,78665
3897,19514;1,78441
3895,14399;1,78381
3893,09283;1,78161
3891,04168;1,77992
3888,99052;1,78203
3886,93937;1,78378
3884,88821;1,78581
3882,83706;1,78762
3880,7859;1,78503
3878,73474;1,7835
3876,68359;1,78418
3874,63243;1,78437
3872,58128;1,78419
3870,53012;1,78149
3868,47897;1,78165
3866,42781;1,78437
3864,37666;1,78341
3862,3255;1,77994
3860,27435;1,77752
3858,22319;1,77723
3856,17204;1,77451
3854,12088;1,76685
3852,06973;1,76396
3850,01857;1,76775
3847,96741;1,77037
3845,91626;1,77042
3843,8651;1,77113
3841,81395;1,77399
3839,76279;1,77572
3837,71164;1,7755
3835,66048;1,77539
3833,60933;1,77555
3831,55817;1,77677
3829,50702;1,77869
3827,45586;1,77851
3825,40471;1,77815
3823,35355;1,77783
3821,3024;1,77762
3819,25124;1,78045
3817,20008;1,77866
3815,14893;1,77418
3813,09777;1,77428
3811,04662;1,7761
3808,99546;1,77643
3806,94431;1,77665
3804,89315;1,77909
3802,842;1,77738
3800,79084;1,77506
3798,73969;1,77777
3796,68853;1,77885
3794,63738;1,77904
3792,58622;1,77999
3790,53506;1,7809
3788,48391;1,78253
3786,43275;1,78472
3784,3816;1,78723
3782,33044;1,78937
3780,27929;1,78924
3778,22813;1,78908
3776,17698;1,79031
3774,12582;1,79133
3772,07467;1,79121
3770,02351;1,79144
3767,97236;1,79403
3765,9212;1,7968
3763,87005;1,80028
3761,81889;1,80255
3759,76773;1,80232
3757,71658;1,804
3755,66542;1,8087
3753,61427;1,81285
3751,56311;1,81512
3749,51196;1,81914
3747,4608;1,82432
3745,40965;1,8233
3743,35849;1,82222
3741,30734;1,82714
3739,25618;1,83283
3737,20503;1,83743
3735,15387;1,8415
3733,10272;1,84528
3731,05156;1,84994
3729,0004;1,85525
3726,94925;1,85866
3724,89809;1,86167
3722,84694;1,86504
3720,79578;1,86858
3718,74463;1,87307
3716,69347;1,87874
3714,64232;1,88441
3712,59116;1,89051
3710,54001;1,89977
3708,48885;1,91055
3706,4377;1,91954
3704,38654;1,92746
3702,33539;1,93874
3700,28423;1,95625
3698,23307;1,97477
3696,18192;1,98936
3694,13076;1,99933
3692,07961;2,00487
3690,02845;2,00694
3687,9773;2,00811
3685,92614;2,01151
3683,87499;2,01642
3681,82383;2,02269
3679,77268;2,02957
3677,72152;2,03575
3675,67037;2,04635
3673,61921;2,06659
3671,56806;2,08326
3669,5169;2,09542
3667,46574;2,11057
3665,41459;2,12465
3663,36343;2,13754
3661,31228;2,15174
3659,26112;2,16549
3657,20997;2,17752
3655,15881;2,19329
3653,10766;2,21253
3651,0565;2,23183
3649,00535;2,25372
3646,95419;2,27214
3644,90304;2,28358
3642,85188;2,29324
3640,80073;2,30371
3638,74957;2,31423
3636,69841;2,32382
3634,64726;2,33055
3632,5961;2,33567
3630,54495;2,34414
3628,49379;2,36294
3626,44264;2,38653
3624,39148;2,40645
3622,34033;2,42725
3620,28917;2,4454
3618,23802;2,45443
3616,18686;2,45906
3614,13571;2,46537
3612,08455;2,47564
3610,0334;2,48224
3607,98224;2,48062
3605,93108;2,48395
3603,87993;2,49863
3601,82877;2,51455
3599,77762;2,52405
3597,72646;2,53328
3595,67531;2,54778
3593,62415;2,56156
3591,573;2,5709
3589,52184;2,57808
3587,47069;2,58497
3585,41953;2,59159
3583,36838;2,59891
3581,31722;2,60945
3579,26607;2,61874
3577,21491;2,62173
3575,16375;2,62376
3573,1126;2,62896
3571,06144;2,63202
3569,01029;2,63172
3566,95913;2,63711
3564,90798;2,65396
3562,85682;2,6763
3560,80567;2,69477
3558,75451;2,70435
3556,70336;2,70724
3554,6522;2,70893
3552,60105;2,71772
3550,54989;2,73403
3548,49874;2,74371
3546,44758;2,74915
3544,39642;2,76419
3542,34527;2,77913
3540,29411;2,7812
3538,24296;2,77948
3536,1918;2,7788
3534,14065;2,77257
3532,08949;2,763
3530,03834;2,76027
3527,98718;2,77225
3525,93603;2,79661
3523,88487;2,82472
3521,83372;2,85062
3519,78256;2,86832
3517,73141;2,87394
3515,68025;2,87002
3513,62909;2,85995
3511,57794;2,84863
3509,52678;2,8472
3507,47563;2,8636
3505,42447;2,89076
3503,37332;2,90147
3501,32216;2,89257
3499,27101;2,89781
3497,21985;2,91179
3495,1687;2,90632
3493,11754;2,8927
3491,06639;2,88959
3489,01523;2,89462
3486,96407;2,899
3484,91292;2,90165
3482,86176;2,89785
3480,81061;2,88705
3478,75945;2,89251
3476,7083;2,91793
3474,65714;2,94139
3472,60599;2,95531
3470,55483;2,95958
3468,50368;2,95066
3466,45252;2,94313
3464,40137;2,95045
3462,35021;2,95706
3460,29906;2,9586
3458,2479;2,96881
3456,19674;2,98066
3454,14559;2,99204
3452,09443;2,99987
3450,04328;2,99446
3447,99212;2,98454
3445,94097;2,97868
3443,88981;2,97117
3441,83866;2,96148
3439,7875;2,94748
3437,73635;2,9346
3435,68519;2,93802
3433,63404;2,95037
3431,58288;2,95329
3429,53173;2,96173
3427,48057;2,9863
3425,42941;3,00474
3423,37826;2,99935
3421,3271;2,98153
3419,27595;2,97021
3417,22479;2,96858
3415,17364;2,97468
3413,12248;2,96925
3411,07133;2,94075
3409,02017;2,92097
3406,96902;2,92522
3404,91786;2,93289
3402,86671;2,93396
3400,81555;2,9316
3398,7644;2,93143
3396,71324;2,92847
3394,66208;2,92991
3392,61093;2,9519
3390,55977;2,98635
3388,50862;3,01008
3386,45746;3,01209
3384,40631;2,98141
3382,35515;2,93594
3380,304;2,91417
3378,25284;2,91735
3376,20169;2,93389
3374,15053;2,96433
3372,09938;2,98958
3370,04822;2,98753
3367,99707;2,96868
3365,94591;2,95745
3363,89475;2,95946
3361,8436;2,97121
3359,79244;2,98141
3357,74129;2,97227
3355,69013;2,95354
3353,63898;2,9529
3351,58782;2,96933
3349,53667;2,97502
3347,48551;2,96314
3345,43436;2,95462
3343,3832;2,95782
3341,33205;2,95853
3339,28089;2,95099
3337,22974;2,94552
3335,17858;2,95411
3333,12742;2,97018
3331,07627;2,96861
3329,02511;2,9573
3326,97396;2,95827
3324,9228;2,96028
3322,87165;2,94777
3320,82049;2,92759
3318,76934;2,91906
3316,71818;2,92266
3314,66703;2,91165
3312,61587;2,89582
3310,56472;2,90465
3308,51356;2,92771
3306,46241;2,93635
3304,41125;2,92357
3302,36009;2,90032
3300,30894;2,88231
3298,25778;2,87724
3296,20663;2,87966
3294,15547;2,88248
3292,10432;2,88154
3290,05316;2,87365
3288,00201;2,8689
3285,95085;2,88293
3283,8997;2,9007
3281,84854;2,89957
3279,79739;2,88557
3277,74623;2,87293
3275,69508;2,86395
3273,64392;2,86302
3271,59276;2,87485
3269,54161;2,88437
3267,49045;2,88538
3265,4393;2,88358
3263,38814;2,88009
3261,33699;2,87982
3259,28583;2,88014
3257,23468;2,87261
3255,18352;2,86255
3253,13237;2,85304
3251,08121;2,84358
3249,03006;2,84082
3246,9789;2,84518
3244,92775;2,84612
3242,87659;2,84079
3240,82543;2,84083
3238,77428;2,84888
3236,72312;2,85245
3234,67197;2,841
3232,62081;2,818
3230,56966;2,80363
3228,5185;2,80632
3226,46735;2,81729
3224,41619;2,82608
3222,36504;2,82094
3220,31388;2,81103
3218,26273;2,80665
3216,21157;2,79689
3214,16041;2,79029
3212,10926;2,80066
3210,0581;2,80813
3208,00695;2,79939
3205,95579;2,79468
3203,90464;2,80002
3201,85348;2,80199
3199,80233;2,79958
3197,75117;2,79813
3195,70002;2,7953
3193,64886;2,79141
3191,59771;2,78926
3189,54655;2,78255
3187,4954;2,76614
3185,44424;2,75003
3183,39308;2,75176
3181,34193;2,76821
3179,29077;2,77393
3177,23962;2,76021
3175,18846;2,74867
3173,13731;2,74833
3171,08615;2,74499
3169,035;2,74069
3166,98384;2,74258
3164,93269;2,73827
3162,88153;2,72396
3160,83038;2,71908
3158,77922;2,72903
3156,72807;2,7412
3154,67691;2,74612
3152,62575;2,732
3150,5746;2,71176
3148,52344;2,70781
3146,47229;2,71566
3144,42113;2,72469
3142,36998;2,72736
3140,31882;2,7202
3138,26767;2,71032
3136,21651;2,70412
3134,16536;2,70597
3132,1142;2,71106
3130,06305;2,70336
3128,01189;2,68951
3125,96074;2,68652
3123,90958;2,69181
3121,85842;2,6927
3119,80727;2,68525
3117,75611;2,67605
3115,70496;2,67299
3113,6538;2,6779
3111,60265;2,68281
3109,55149;2,6817
3107,50034;2,67789
3105,44918;2,67627
3103,39803;2,67678
3101,34687;2,676
3099,29572;2,67285
3097,24456;2,67099
3095,19341;2,67322
3093,14225;2,67396
3091,09109;2,66798
3089,03994;2,65644
3086,98878;2,6458
3084,93763;2,64433
3082,88647;2,65114
3080,83532;2,65706
3078,78416;2,65822
3076,73301;2,6573
3074,68185;2,65473
3072,6307;2,65186
3070,57954;2,65337
3068,52839;2,65971
3066,47723;2,66286
3064,42608;2,65719
3062,37492;2,6493
3060,32376;2,64705
3058,27261;2,64863
3056,22145;2,64568
3054,1703;2,63247
3052,11914;2,61668
3050,06799;2,60869
3048,01683;2,60585
3045,96568;2,60484
3043,91452;2,60529
3041,86337;2,60587
3039,81221;2,61107
3037,76106;2,62027
3035,7099;2,62174
3033,65875;2,6112
3031,60759;2,5957
3029,55643;2,58608
3027,50528;2,58712
3025,45412;2,58976
3023,40297;2,58491
3021,35181;2,57851
3019,30066;2,58177
3017,2495;2,58894
3015,19835;2,58491
3013,14719;2,57145
3011,09604;2,56314
3009,04488;2,56464
3006,99373;2,56979
3004,94257;2,5771
3002,89142;2,58578
3000,84026;2,59153
2998,7891;2,59263
2996,73795;2,59198
2994,68679;2,59494
2992,63564;2,60339
2990,58448;2,61461
2988,53333;2,6185
2986,48217;2,61255
2984,43102;2,60995
2982,37986;2,61978
2980,32871;2,63595
2978,27755;2,64624
2976,2264;2,64757
2974,17524;2,64747
2972,12409;2,65335
2970,07293;2,65649
2968,02177;2,65378
2965,97062;2,65744
2963,91946;2,65887
2961,86831;2,6505
2959,81715;2,64561
2957,766;2,64656
2955,71484;2,64641
2953,66369;2,6422
2951,61253;2,63412
2949,56138;2,62401
2947,51022;2,61664
2945,45907;2,61822
2943,40791;2,63165
2941,35675;2,64968
2939,3056;2,65282
2937,25444;2,64055
2935,20329;2,63242
2933,15213;2,63045
2931,10098;2,63224
2929,04982;2,6343
2926,99867;2,62698
2924,94751;2,62135
2922,89636;2,62433
2920,8452;2,62547
2918,79405;2,62581
2916,74289;2,62359
2914,69174;2,61301
2912,64058;2,6053
2910,58942;2,60469
2908,53827;2,60474
2906,48711;2,60471
2904,43596;2,60332
2902,3848;2,59923
2900,33365;2,59188
2898,28249;2,58596
2896,23134;2,58497
2894,18018;2,57991
2892,12903;2,56863
2890,07787;2,56046
2888,02672;2,55892
2885,97556;2,5602
2883,92441;2,56511
2881,87325;2,57074
2879,82209;2,56938
2877,77094;2,56889
2875,71978;2,5743
2873,66863;2,57458
2871,61747;2,56947
2869,56632;2,56493
2867,51516;2,55668
2865,46401;2,54728
2863,41285;2,54554
2861,3617;2,54923
2859,31054;2,54744
2857,25939;2,53766
2855,20823;2,53159
2853,15708;2,52905
2851,10592;2,52026
2849,05476;2,51033
2847,00361;2,5046
2844,95245;2,49985
2842,9013;2,49447
2840,85014;2,48743
2838,79899;2,47856
2836,74783;2,47197
2834,69668;2,47105
2832,64552;2,46823
2830,59437;2,45693
2828,54321;2,44704
2826,49206;2,44593
2824,4409;2,44648
2822,38975;2,44187
2820,33859;2,43604
2818,28743;2,43251
2816,23628;2,42879
2814,18512;2,42494
2812,13397;2,42148
2810,08281;2,41727
2808,03166;2,41517
2805,9805;2,41684
2803,92935;2,41584
2801,87819;2,40744
2799,82704;2,39836
2797,77588;2,39425
2795,72473;2,39306
2793,67357;2,39432
2791,62242;2,39322
2789,57126;2,3844
2787,5201;2,37402
2785,46895;2,36729
2783,41779;2,3621
2781,36664;2,35742
2779,31548;2,35529
2777,26433;2,3556
2775,21317;2,35409
2773,16202;2,34905
2771,11086;2,34491
2769,05971;2,34347
2767,00855;2,34261
2764,9574;2,34145
2762,90624;2,33744
2760,85509;2,33177
2758,80393;2,32785
2756,75277;2,324
2754,70162;2,32006
2752,65046;2,31845
2750,59931;2,3184
2748,54815;2,31697
2746,497;2,3139
2744,44584;2,313
2742,39469;2,31455
2740,34353;2,31376
2738,29238;2,3101
2736,24122;2,30704
2734,19007;2,3055
2732,13891;2,30494
2730,08776;2,30532
2728,0366;2,30603
2725,98544;2,30417
2723,93429;2,29809
2721,88313;2,29072
2719,83198;2,28516
2717,78082;2,28334
2715,72967;2,28392
2713,67851;2,28326
2711,62736;2,28202
2709,5762;2,28166
2707,52505;2,28166
2705,47389;2,28036
2703,42274;2,27835
2701,37158;2,27806
2699,32043;2,2792
2697,26927;2,2808
2695,21811;2,28055
2693,16696;2,2775
2691,1158;2,27349
2689,06465;2,26889
2687,01349;2,26615
2684,96234;2,2689
2682,91118;2,27304
2680,86003;2,27351
2678,80887;2,2722
2676,75772;2,27115
2674,70656;2,27028
2672,65541;2,2686
2670,60425;2,26696
2668,55309;2,26759
2666,50194;2,26914
2664,45078;2,26827
2662,39963;2,26535
2660,34847;2,26385
2658,29732;2,26366
2656,24616;2,26235
2654,19501;2,26151
2652,14385;2,26357
2650,0927;2,26613
2648,04154;2,2667
2645,99039;2,26667
2643,93923;2,26712
2641,88808;2,26928
2639,83692;2,27374
2637,78576;2,27861
2635,73461;2,2849
2633,68345;2,29292
2631,6323;2,29716
2629,58114;2,29709
2627,52999;2,29798
2625,47883;2,30232
2623,42768;2,30997
2621,37652;2,31688
2619,32537;2,31967
2617,27421;2,32056
2615,22306;2,32278
2613,1719;2,3274
2611,12075;2,33262
2609,06959;2,33532
2607,01843;2,33406
2604,96728;2,33331
2602,91612;2,3394
2600,86497;2,34935
2598,81381;2,35423
2596,76266;2,35359
2594,7115;2,35312
2592,66035;2,35291
2590,60919;2,35315
2588,55804;2,35522
2586,50688;2,35617
2584,45573;2,35541
2582,40457;2,35658
2580,35342;2,36132
2578,30226;2,36702
2576,2511;2,37104
2574,19995;2,37504
2572,14879;2,38021
2570,09764;2,38406
2568,04648;2,38676
2565,99533;2,39203
2563,94417;2,39769
2561,89302;2,39857
2559,84186;2,39957
2557,79071;2,40678
2555,73955;2,41518
2553,6884;2,41814
2551,63724;2,41767
2549,58609;2,41742
2547,53493;2,41514
2545,48377;2,41162
2543,43262;2,41108
2541,38146;2,41418
2539,33031;2,41916
2537,27915;2,42159
2535,228;2,4198
2533,17684;2,41843
2531,12569;2,42113
2529,07453;2,42473
2527,02338;2,42556
2524,97222;2,42607
2522,92107;2,42745
2520,86991;2,42747
2518,81876;2,42424
2516,7676;2,41804
2514,71644;2,41511
2512,66529;2,4185
2510,61413;2,42117
2508,56298;2,41934
2506,51182;2,41867
2504,46067;2,41871
2502,40951;2,4115
2500,35836;2,40173
2498,3072;2,39832
2496,25605;2,39718
2494,20489;2,3899
2492,15374;2,37527
2490,10258;2,35964
2488,05143;2,34937
2486,00027;2,34264
2483,94911;2,33424
2481,89796;2,32613
2479,8468;2,32191
2477,79565;2,31955
2475,74449;2,3139
2473,69334;2,30435
2471,64218;2,29642
2469,59103;2,29303
2467,53987;2,2925
2465,48872;2,28998
2463,43756;2,28408
2461,38641;2,27979
2459,33525;2,27722
2457,2841;2,27385
2455,23294;2,27197
2453,18178;2,27223
2451,13063;2,27158
2449,07947;2,26976
2447,02832;2,269
2444,97716;2,26793
2442,92601;2,26585
2440,87485;2,26574
2438,8237;2,26798
2436,77254;2,27375
2434,72139;2,2804
2432,67023;2,28091
2430,61908;2,27709
2428,56792;2,27325
2426,51677;2,2705
2424,46561;2,26859
2422,41445;2,26511
2420,3633;2,2602
2418,31214;2,25735
2416,26099;2,25578
2414,20983;2,25271
2412,15868;2,24935
2410,10752;2,24757
2408,05637;2,24659
2406,00521;2,24297
2403,95406;2,23731
2401,9029;2,23277
2399,85175;2,22943
2397,80059;2,22563
2395,74944;2,21985
2393,69828;2,21315
2391,64712;2,20792
2389,59597;2,2048
2387,54481;2,20336
2385,49366;2,20318
2383,4425;2,20397
2381,39135;2,20608
2379,34019;2,20909
2377,28904;2,21015
2375,23788;2,20709
2373,18673;2,20272
2371,13557;2,20196
2369,08442;2,20492
2367,03326;2,20637
2364,9821;2,20335
2362,93095;2,19972
2360,87979;2,19706
2358,82864;2,19177
2356,77748;2,1875
2354,72633;2,19015
2352,67517;2,19526
2350,62402;2,19667
2348,57286;2,1934
2346,52171;2,18932
2344,47055;2,18929
2342,4194;2,18955
2340,36824;2,18689
2338,31709;2,18612
2336,26593;2,18782
2334,21477;2,1885
2332,16362;2,18738
2330,11246;2,18672
2328,06131;2,18758
2326,01015;2,18739
2323,959;2,18391
2321,90784;2,17885
2319,85669;2,17437
2317,80553;2,17085
2315,75438;2,16889
2313,70322;2,16801
2311,65207;2,16705
2309,60091;2,16646
2307,54976;2,16567
2305,4986;2,16425
2303,44744;2,16439
2301,39629;2,1663
2299,34513;2,16722
2297,29398;2,16611
2295,24282;2,16395
2293,19167;2,16126
2291,14051;2,15903
2289,08936;2,15866
2287,0382;2,1591
2284,98705;2,15913
2282,93589;2,15949
2280,88474;2,15984
2278,83358;2,15903
2276,78243;2,15823
2274,73127;2,15923
2272,68011;2,16102
2270,62896;2,16236
2268,5778;2,1637
2266,52665;2,16468
2264,47549;2,1652
2262,42434;2,1665
2260,37318;2,16921
2258,32203;2,17211
2256,27087;2,17397
2254,21972;2,17595
2252,16856;2,17864
2250,11741;2,18028
2248,06625;2,18048
2246,0151;2,18057
2243,96394;2,18178
2241,91278;2,18513
2239,86163;2,1891
2237,81047;2,1918
2235,75932;2,19398
2233,70816;2,19652
2231,65701;2,19936
2229,60585;2,20194
2227,5547;2,20255
2225,50354;2,20168
2223,45239;2,20325
2221,40123;2,20793
2219,35008;2,21178
2217,29892;2,2135
2215,24777;2,21441
2213,19661;2,21471
2211,14545;2,21567
2209,0943;2,21736
2207,04314;2,21899
2204,99199;2,22152
2202,94083;2,22405
2200,88968;2,2249
2198,83852;2,22442
2196,78737;2,22451
2194,73621;2,22654
2192,68506;2,22976
2190,6339;2,23125
2188,58275;2,2297
2186,53159;2,22862
2184,48044;2,23053
2182,42928;2,23448
2180,37812;2,24026
2178,32697;2,24633
2176,27581;2,24969
2174,22466;2,25152
2172,1735;2,25397
2170,12235;2,25634
2168,07119;2,25834
2166,02004;2,26064
2163,96888;2,26341
2161,91773;2,2663
2159,86657;2,26873
2157,81542;2,27076
2155,76426;2,27359
2153,71311;2,27693
2151,66195;2,27954
2149,61079;2,28007
2147,55964;2,27906
2145,50848;2,27891
2143,45733;2,27954
2141,40617;2,28083
2139,35502;2,28318
2137,30386;2,28573
2135,25271;2,28649
2133,20155;2,28566
2131,1504;2,28539
2129,09924;2,28448
2127,04809;2,28172
2124,99693;2,27723
2122,94578;2,27114
2120,89462;2,26486
2118,84346;2,25984
2116,79231;2,25629
2114,74115;2,25367
2112,69;2,25211
2110,63884;2,25155
2108,58769;2,25166
2106,53653;2,25181
2104,48538;2,25065
2102,43422;2,24999
2100,38307;2,25164
2098,33191;2,25318
2096,28076;2,25459
2094,2296;2,25713
2092,17844;2,26035
2090,12729;2,26465
2088,07613;2,27004
2086,02498;2,2749
2083,97382;2,27931
2081,92267;2,28454
2079,87151;2,29002
2077,82036;2,29292
2075,7692;2,29269
2073,71805;2,29168
2071,66689;2,28867
2069,61574;2,2825
2067,56458;2,27701
2065,51343;2,27354
2063,46227;2,26923
2061,41111;2,26288
2059,35996;2,25684
2057,3088;2,25327
2055,25765;2,25136
2053,20649;2,24841
2051,15534;2,24455
2049,10418;2,24252
2047,05303;2,24137
2045,00187;2,23917
2042,95072;2,23741
2040,89956;2,23669
2038,84841;2,23472
2036,79725;2,23161
2034,7461;2,22945
2032,69494;2,22829
2030,64378;2,22837
2028,59263;2,22971
2026,54147;2,23153
2024,49032;2,23329
2022,43916;2,23353
2020,38801;2,23143
2018,33685;2,22947
2016,2857;2,23049
2014,23454;2,23261
2012,18339;2,23296
2010,13223;2,23196
2008,08108;2,23035
2006,02992;2,22857
2003,97877;2,2285
2001,92761;2,23121
1999,87645;2,23507
1997,8253;2,2401
1995,77414;2,24602
1993,72299;2,24769
1991,67183;2,24518
1989,62068;2,24487
1987,56952;2,24735
1985,51837;2,25119
1983,46721;2,25526
1981,41606;2,25703
1979,3649;2,25689
1977,31375;2,25879
1975,26259;2,26161
1973,21144;2,26216
1971,16028;2,26445
1969,10912;2,27109
1967,05797;2,27821
1965,00681;2,28393
1962,95566;2,28786
1960,9045;2,28928
1958,85335;2,28815
1956,80219;2,28465
1954,75104;2,28099
1952,69988;2,27949
1950,64873;2,28012
1948,59757;2,28274
1946,54642;2,28623
1944,49526;2,28713
1942,44411;2,2856
1940,39295;2,28688
1938,34179;2,29066
1936,29064;2,29358
1934,23948;2,29494
1932,18833;2,29609
1930,13717;2,29867
1928,08602;2,30297
1926,03486;2,30769
1923,98371;2,31042
1921,93255;2,31234
1919,8814;2,31545
1917,83024;2,31838
1915,77909;2,32064
1913,72793;2,32162
1911,67678;2,32229
1909,62562;2,32347
1907,57446;2,32336
1905,52331;2,32219
1903,47215;2,32344
1901,421;2,32703
1899,36984;2,33009
1897,31869;2,33238
1895,26753;2,33592
1893,21638;2,34168
1891,16522;2,3466
1889,11407;2,35037
1887,06291;2,35414
1885,01176;2,35674
1882,9606;2,36092
1880,90945;2,36611
1878,85829;2,36768
1876,80713;2,36485
1874,75598;2,3623
1872,70482;2,36487
1870,65367;2,37016
1868,60251;2,37646
1866,55136;2,38485
1864,5002;2,39146
1862,44905;2,39521
1860,39789;2,39882
1858,34674;2,40306
1856,29558;2,40805
1854,24443;2,4148
1852,19327;2,42338
1850,14212;2,43153
1848,09096;2,43886
1846,0398;2,44688
1843,98865;2,45683
1841,93749;2,46889
1839,88634;2,47628
1837,83518;2,47682
1835,78403;2,47696
1833,73287;2,48089
1831,68172;2,4857
1829,63056;2,49007
1827,57941;2,49538
1825,52825;2,49847
1823,4771;2,5022
1821,42594;2,51239
1819,37478;2,52818
1817,32363;2,5442
1815,27247;2,55792
1813,22132;2,57209
1811,17016;2,5883
1809,11901;2,60428
1807,06785;2,61869
1805,0167;2,6315
1802,96554;2,64024
1800,91439;2,64498
1798,86323;2,64825
1796,81208;2,64723
1794,76092;2,63935
1792,70977;2,63062
1790,65861;2,62714
1788,60745;2,62509
1786,5563;2,62204
1784,50514;2,61861
1782,45399;2,61277
1780,40283;2,60638
1778,35168;2,60284
1776,30052;2,5994
1774,24937;2,59475
1772,19821;2,593
1770,14706;2,59759
1768,0959;2,60439
1766,04475;2,61049
1763,99359;2,61452
1761,94244;2,61675
1759,89128;2,62037
1757,84012;2,62718
1755,78897;2,63673
1753,73781;2,64235
1751,68666;2,64337
1749,6355;2,64694
1747,58435;2,65234
1745,53319;2,65605
1743,48204;2,65582
1741,43088;2,65397
1739,37973;2,65876
1737,32857;2,67092
1735,27742;2,68077
1733,22626;2,68832
1731,17511;2,69307
1729,12395;2,69691
1727,07279;2,70697
1725,02164;2,71953
1722,97048;2,72861
1720,91933;2,73147
1718,86817;2,7351
1716,81702;2,75199
1714,76586;2,77278
1712,71471;2,78968
1710,66355;2,80839
1708,6124;2,83276
1706,56124;2,86578
1704,51009;2,90556
1702,45893;2,94154
1700,40778;2,97435
1698,35662;3,00671
1696,30546;3,02704
1694,25431;3,04444
1692,20315;3,06169
1690,152;3,07431
1688,10084;3,08603
1686,04969;3,0985
1683,99853;3,11788
1681,94738;3,13681
1679,89622;3,13835
1677,84507;3,12738
1675,79391;3,10451
1673,74276;3,08229
1671,6916;3,07841
1669,64045;3,08921
1667,58929;3,09904
1665,53813;3,09265
1663,48698;3,08096
1661,43582;3,0844
1659,38467;3,09029
1657,33351;3,08682
1655,28236;3,0895
1653,2312;3,10471
1651,18005;3,11935
1649,12889;3,11753
1647,07774;3,09495
1645,02658;3,07566
1642,97543;3,07573
1640,92427;3,07717
1638,87312;3,06498
1636,82196;3,04941
1634,7708;3,05757
1632,71965;3,08009
1630,66849;3,07983
1628,61734;3,05806
1626,56618;3,04614
1624,51503;3,05331
1622,46387;3,06527
1620,41272;3,06541
1618,36156;3,04749
1616,31041;3,03588
1614,25925;3,04762
1612,2081;3,05913
1610,15694;3,05974
1608,10579;3,0573
1606,05463;3,05615
1604,00347;3,05693
1601,95232;3,05872
1599,90116;3,05855
1597,85001;3,05776
1595,79885;3,06114
1593,7477;3,06647
1591,69654;3,06652
1589,64539;3,06301
1587,59423;3,06054
1585,54308;3,05553
1583,49192;3,04892
1581,44077;3,04882
1579,38961;3,05081
1577,33846;3,04114
1575,2873;3,02593
1573,23614;3,01742
1571,18499;3,01106
1569,13383;3,01148
1567,08268;3,01598
1565,03152;3,0044
1562,98037;2,97474
1560,92921;2,94206
1558,87806;2,93388
1556,8269;2,95247
1554,77575;2,95232
1552,72459;2,93853
1550,67344;2,9339
1548,62228;2,93048
1546,57113;2,91381
1544,51997;2,89698
1542,46881;2,89016
1540,41766;2,86898
1538,3665;2,83626
1536,31535;2,81616
1534,26419;2,80035
1532,21304;2,78829
1530,16188;2,78417
1528,11073;2,779
1526,05957;2,76874
1524,00842;2,75662
1521,95726;2,74636
1519,90611;2,74429
1517,85495;2,74352
1515,80379;2,74167
1513,75264;2,74579
1511,70148;2,75732
1509,65033;2,76844
1507,59917;2,76002
1505,54802;2,73918
1503,49686;2,73055
1501,44571;2,72623
1499,39455;2,72032
1497,3434;2,71862
1495,29224;2,72261
1493,24109;2,72488
1491,18993;2,72515
1489,13878;2,73189
1487,08762;2,74143
1485,03646;2,74646
1482,98531;2,74928
1480,93415;2,75522
1478,883;2,76548
1476,83184;2,77505
1474,78069;2,77935
1472,72953;2,77726
1470,67838;2,77416
1468,62722;2,76933
1466,57607;2,76495
1464,52491;2,77355
1462,47376;2,79115
1460,4226;2,80218
1458,37145;2,80909
1456,32029;2,82252
1454,26913;2,83821
1452,21798;2,8445
1450,16682;2,84351
1448,11567;2,84557
1446,06451;2,85081
1444,01336;2,84761
1441,9622;2,83326
1439,91105;2,81386
1437,85989;2,79402
1435,80874;2,77653
1433,75758;2,75584
1431,70643;2,72852
1429,65527;2,70319
1427,60412;2,68521
1425,55296;2,6678
1423,5018;2,64965
1421,45065;2,63576
1419,39949;2,62558
1417,34834;2,62
1415,29718;2,61418
1413,24603;2,60236
1411,19487;2,58954
1409,14372;2,58284
1407,09256;2,58111
1405,04141;2,58345
1402,99025;2,59132
1400,9391;2,59748
1398,88794;2,59909
1396,83679;2,60141
1394,78563;2,60509
1392,73447;2,61218
1390,68332;2,62328
1388,63216;2,63176
1386,58101;2,63347
1384,52985;2,6346
1382,4787;2,64293
1380,42754;2,65981
1378,37639;2,68099
1376,32523;2,7006
1374,27408;2,71235
1372,22292;2,71413
1370,17177;2,70914
1368,12061;2,70412
1366,06946;2,70178
1364,0183;2,69566
1361,96714;2,68686
1359,91599;2,68407
1357,86483;2,68801
1355,81368;2,69586
1353,76252;2,7026
1351,71137;2,70197
1349,66021;2,69685
1347,60906;2,69552
1345,5579;2,69829
1343,50675;2,70027
1341,45559;2,70047
1339,40444;2,70122
1337,35328;2,69994
1335,30213;2,69342
1333,25097;2,68663
1331,19981;2,68419
1329,14866;2,68591
1327,0975;2,6894
1325,04635;2,6923
1322,99519;2,69405
1320,94404;2,69685
1318,89288;2,70177
1316,84173;2,70345
1314,79057;2,69663
1312,73942;2,68449
1310,68826;2,67433
1308,63711;2,67089
1306,58595;2,67056
1304,5348;2,66584
1302,48364;2,66068
1300,43248;2,66182
1298,38133;2,66331
1296,33017;2,65848
1294,27902;2,65266
1292,22786;2,65656
1290,17671;2,66891
1288,12555;2,67475
1286,0744;2,669
1284,02324;2,66018
1281,97209;2,65339
1279,92093;2,64997
1277,86978;2,64906
1275,81862;2,64892
1273,76747;2,64982
1271,71631;2,6539
1269,66515;2,66351
1267,614;2,67166
1265,56284;2,66856
1263,51169;2,66049
1261,46053;2,65977
1259,40938;2,66815
1257,35822;2,67862
1255,30707;2,68711
1253,25591;2,69533
1251,20476;2,70116
1249,1536;2,70035
1247,10245;2,69356
1245,05129;2,68939
1243,00013;2,6895
1240,94898;2,69038
1238,89782;2,69351
1236,84667;2,69812
1234,79551;2,70315
1232,74436;2,70385
1230,6932;2,69328
1228,64205;2,67761
1226,59089;2,67208
1224,53974;2,67632
1222,48858;2,67558
1220,43743;2,67084
1218,38627;2,67339
1216,33512;2,68119
1214,28396;2,68742
1212,2328;2,69375
1210,18165;2,69766
1208,13049;2,69546
1206,07934;2,69509
1204,02818;2,70325
1201,97703;2,71228
1199,92587;2,70884
1197,87472;2,69767
1195,82356;2,69508
1193,77241;2,70118
1191,72125;2,70679
1189,6701;2,70614
1187,61894;2,7033
1185,56779;2,70838
1183,51663;2,72227
1181,46547;2,74041
1179,41432;2,74969
1177,36316;2,74582
1175,31201;2,7432
1173,26085;2,74567
1171,2097;2,74574
1169,15854;2,74598
1167,10739;2,75229
1165,05623;2,76135
1163,00508;2,77316
1160,95392;2,78597
1158,90277;2,79248
1156,85161;2,79417
1154,80046;2,79674
1152,7493;2,80035
1150,69814;2,7994
1148,64699;2,79288
1146,59583;2,78737
1144,54468;2,7882
1142,49352;2,79502
1140,44237;2,80604
1138,39121;2,81842
1136,34006;2,82715
1134,2889;2,83157
1132,23775;2,83901
1130,18659;2,85339
1128,13544;2,86319
1126,08428;2,85906
1124,03313;2,8505
1121,98197;2,84443
1119,93081;2,84488
1117,87966;2,86154
1115,8285;2,87853
1113,77735;2,87985
1111,72619;2,88629
1109,67504;2,91124
1107,62388;2,93972
1105,57273;2,95464
1103,52157;2,95744
1101,47042;2,95662
1099,41926;2,95664
1097,36811;2,94787
1095,31695;2,92785
1093,2658;2,91335
1091,21464;2,91357
1089,16348;2,91201
1087,11233;2,90093
1085,06117;2,90253
1083,01002;2,91449
1080,95886;2,9289
1078,90771;2,94877
1076,85655;2,96151
1074,8054;2,96108
1072,75424;2,94933
1070,70309;2,93081
1068,65193;2,91867
1066,60078;2,92378
1064,54962;2,92824
1062,49847;2,91084
1060,44731;2,88751
1058,39615;2,87226
1056,345;2,85773
1054,29384;2,83858
1052,24269;2,81721
1050,19153;2,79618
1048,14038;2,78199
1046,08922;2,77785
1044,03807;2,77989
1041,98691;2,78427
1039,93576;2,78487
1037,8846;2,78545
1035,83345;2,7956
1033,78229;2,81441
1031,73114;2,83049
1029,67998;2,83777
1027,62882;2,84087
1025,57767;2,83354
1023,52651;2,81928
1021,47536;2,82092
1019,4242;2,84104
1017,37305;2,84937
1015,32189;2,83811
1013,27074;2,8381
1011,21958;2,85398
1009,16843;2,86662
1007,11727;2,86768
1005,06612;2,86142
1003,01496;2,85789
1000,96381;2,86069
998,91265;2,8596
996,86149;2,85321
994,81034;2,84987
992,75918;2,84746
990,70803;2,84657
988,65687;2,85121
986,60572;2,86086
984,55456;2,87031
982,50341;2,87118
980,45225;2,87143
978,4011;2,87351
976,34994;2,8689
974,29879;2,86947
972,24763;2,88198
970,19647;2,87886
968,14532;2,85675
966,09416;2,84905
964,04301;2,85573
961,99185;2,85984
959,9407;2,8676
957,88954;2,88301
955,83839;2,89416
953,78723;2,89342
951,73608;2,89188
949,68492;2,89551
947,63377;2,88722
945,58261;2,87018
943,53146;2,87687
941,4803;2,90806
939,42914;2,91923
937,37799;2,90395
935,32683;2,89117
933,27568;2,88479
931,22452;2,87643
929,17337;2,8651
927,12221;2,86715
925,07106;2,87876
923,0199;2,88333
920,96875;2,88402
918,91759;2,88787
916,86644;2,9038
914,81528;2,93439
912,76413;2,95725
910,71297;2,95275
908,66181;2,93855
906,61066;2,92783
904,5595;2,91642
902,50835;2,90634
900,45719;2,89634
898,40604;2,88798
896,35488;2,87817
894,30373;2,85695
892,25257;2,84195
890,20142;2,83875
888,15026;2,83192
886,09911;2,82996
884,04795;2,83326
881,9968;2,82551
879,94564;2,8178
877,89448;2,82015
875,84333;2,81575
873,79217;2,81226
871,74102;2,82044
869,68986;2,8277
867,63871;2,83912
865,58755;2,85485
863,5364;2,85846
861,48524;2,85331
859,43409;2,83936
857,38293;2,82041
855,33178;2,80044
853,28062;2,77746
851,22947;2,77427
849,17831;2,80098
847,12715;2,83109
845,076;2,83479
843,02484;2,82293
840,97369;2,81688
838,92253;2,80125
836,87138;2,78201
834,82022;2,7753
832,76907;2,77217
830,71791;2,77485
828,66676;2,78476
826,6156;2,78216
824,56445;2,75926
822,51329;2,73127
820,46214;2,71947
818,41098;2,73165
816,35982;2,75231
814,30867;2,7677
812,25751;2,77508
810,20636;2,77706
808,1552;2,7951
806,10405;2,82633
804,05289;2,83528
802,00174;2,82329
799,95058;2,8196
797,89943;2,84817
795,84827;2,89913
793,79712;2,91688
791,74596;2,88457
789,69481;2,86556
787,64365;2,88022
785,59249;2,88578
783,54134;2,86479
781,49018;2,8506
779,43903;2,86873
777,38787;2,89238
775,33672;2,89708
773,28556;2,90608
771,23441;2,93551
769,18325;2,95378
767,1321;2,94007
765,08094;2,92314
763,02979;2,92661
760,97863;2,94382
758,92748;2,95811
756,87632;2,96318
754,82516;2,94568
752,77401;2,90114
750,72285;2,85524
748,6717;2,83983
746,62054;2,85083
744,56939;2,85207
742,51823;2,84025
740,46708;2,83348
738,41592;2,84313
736,36477;2,84793
734,31361;2,8429
732,26246;2,86101
730,2113;2,8747
728,16015;2,87469
726,10899;2,89571
724,05783;2,92204
722,00668;2,91885
719,95552;2,91486
717,90437;2,94999
715,85321;2,9887
713,80206;2,96907
711,7509;2,91252
709,69975;2,88437
707,64859;2,90036
705,59744;2,94135
703,54628;2,96663
701,49513;2,94633
699,44397;2,91128
697,39281;2,89847
695,34166;2,89143
693,2905;2,88607
691,23935;2,8968
689,18819;2,90568
687,13704;2,8984
685,08588;2,88733
683,03473;2,88985
680,98357;2,91303
678,93242;2,92997
676,88126;2,90886
674,83011;2,87687
672,77895;2,87433
670,7278;2,86903
668,67664;2,82593
666,62548;2,79533
664,57433;2,79433
662,52317;2,79081
660,47202;2,79459
658,42086;2,82933
656,36971;2,88001
654,31855;2,91344
652,2674;2,9319
650,21624;2,94106
648,16509;2,9263
646,11393;2,89364
644,06278;2,87505
642,01162;2,88859
639,96047;2,91138
637,90931;2,91852
635,85815;2,91181
633,807;2,8968
631,75584;2,88217
629,70469;2,89244
627,65353;2,92148
625,60238;2,92036
623,55122;2,90737
621,50007;2,91114
619,44891;2,91837
617,39776;2,92403
615,3466;2,92052
613,29545;2,89661
611,24429;2,87659
609,19314;2,87341
607,14198;2,87338
605,09082;2,90011
603,03967;2,94917
600,98851;2,96735
598,93736;2,95739
596,8862;2,95532
594,83505;2,91777
592,78389;2,86066
590,73274;2,86513
588,68158;2,90918
586,63043;2,96786
584,57927;3,02466
582,52812;2,9638
580,47696;2,8433
578,42581;2,82395
576,37465;2,87836
574,32349;2,87339
572,27234;2,82799
570,22118;2,85761
568,17003;2,9538
566,11887;3,0058
564,06772;2,9827
562,01656;2,93359
559,96541;2,90741
557,91425;2,92308
555,8631;2,94977
553,81194;2,93732
551,76079;2,90803
549,70963;2,89705
547,65848;2,90353
545,60732;2,94884
543,55616;2,98029
541,50501;2,95582
539,45385;2,96771
537,4027;3,00123
535,35154;2,95519
533,30039;2,87183
531,24923;2,8195
529,19808;2,80639
527,14692;2,81505
525,09577;2,78411
523,04461;2,70618
520,99346;2,67114
518,9423;2,70597
516,89115;2,75515
514,83999;2,77942
512,78883;2,79001
510,73768;2,8014
508,68652;2,83267
506,63537;2,87529
504,58421;2,89516
502,53306;2,89751
500,4819;2,91483
498,43075;2,93761
496,37959;2,90401
494,32844;2,84098
492,27728;2,80507
490,22613;2,77317
488,17497;2,74321
486,12382;2,71846
484,07266;2,70624
482,0215;2,68371
479,97035;2,66222
477,91919;2,68968
475,86804;2,73856
473,81688;2,76805
471,76573;2,81096
469,71457;2,88248
467,66342;2,94553
465,61226;2,97294
463,56111;2,89966
461,50995;2,79649
459,4588;2,77463
457,40764;2,85177
455,35649;2,92312
453,30533;2,90816
451,25417;2,87349
449,20302;2,83901
447,15186;2,80267
445,10071;2,78095
443,04955;2,78751
440,9984;2,82983
438,94724;2,84915
436,89609;2,7996
434,84493;2,72751
432,79378;2,72832
430,74262;2,80404
428,69147;2,86709
426,64031;2,84972
424,58916;2,80422
422,538;2,78684
420,48684;2,70982
418,43569;2,61505
416,38453;2,55141
414,33338;2,5274
412,28222;2,54583
410,23107;2,63345
408,17991;2,77988
406,12876;2,86738
404,0776;2,91279
402,02645;2,93144
399,97529;2,85382
