3997,70175;1,7947
3995,6506;1,79657
3993,59944;1,798
3991,54829;1,79934
3989,49713;1,80035
3987,44598;1,80167
3985,39482;1,80305
3983,34367;1,80344
3981,29251;1,80393
3979,24136;1,80498
3977,1902;1,80584
3975,13905;1,80826
3973,08789;1,81336
3971,03673;1,81813
3968,98558;1,82055
3966,93442;1,82258
3964,88327;1,82649
3962,83211;1,83135
3960,78096;1,83547
3958,7298;1,83918
3956,67865;1,84267
3954,62749;1,84616
3952,57634;1,85038
3950,52518;1,85413
3948,47403;1,85647
3946,42287;1,85876
3944,37172;1,86075
3942,32056;1,86007
3940,2694;1,85753
3938,21825;1,85522
3936,16709;1,8525
3934,11594;1,84815
3932,06478;1,8416
3930,01363;1,83401
3927,96247;1,82674
3925,91132;1,8188
3923,86016;1,8106
3921,80901;1,80468
3919,75785;1,79973
3917,7067;1,79286
3915,65554;1,78568
3913,60439;1,78027
3911,55323;1,77557
3909,50207;1,77063
3907,45092;1,76571
3905,39976;1,76048
3903,34861;1,75489
3901,29745;1,74987
3899,2463;1,74622
3897,19514;1,74496
3895,14399;1,7456
3893,09283;1,74466
3891,04168;1,74079
3888,99052;1,73873
3886,93937;1,73897
3884,88821;1,73721
3882,83706;1,73514
3880,7859;1,73451
3878,73474;1,73409
3876,68359;1,73406
3874,63243;1,73311
3872,58128;1,73168
3870,53012;1,73083
3868,47897;1,72973
3866,42781;1,72889
3864,37666;1,72709
3862,3255;1,7243
3860,27435;1,72268
3858,22319;1,72223
3856,17204;1,72237
3854,12088;1,72064
3852,06973;1,71651
3850,01857;1,71597
3847,96741;1,71922
3845,91626;1,72141
3843,8651;1,72032
3841,81395;1,71783
3839,76279;1,71598
3837,71164;1,7149
3835,66048;1,71551
3833,60933;1,71753
3831,55817;1,7187
3829,50702;1,7184
3827,45586;1,71735
3825,40471;1,71657
3823,35355;1,71725
3821,3024;1,71785
3819,25124;1,7186
3817,20008;1,72066
3815,14893;1,72087
3813,09777;1,72017
3811,04662;1,72154
3808,99546;1,72359
3806,94431;1,72366
3804,89315;1,72315
3802,842;1,72335
3800,79084;1,7223
3798,73969;1,72263
3796,68853;1,7256
3794,63738;1,72881
3792,58622;1,73177
3790,53506;1,73435
3788,48391;1,73589
3786,43275;1,73564
3784,3816;1,73364
3782,33044;1,73274
3780,27929;1,73456
3778,22813;1,73728
3776,17698;1,73948
3774,12582;1,7408
3772,07467;1,74146
3770,02351;1,74211
3767,97236;1,74322
3765,9212;1,74402
3763,87005;1,74458
3761,81889;1,74621
3759,76773;1,74761
3757,71658;1,74824
3755,66542;1,75017
3753,61427;1,7527
3751,56311;1,75291
3749,51196;1,75185
3747,4608;1,75501
3745,40965;1,7616
3743,35849;1,76605
3741,30734;1,76896
3739,25618;1,77232
3737,20503;1,77445
3735,15387;1,77534
3733,10272;1,77803
3731,05156;1,78428
3729,0004;1,79277
3726,94925;1,80028
3724,89809;1,80522
3722,84694;1,81053
3720,79578;1,81757
3718,74463;1,82484
3716,69347;1,83211
3714,64232;1,83957
3712,59116;1,84779
3710,54001;1,85865
3708,48885;1,87247
3706,4377;1,8878
3704,38654;1,90694
3702,33539;1,93439
3700,28423;1,96819
3698,23307;1,99951
3696,18192;2,02171
3694,13076;2,03212
3692,07961;2,03101
3690,02845;2,02135
3687,9773;2,00992
3685,92614;2,00359
3683,87499;2,00135
3681,82383;1,99896
3679,77268;1,9961
3677,72152;1,99826
3675,67037;2,00898
3673,61921;2,02334
3671,56806;2,03702
3669,5169;2,05084
3667,46574;2,06527
3665,41459;2,07815
3663,36343;2,08866
3661,31228;2,09984
3659,26112;2,11261
3657,20997;2,12408
3655,15881;2,13407
3653,10766;2,14498
3651,0565;2,15741
3649,00535;2,17497
3646,95419;2,20223
3644,90304;2,23021
3642,85188;2,24616
3640,80073;2,24811
3638,74957;2,24437
3636,69841;2,24394
3634,64726;2,2494
3632,5961;2,25928
3630,54495;2,27254
3628,49379;2,28636
3626,44264;2,29796
3624,39148;2,30908
3622,34033;2,31926
3620,28917;2,32658
3618,23802;2,33108
3616,18686;2,33424
3614,13571;2,33763
3612,08455;2,34247
3610,0334;2,34967
3607,98224;2,35827
3605,93108;2,36548
3603,87993;2,36946
3601,82877;2,37277
3599,77762;2,37944
3597,72646;2,38858
3595,67531;2,39783
3593,62415;2,40846
3591,573;2,41901
3589,52184;2,42621
3587,47069;2,4317
3585,41953;2,43838
3583,36838;2,44437
3581,31722;2,44598
3579,26607;2,44473
3577,21491;2,44739
3575,16375;2,45595
3573,1126;2,46197
3571,06144;2,45961
3569,01029;2,45603
3566,95913;2,4601
3564,90798;2,47113
3562,85682;2,48317
3560,80567;2,49196
3558,75451;2,49847
3556,70336;2,50612
3554,6522;2,51241
3552,60105;2,51258
3550,54989;2,50947
3548,49874;2,50802
3546,44758;2,50818
3544,39642;2,51122
3542,34527;2,51945
3540,29411;2,53093
3538,24296;2,54253
3536,1918;2,55147
3534,14065;2,554
3532,08949;2,55139
3530,03834;2,54936
3527,98718;2,55017
3525,93603;2,55466
3523,88487;2,56124
3521,83372;2,56519
3519,78256;2,56854
3517,73141;2,57466
3515,68025;2,57863
3513,62909;2,57596
3511,57794;2,56926
3509,52678;2,56822
3507,47563;2,57931
3505,42447;2,59452
3503,37332;2,60481
3501,32216;2,61019
3499,27101;2,61259
3497,21985;2,61307
3495,1687;2,61402
3493,11754;2,61591
3491,06639;2,61683
3489,01523;2,61579
3486,96407;2,61462
3484,91292;2,61652
3482,86176;2,62215
3480,81061;2,62726
3478,75945;2,62739
3476,7083;2,62421
3474,65714;2,62387
3472,60599;2,63082
3470,55483;2,64024
3468,50368;2,64522
3466,45252;2,64748
3464,40137;2,65228
3462,35021;2,65988
3460,29906;2,6659
3458,2479;2,66315
3456,19674;2,65231
3454,14559;2,64866
3452,09443;2,65573
3450,04328;2,65862
3447,99212;2,64993
3445,94097;2,6391
3443,88981;2,63687
3441,83866;2,64345
3439,7875;2,64898
3437,73635;2,65043
3435,68519;2,65475
3433,63404;2,65802
3431,58288;2,65824
3429,53173;2,65983
3427,48057;2,6592
3425,42941;2,65666
3423,37826;2,65462
3421,3271;2,65275
3419,27595;2,65477
3417,22479;2,65931
3415,17364;2,66055
3413,12248;2,65888
3411,07133;2,65896
3409,02017;2,66563
3406,96902;2,67437
3404,91786;2,67595
3402,86671;2,67306
3400,81555;2,67213
3398,7644;2,66971
3396,71324;2,6633
3394,66208;2,65679
3392,61093;2,65313
3390,55977;2,65506
3388,50862;2,66067
3386,45746;2,66194
3384,40631;2,65637
3382,35515;2,65358
3380,304;2,65892
3378,25284;2,66345
3376,20169;2,66521
3374,15053;2,66861
3372,09938;2,66727
3370,04822;2,66015
3367,99707;2,65847
3365,94591;2,66611
3363,89475;2,67165
3361,8436;2,67094
3359,79244;2,66734
3357,74129;2,65798
3355,69013;2,6475
3353,63898;2,6417
3351,58782;2,63714
3349,53667;2,63217
3347,48551;2,63205
3345,43436;2,63732
3343,3832;2,64028
3341,33205;2,63864
3339,28089;2,63648
3337,22974;2,63402
3335,17858;2,62994
3333,12742;2,62882
3331,07627;2,63324
3329,02511;2,63534
3326,97396;2,62918
3324,9228;2,62262
3322,87165;2,62327
3320,82049;2,62687
3318,76934;2,62907
3316,71818;2,63028
3314,66703;2,62907
3312,61587;2,62346
3310,56472;2,61768
3308,51356;2,61573
3306,46241;2,61273
3304,41125;2,60683
3302,36009;2,60395
3300,30894;2,60744
3298,25778;2,61214
3296,20663;2,61104
3294,15547;2,60475
3292,10432;2,59924
3290,05316;2,59825
3288,00201;2,59993
3285,95085;2,6008
3283,8997;2,6001
3281,84854;2,59882
3279,79739;2,59921
3277,74623;2,60377
3275,69508;2,60681
3273,64392;2,60194
3271,59276;2,59368
3269,54161;2,58734
3267,49045;2,58487
3265,4393;2,58791
3263,38814;2,59385
3261,33699;2,59634
3259,28583;2,5947
3257,23468;2,59427
3255,18352;2,59509
3253,13237;2,59113
3251,08121;2,58316
3249,03006;2,58
3246,9789;2,58373
3244,92775;2,58717
3242,87659;2,58582
3240,82543;2,58339
3238,77428;2,58044
3236,72312;2,57406
3234,67197;2,56742
3232,62081;2,56478
3230,56966;2,56649
3228,5185;2,57034
3226,46735;2,57175
3224,41619;2,56818
3222,36504;2,56509
3220,31388;2,56874
3218,26273;2,57407
3216,21157;2,57386
3214,16041;2,57119
3212,10926;2,57001
3210,0581;2,56864
3208,00695;2,56498
3205,95579;2,56022
3203,90464;2,55708
3201,85348;2,55555
3199,80233;2,55038
3197,75117;2,53982
3195,70002;2,53251
3193,64886;2,53392
3191,59771;2,53885
3189,54655;2,54086
3187,4954;2,53934
3185,44424;2,53711
3183,39308;2,53468
3181,34193;2,53099
3179,29077;2,52935
3177,23962;2,52944
3175,18846;2,5248
3173,13731;2,5173
3171,08615;2,51241
3169,035;2,51095
3166,98384;2,51247
3164,93269;2,51347
3162,88153;2,51156
3160,83038;2,50836
3158,77922;2,50264
3156,72807;2,49499
3154,67691;2,49123
3152,62575;2,49112
3150,5746;2,49139
3148,52344;2,49187
3146,47229;2,49049
3144,42113;2,48789
3142,36998;2,48539
3140,31882;2,47999
3138,26767;2,47151
3136,21651;2,46397
3134,16536;2,46117
3132,1142;2,46435
3130,06305;2,46916
3128,01189;2,46986
3125,96074;2,46715
3123,90958;2,46449
3121,85842;2,4617
3119,80727;2,45898
3117,75611;2,45746
3115,70496;2,45587
3113,6538;2,45467
3111,60265;2,45547
3109,55149;2,45715
3107,50034;2,45592
3105,44918;2,44913
3103,39803;2,44359
3101,34687;2,44572
3099,29572;2,44996
3097,24456;2,44959
3095,19341;2,44329
3093,14225;2,43569
3091,09109;2,43386
3089,03994;2,43669
3086,98878;2,439
3084,93763;2,43988
3082,88647;2,43793
3080,83532;2,43274
3078,78416;2,43067
3076,73301;2,4331
3074,68185;2,43309
3072,6307;2,42926
3070,57954;2,42576
3068,52839;2,42469
3066,47723;2,42532
3064,42608;2,42502
3062,37492;2,42248
3060,32376;2,42126
3058,27261;2,42453
3056,22145;2,42877
3054,1703;2,42879
3052,11914;2,42671
3050,06799;2,42815
3048,01683;2,43191
3045,96568;2,43347
3043,91452;2,43096
3041,86337;2,42717
3039,81221;2,42754
3037,76106;2,43246
3035,7099;2,4391
3033,65875;2,44487
3031,60759;2,44763
3029,55643;2,4486
3027,50528;2,44998
3025,45412;2,45138
3023,40297;2,45198
3021,35181;2,45241
3019,30066;2,4549
3017,2495;2,46037
3015,19835;2,46446
3013,14719;2,46523
3011,09604;2,46673
3009,04488;2,4719
3006,99373;2,48227
3004,94257;2,49625
3002,89142;2,51122
3000,84026;2,52695
2998,7891;2,5427
2996,73795;2,56048
2994,68679;2,58362
2992,63564;2,60895
2990,58448;2,63071
2988,53333;2,64752
2986,48217;2,66039
2984,43102;2,66965
2982,37986;2,67226
2980,32871;2,66321
2978,27755;2,64889
2976,2264;2,64205
2974,17524;2,64172
2972,12409;2,6391
2970,07293;2,63512
2968,02177;2,62976
2965,97062;2,62103
2963,91946;2,61351
2961,86831;2,61253
2959,81715;2,6171
2957,766;2,62004
2955,71484;2,62246
2953,66369;2,62663
2951,61253;2,6261
2949,56138;2,62025
2947,51022;2,61393
2945,45907;2,6114
2943,40791;2,61334
2941,35675;2,61327
2939,3056;2,6061
2937,25444;2,59733
2935,20329;2,59442
2933,15213;2,59405
2931,10098;2,5942
2929,04982;2,59936
2926,99867;2,60323
2924,94751;2,59971
2922,89636;2,5967
2920,8452;2,59744
2918,79405;2,59798
2916,74289;2,59834
2914,69174;2,59771
2912,64058;2,59574
2910,58942;2,59485
2908,53827;2,59347
2906,48711;2,59229
2904,43596;2,59663
2902,3848;2,60465
2900,33365;2,60678
2898,28249;2,60306
2896,23134;2,60458
2894,18018;2,61361
2892,12903;2,62133
2890,07787;2,62069
2888,02672;2,61853
2885,97556;2,62973
2883,92441;2,65126
2881,87325;2,66696
2879,82209;2,67654
2877,77094;2,68692
2875,71978;2,69445
2873,66863;2,69422
2871,61747;2,68801
2869,56632;2,68078
2867,51516;2,67303
2865,46401;2,66008
2863,41285;2,6435
2861,3617;2,63451
2859,31054;2,63851
2857,25939;2,64121
2855,20823;2,63101
2853,15708;2,61722
2851,10592;2,60806
2849,05476;2,60034
2847,00361;2,59
2844,95245;2,57734
2842,9013;2,56055
2840,85014;2,53881
2838,79899;2,51738
2836,74783;2,49833
2834,69668;2,48017
2832,64552;2,46162
2830,59437;2,44193
2828,54321;2,42438
2826,49206;2,41277
2824,4409;2,40239
2822,38975;2,38972
2820,33859;2,37894
2818,28743;2,37044
2816,23628;2,36143
2814,18512;2,35131
2812,13397;2,34242
2810,08281;2,33586
2808,03166;2,32993
2805,9805;2,32571
2803,92935;2,32319
2801,87819;2,32131
2799,82704;2,31935
2797,77588;2,31474
2795,72473;2,30753
2793,67357;2,2989
2791,62242;2,28915
2789,57126;2,2804
2787,5201;2,27423
2785,46895;2,26988
2783,41779;2,26593
2781,36664;2,26107
2779,31548;2,25563
2777,26433;2,25067
2775,21317;2,24534
2773,16202;2,24102
2771,11086;2,23988
2769,05971;2,23976
2767,00855;2,23889
2764,9574;2,23712
2762,90624;2,23333
2760,85509;2,228
2758,80393;2,2239
2756,75277;2,22247
2754,70162;2,22176
2752,65046;2,22056
2750,59931;2,21991
2748,54815;2,21895
2746,497;2,21697
2744,44584;2,21521
2742,39469;2,21455
2740,34353;2,21511
2738,29238;2,21531
2736,24122;2,21396
2734,19007;2,21147
2732,13891;2,20949
2730,08776;2,20942
2728,0366;2,20888
2725,98544;2,20681
2723,93429;2,205
2721,88313;2,20188
2719,83198;2,19717
2717,78082;2,19477
2715,72967;2,19571
2713,67851;2,19772
2711,62736;2,19846
2709,5762;2,19781
2707,52505;2,19759
2705,47389;2,19822
2703,42274;2,19901
2701,37158;2,19934
2699,32043;2,19929
2697,26927;2,19964
2695,21811;2,19915
2693,16696;2,19721
2691,1158;2,19623
2689,06465;2,19689
2687,01349;2,19768
2684,96234;2,19807
2682,91118;2,1993
2680,86003;2,20168
2678,80887;2,20415
2676,75772;2,20697
2674,70656;2,20997
2672,65541;2,21245
2670,60425;2,2134
2668,55309;2,21258
2666,50194;2,21259
2664,45078;2,21595
2662,39963;2,22115
2660,34847;2,22386
2658,29732;2,22401
2656,24616;2,22587
2654,19501;2,23113
2652,14385;2,23689
2650,0927;2,24028
2648,04154;2,24361
2645,99039;2,25022
2643,93923;2,25993
2641,88808;2,27161
2639,83692;2,28604
2637,78576;2,30496
2635,73461;2,32679
2633,68345;2,34769
2631,6323;2,36713
2629,58114;2,38599
2627,52999;2,40494
2625,47883;2,42346
2623,42768;2,43843
2621,37652;2,45008
2619,32537;2,46172
2617,27421;2,4753
2615,22306;2,49058
2613,1719;2,50395
2611,12075;2,5149
2609,06959;2,5285
2607,01843;2,54549
2604,96728;2,55872
2602,91612;2,5649
2600,86497;2,56654
2598,81381;2,56723
2596,76266;2,57383
2594,7115;2,58398
2592,66035;2,58847
2590,60919;2,58703
2588,55804;2,58649
2586,50688;2,59118
2584,45573;2,59554
2582,40457;2,59515
2580,35342;2,59346
2578,30226;2,59396
2576,2511;2,59863
2574,19995;2,60696
2572,14879;2,61286
2570,09764;2,60968
2568,04648;2,60297
2565,99533;2,60291
2563,94417;2,60748
2561,89302;2,61072
2559,84186;2,61252
2557,79071;2,61393
2555,73955;2,61996
2553,6884;2,62877
2551,63724;2,63128
2549,58609;2,63164
2547,53493;2,63733
2545,48377;2,64505
2543,43262;2,64881
2541,38146;2,65505
2539,33031;2,67203
2537,27915;2,69243
2535,228;2,7112
2533,17684;2,73508
2531,12569;2,7645
2529,07453;2,78717
2527,02338;2,79775
2524,97222;2,81066
2522,92107;2,82885
2520,86991;2,8403
2518,81876;2,84411
2516,7676;2,84461
2514,71644;2,8477
2512,66529;2,85322
2510,61413;2,84922
2508,56298;2,83196
2506,51182;2,8089
2504,46067;2,78969
2502,40951;2,77666
2500,35836;2,75879
2498,3072;2,73149
2496,25605;2,70356
2494,20489;2,68025
2492,15374;2,6606
2490,10258;2,64172
2488,05143;2,62203
2486,00027;2,59662
2483,94911;2,5672
2481,89796;2,54404
2479,8468;2,52521
2477,79565;2,50325
2475,74449;2,47862
2473,69334;2,4538
2471,64218;2,42964
2469,59103;2,40904
2467,53987;2,39202
2465,48872;2,37533
2463,43756;2,36054
2461,38641;2,34888
2459,33525;2,33784
2457,2841;2,32625
2455,23294;2,31471
2453,18178;2,30308
2451,13063;2,29155
2449,07947;2,28216
2447,02832;2,27405
2444,97716;2,26401
2442,92601;2,25394
2440,87485;2,24699
2438,8237;2,24299
2436,77254;2,23989
2434,72139;2,23491
2432,67023;2,2284
2430,61908;2,22223
2428,56792;2,21651
2426,51677;2,21124
2424,46561;2,20633
2422,41445;2,20175
2420,3633;2,19768
2418,31214;2,19389
2416,26099;2,18998
2414,20983;2,18497
2412,15868;2,17999
2410,10752;2,17744
2408,05637;2,17531
2406,00521;2,17198
2403,95406;2,16913
2401,9029;2,16667
2399,85175;2,16443
2397,80059;2,1628
2395,74944;2,16108
2393,69828;2,15866
2391,64712;2,15597
2389,59597;2,15347
2387,54481;2,15125
2385,49366;2,14956
2383,4425;2,14899
2381,39135;2,14932
2379,34019;2,14939
2377,28904;2,14921
2375,23788;2,15068
2373,18673;2,15331
2371,13557;2,15269
2369,08442;2,14806
2367,03326;2,14439
2364,9821;2,14332
2362,93095;2,14317
2360,87979;2,14448
2358,82864;2,14558
2356,77748;2,14581
2354,72633;2,14827
2352,67517;2,15205
2350,62402;2,15595
2348,57286;2,16107
2346,52171;2,16574
2344,47055;2,16821
2342,4194;2,16969
2340,36824;2,16963
2338,31709;2,16633
2336,26593;2,16041
2334,21477;2,15441
2332,16362;2,15141
2330,11246;2,15158
2328,06131;2,15105
2326,01015;2,14842
2323,959;2,14705
2321,90784;2,14828
2319,85669;2,15027
2317,80553;2,1516
2315,75438;2,15097
2313,70322;2,1482
2311,65207;2,14685
2309,60091;2,14912
2307,54976;2,15186
2305,4986;2,15203
2303,44744;2,1502
2301,39629;2,14831
2299,34513;2,14699
2297,29398;2,14577
2295,24282;2,14452
2293,19167;2,14284
2291,14051;2,14088
2289,08936;2,14046
2287,0382;2,14179
2284,98705;2,14274
2282,93589;2,14224
2280,88474;2,1413
2278,83358;2,14149
2276,78243;2,14276
2274,73127;2,14381
2272,68011;2,14441
2270,62896;2,14517
2268,5778;2,14592
2266,52665;2,14659
2264,47549;2,14803
2262,42434;2,15036
2260,37318;2,15253
2258,32203;2,15416
2256,27087;2,15658
2254,21972;2,16086
2252,16856;2,16612
2250,11741;2,16996
2248,06625;2,17175
2246,0151;2,1727
2243,96394;2,1742
2241,91278;2,17674
2239,86163;2,18013
2237,81047;2,18361
2235,75932;2,18787
2233,70816;2,19385
2231,65701;2,1996
2229,60585;2,20351
2227,5547;2,20564
2225,50354;2,20579
2223,45239;2,20655
2221,40123;2,20982
2219,35008;2,21296
2217,29892;2,21471
2215,24777;2,21614
2213,19661;2,21772
2211,14545;2,21987
2209,0943;2,22235
2207,04314;2,22477
2204,99199;2,22584
2202,94083;2,22537
2200,88968;2,22596
2198,83852;2,22756
2196,78737;2,22853
2194,73621;2,2293
2192,68506;2,23012
2190,6339;2,23083
2188,58275;2,23253
2186,53159;2,23503
2184,48044;2,23633
2182,42928;2,23685
2180,37812;2,2391
2178,32697;2,24369
2176,27581;2,24943
2174,22466;2,25403
2172,1735;2,25649
2170,12235;2,25972
2168,07119;2,26554
2166,02004;2,27267
2163,96888;2,27977
2161,91773;2,2866
2159,86657;2,29473
2157,81542;2,30548
2155,76426;2,31934
2153,71311;2,33633
2151,66195;2,35239
2149,61079;2,36192
2147,55964;2,3673
2145,50848;2,3749
2143,45733;2,38325
2141,40617;2,38684
2139,35502;2,38593
2137,30386;2,38363
2135,25271;2,38023
2133,20155;2,37371
2131,1504;2,36454
2129,09924;2,35448
2127,04809;2,34166
2124,99693;2,32645
2122,94578;2,31174
2120,89462;2,29627
2118,84346;2,28063
2116,79231;2,26893
2114,74115;2,26139
2112,69;2,25569
2110,63884;2,2504
2108,58769;2,24417
2106,53653;2,23762
2104,48538;2,23294
2102,43422;2,2308
2100,38307;2,23045
2098,33191;2,23014
2096,28076;2,22895
2094,2296;2,22781
2092,17844;2,22772
2090,12729;2,22968
2088,07613;2,23283
2086,02498;2,23452
2083,97382;2,23498
2081,92267;2,23616
2079,87151;2,23816
2077,82036;2,23925
2075,7692;2,23842
2073,71805;2,2367
2071,66689;2,23525
2069,61574;2,23419
2067,56458;2,23452
2065,51343;2,23718
2063,46227;2,24056
2061,41111;2,24306
2059,35996;2,24455
2057,3088;2,24505
2055,25765;2,2451
2053,20649;2,24606
2051,15534;2,24719
2049,10418;2,24836
2047,05303;2,25243
2045,00187;2,25777
2042,95072;2,26019
2040,89956;2,25988
2038,84841;2,25827
2036,79725;2,25705
2034,7461;2,25855
2032,69494;2,26267
2030,64378;2,2666
2028,59263;2,26831
2026,54147;2,26869
2024,49032;2,26901
2022,43916;2,26913
2020,38801;2,26922
2018,33685;2,27049
2016,2857;2,27351
2014,23454;2,27577
2012,18339;2,27547
2010,13223;2,27548
2008,08108;2,27782
2006,02992;2,27956
2003,97877;2,28001
2001,92761;2,28185
1999,87645;2,28389
1997,8253;2,2844
1995,77414;2,28497
1993,72299;2,28553
1991,67183;2,28538
1989,62068;2,28684
1987,56952;2,29034
1985,51837;2,29329
1983,46721;2,29497
1981,41606;2,29757
1979,3649;2,30146
1977,31375;2,30446
1975,26259;2,30592
1973,21144;2,30615
1971,16028;2,30748
1969,10912;2,31441
1967,05797;2,32805
1965,00681;2,34672
1962,95566;2,36506
1960,9045;2,37212
1958,85335;2,36433
1956,80219;2,35117
1954,75104;2,34049
1952,69988;2,33346
1950,64873;2,32954
1948,59757;2,32816
1946,54642;2,32956
1944,49526;2,33309
1942,44411;2,33668
1940,39295;2,33993
1938,34179;2,34362
1936,29064;2,34728
1934,23948;2,34946
1932,18833;2,35047
1930,13717;2,35199
1928,08602;2,35375
1926,03486;2,35514
1923,98371;2,35702
1921,93255;2,35956
1919,8814;2,36215
1917,83024;2,3651
1915,77909;2,36843
1913,72793;2,37235
1911,67678;2,37651
1909,62562;2,37832
1907,57446;2,37853
1905,52331;2,38135
1903,47215;2,38736
1901,421;2,39406
1899,36984;2,39888
1897,31869;2,40062
1895,26753;2,40121
1893,21638;2,40416
1891,16522;2,41015
1889,11407;2,41698
1887,06291;2,42243
1885,01176;2,42693
1882,9606;2,43287
1880,90945;2,43993
1878,85829;2,44594
1876,80713;2,4506
1874,75598;2,45536
1872,70482;2,46106
1870,65367;2,4672
1868,60251;2,47376
1866,55136;2,48034
1864,5002;2,48644
1862,44905;2,4926
1860,39789;2,49955
1858,34674;2,50902
1856,29558;2,52133
1854,24443;2,5332
1852,19327;2,54267
1850,14212;2,55005
1848,09096;2,55654
1846,0398;2,56603
1843,98865;2,58221
1841,93749;2,60293
1839,88634;2,62047
1837,83518;2,63116
1835,78403;2,63983
1833,73287;2,65146
1831,68172;2,66624
1829,63056;2,68358
1827,57941;2,70326
1825,52825;2,72408
1823,4771;2,7427
1821,42594;2,75822
1819,37478;2,77582
1817,32363;2,80001
1815,27247;2,82684
1813,22132;2,85096
1811,17016;2,87988
1809,11901;2,92408
1807,06785;2,98023
1805,0167;3,04033
1802,96554;3,10249
1800,91439;3,15891
1798,86323;3,19003
1796,81208;3,19544
1794,76092;3,18808
1792,70977;3,16341
1790,65861;3,12038
1788,60745;3,07439
1786,5563;3,03509
1784,50514;3,00494
1782,45399;2,97687
1780,40283;2,94622
1778,35168;2,92225
1776,30052;2,90979
1774,24937;2,90552
1772,19821;2,90876
1770,14706;2,9172
1768,0959;2,9254
1766,04475;2,93471
1763,99359;2,94873
1761,94244;2,9624
1759,89128;2,96745
1757,84012;2,96407
1755,78897;2,95786
1753,73781;2,95748
1751,68666;2,97115
1749,6355;2,99481
1747,58435;3,00885
1745,53319;3,00818
1743,48204;3,01006
1741,43088;3,02297
1739,37973;3,03353
1737,32857;3,03258
1735,27742;3,0311
1733,22626;3,03696
1731,17511;3,04252
1729,12395;3,04144
1727,07279;3,04018
1725,02164;3,0441
1722,97048;3,04947
1720,91933;3,05704
1718,86817;3,06921
1716,81702;3,07237
1714,76586;3,058
1712,71471;3,04749
1710,66355;3,05453
1708,6124;3,06974
1706,56124;3,0786
1704,51009;3,07376
1702,45893;3,05469
1700,40778;3,03226
1698,35662;3,0389
1696,30546;3,08343
1694,25431;3,13123
1692,20315;3,16233
1690,152;3,18418
1688,10084;3,19857
1686,04969;3,20501
1683,99853;3,20547
1681,94738;3,20423
1679,89622;3,20877
1677,84507;3,21384
1675,79391;3,21067
1673,74276;3,20788
1671,6916;3,21672
1669,64045;3,22818
1667,58929;3,23418
1665,53813;3,241
1663,48698;3,25171
1661,43582;3,26592
1659,38467;3,27736
1657,33351;3,26791
1655,28236;3,23816
1653,2312;3,22213
1651,18005;3,23052
1649,12889;3,22679
1647,07774;3,22014
1645,02658;3,24503
1642,97543;3,29034
1640,92427;3,32063
1638,87312;3,32582
1636,82196;3,32145
1634,7708;3,31652
1632,71965;3,32051
1630,66849;3,33274
1628,61734;3,33685
1626,56618;3,33749
1624,51503;3,34752
1622,46387;3,34986
1620,41272;3,33724
1618,36156;3,33479
1616,31041;3,34891
1614,25925;3,35282
1612,2081;3,34055
1610,15694;3,3264
1608,10579;3,31732
1606,05463;3,30789
1604,00347;3,29321
1601,95232;3,28246
1599,90116;3,28436
1597,85001;3,28371
1595,79885;3,26397
1593,7477;3,23629
1591,69654;3,21248
1589,64539;3,19017
1587,59423;3,17095
1585,54308;3,15131
1583,49192;3,1189
1581,44077;3,07496
1579,38961;3,02936
1577,33846;2,97572
1575,2873;2,91275
1573,23614;2,86287
1571,18499;2,82088
1569,13383;2,7679
1567,08268;2,70769
1565,03152;2,65224
1562,98037;2,60903
1560,92921;2,56621
1558,87806;2,50042
1556,8269;2,43531
1554,77575;2,39291
1552,72459;2,35841
1550,67344;2,32617
1548,62228;2,30117
1546,57113;2,28508
1544,51997;2,27282
1542,46881;2,26014
1540,41766;2,24906
1538,3665;2,24586
1536,31535;2,24661
1534,26419;2,24575
1532,21304;2,24536
1530,16188;2,24509
1528,11073;2,24127
1526,05957;2,23536
1524,00842;2,23102
1521,95726;2,23042
1519,90611;2,23554
1517,85495;2,24299
1515,80379;2,24865
1513,75264;2,25213
1511,70148;2,25307
1509,65033;2,25093
1507,59917;2,24977
1505,54802;2,25539
1503,49686;2,2625
1501,44571;2,2655
1499,39455;2,26513
1497,3434;2,26441
1495,29224;2,26607
1493,24109;2,268
1491,18993;2,26799
1489,13878;2,26939
1487,08762;2,27343
1485,03646;2,27694
1482,98531;2,27969
1480,93415;2,28291
1478,883;2,28578
1476,83184;2,28635
1474,78069;2,28425
1472,72953;2,28229
1470,67838;2,2842
1468,62722;2,28883
1466,57607;2,29218
1464,52491;2,29211
1462,47376;2,28909
1460,4226;2,2842
1458,37145;2,27945
1456,32029;2,2791
1454,26913;2,28277
1452,21798;2,28465
1450,16682;2,28179
1448,11567;2,27642
1446,06451;2,27357
1444,01336;2,27406
1441,9622;2,27519
1439,91105;2,27487
1437,85989;2,27108
1435,80874;2,26476
1433,75758;2,25949
1431,70643;2,25442
1429,65527;2,24736
1427,60412;2,23885
1425,55296;2,22968
1423,5018;2,22066
1421,45065;2,21291
1419,39949;2,20458
1417,34834;2,19369
1415,29718;2,1803
1413,24603;2,16514
1411,19487;2,15168
1409,14372;2,14445
1407,09256;2,14663
1405,04141;2,15966
1402,99025;2,17871
1400,9391;2,19467
1398,88794;2,20494
1396,83679;2,2146
1394,78563;2,22942
1392,73447;2,2491
1390,68332;2,26909
1388,63216;2,28851
1386,58101;2,3086
1384,52985;2,32742
1382,4787;2,34339
1380,42754;2,35778
1378,37639;2,37107
1376,32523;2,38214
1374,27408;2,39106
1372,22292;2,39901
1370,17177;2,40607
1368,12061;2,41259
1366,06946;2,41858
1364,0183;2,42223
1361,96714;2,42432
1359,91599;2,42749
1357,86483;2,43102
1355,81368;2,43557
1353,76252;2,44354
1351,71137;2,45158
1349,66021;2,45515
1347,60906;2,45589
1345,5579;2,4572
1343,50675;2,46038
1341,45559;2,46432
1339,40444;2,46624
1337,35328;2,46679
1335,30213;2,46982
1333,25097;2,47622
1331,19981;2,4828
1329,14866;2,48645
1327,0975;2,48811
1325,04635;2,4913
1322,99519;2,49592
1320,94404;2,49742
1318,89288;2,49641
1316,84173;2,49766
1314,79057;2,5015
1312,73942;2,50565
1310,68826;2,50811
1308,63711;2,50958
1306,58595;2,5112
1304,5348;2,51069
1302,48364;2,50919
1300,43248;2,50995
1298,38133;2,5125
1296,33017;2,51508
1294,27902;2,51502
1292,22786;2,51144
1290,17671;2,50803
1288,12555;2,50911
1286,0744;2,5143
1284,02324;2,51748
1281,97209;2,51693
1279,92093;2,51882
1277,86978;2,52356
1275,81862;2,52615
1273,76747;2,5273
1271,71631;2,53041
1269,66515;2,53452
1267,614;2,536
1265,56284;2,53429
1263,51169;2,53282
1261,46053;2,53491
1259,40938;2,5386
1257,35822;2,54108
1255,30707;2,5439
1253,25591;2,54617
1251,20476;2,54728
1249,1536;2,55018
1247,10245;2,55574
1245,05129;2,56152
1243,00013;2,56467
1240,94898;2,56537
1238,89782;2,56584
1236,84667;2,56572
1234,79551;2,56452
1232,74436;2,56722
1230,6932;2,57548
1228,64205;2,5824
1226,59089;2,58356
1224,53974;2,58154
1222,48858;2,58113
1220,43743;2,58319
1218,38627;2,58303
1216,33512;2,58096
1214,28396;2,58313
1212,2328;2,58985
1210,18165;2,59839
1208,13049;2,60707
1206,07934;2,61138
1204,02818;2,61032
1201,97703;2,61003
1199,92587;2,61483
1197,87472;2,62399
1195,82356;2,63046
1193,77241;2,63148
1191,72125;2,63524
1189,6701;2,64186
1187,61894;2,64416
1185,56779;2,64261
1183,51663;2,64306
1181,46547;2,64822
1179,41432;2,65587
1177,36316;2,66358
1175,31201;2,66694
1173,26085;2,66477
1171,2097;2,66097
1169,15854;2,6583
1167,10739;2,66056
1165,05623;2,66892
1163,00508;2,6777
1160,95392;2,67741
1158,90277;2,67163
1156,85161;2,67139
1154,80046;2,66933
1152,7493;2,65931
1150,69814;2,65071
1148,64699;2,64884
1146,59583;2,64958
1144,54468;2,64889
1142,49352;2,65115
1140,44237;2,65976
1138,39121;2,66716
1136,34006;2,6646
1134,2889;2,65481
1132,23775;2,65071
1130,18659;2,65497
1128,13544;2,65581
1126,08428;2,65436
1124,03313;2,65506
1121,98197;2,6517
1119,93081;2,65016
1117,87966;2,6575
1115,8285;2,66429
1113,77735;2,6625
1111,72619;2,65837
1109,67504;2,66053
1107,62388;2,66589
1105,57273;2,66658
1103,52157;2,6623
1101,47042;2,66217
1099,41926;2,67258
1097,36811;2,68346
1095,31695;2,68705
1093,2658;2,6895
1091,21464;2,69329
1089,16348;2,69903
1087,11233;2,70834
1085,06117;2,7133
1083,01002;2,7061
1080,95886;2,6976
1078,90771;2,69628
1076,85655;2,69568
1074,8054;2,68814
1072,75424;2,67567
1070,70309;2,67047
1068,65193;2,6752
1066,60078;2,68408
1064,54962;2,69587
1062,49847;2,70581
1060,44731;2,70872
1058,39615;2,70662
1056,345;2,70436
1054,29384;2,70232
1052,24269;2,69658
1050,19153;2,68926
1048,14038;2,68749
1046,08922;2,69556
1044,03807;2,70913
1041,98691;2,71823
1039,93576;2,71787
1037,8846;2,71233
1035,83345;2,711
1033,78229;2,71738
1031,73114;2,72371
1029,67998;2,7238
1027,62882;2,72245
1025,57767;2,72387
1023,52651;2,72741
1021,47536;2,73132
1019,4242;2,73409
1017,37305;2,73742
1015,32189;2,74082
1013,27074;2,74249
1011,21958;2,73961
1009,16843;2,73199
1007,11727;2,72751
1005,06612;2,72801
1003,01496;2,7258
1000,96381;2,72294
998,91265;2,7255
996,86149;2,72583
994,81034;2,71424
992,75918;2,70076
990,70803;2,69997
988,65687;2,71006
986,60572;2,72018
984,55456;2,71977
982,50341;2,7099
980,45225;2,70452
978,4011;2,7074
976,34994;2,70584
974,29879;2,69827
972,24763;2,69512
970,19647;2,69249
968,14532;2,68805
966,09416;2,68864
964,04301;2,69049
961,99185;2,68734
959,9407;2,68257
957,88954;2,67774
955,83839;2,67165
953,78723;2,6644
951,73608;2,65911
949,68492;2,65916
947,63377;2,66096
945,58261;2,66673
943,53146;2,67687
941,4803;2,67711
939,42914;2,67155
937,37799;2,67406
935,32683;2,67685
933,27568;2,67039
931,22452;2,66008
929,17337;2,65319
927,12221;2,64829
925,07106;2,64015
923,0199;2,63407
920,96875;2,63771
918,91759;2,64544
916,86644;2,6469
914,81528;2,64173
912,76413;2,63699
910,71297;2,63775
908,66181;2,63971
906,61066;2,63845
904,5595;2,64177
902,50835;2,65106
900,45719;2,65852
898,40604;2,66118
896,35488;2,65651
894,30373;2,63555
892,25257;2,5873
890,20142;2,51048
888,15026;2,44278
886,09911;2,43192
884,04795;2,47418
881,9968;2,51051
879,94564;2,5011
877,89448;2,46731
875,84333;2,43056
873,79217;2,39424
871,74102;2,37792
869,68986;2,40817
867,63871;2,47173
865,58755;2,52558
863,5364;2,55681
861,48524;2,573
859,43409;2,57882
857,38293;2,58386
855,33178;2,58919
853,28062;2,59983
851,22947;2,6336
849,17831;2,67053
847,12715;2,6609
845,076;2,62556
843,02484;2,60437
840,97369;2,58927
838,92253;2,57601
836,87138;2,57467
834,82022;2,58311
832,76907;2,59139
830,71791;2,59487
828,66676;2,59759
826,6156;2,59849
824,56445;2,59891
822,51329;2,60093
820,46214;2,60549
818,41098;2,61437
816,35982;2,61854
814,30867;2,61738
812,25751;2,61704
810,20636;2,61883
808,1552;2,62729
806,10405;2,64047
804,05289;2,65037
802,00174;2,65162
799,95058;2,64723
797,89943;2,64022
795,84827;2,63004
793,79712;2,63444
791,74596;2,6548
789,69481;2,66529
787,64365;2,66955
785,59249;2,68219
783,54134;2,6939
781,49018;2,69259
779,43903;2,68742
777,38787;2,69
775,33672;2,69438
773,28556;2,69672
771,23441;2,69826
769,18325;2,70332
767,1321;2,70582
765,08094;2,69796
763,02979;2,69283
760,97863;2,69509
758,92748;2,69256
756,87632;2,68712
754,82516;2,6886
752,77401;2,70067
750,72285;2,71053
748,6717;2,69859
746,62054;2,67932
744,56939;2,67199
742,51823;2,67665
740,46708;2,69112
738,41592;2,70679
736,36477;2,72887
734,31361;2,75749
732,26246;2,76628
730,2113;2,76878
728,16015;2,79711
726,10899;2,83421
724,05783;2,88494
722,00668;2,95407
719,95552;3,00484
717,90437;3,02834
715,85321;3,01315
713,80206;2,93139
711,7509;2,84557
709,69975;2,80635
707,64859;2,80484
705,59744;2,81527
703,54628;2,81488
701,49513;2,79571
699,44397;2,7662
697,39281;2,75335
695,34166;2,76689
693,2905;2,77626
691,23935;2,76453
689,18819;2,75264
687,13704;2,75818
685,08588;2,764
683,03473;2,7536
680,98357;2,7448
678,93242;2,74366
676,88126;2,73225
674,83011;2,72439
672,77895;2,74256
670,7278;2,77291
668,67664;2,78402
666,62548;2,77157
664,57433;2,7624
662,52317;2,76382
660,47202;2,77728
658,42086;2,79141
656,36971;2,79424
654,31855;2,80464
652,2674;2,83115
650,21624;2,84841
648,16509;2,84569
646,11393;2,83199
644,06278;2,81515
642,01162;2,80435
639,96047;2,79734
637,90931;2,78433
635,85815;2,77722
633,807;2,78267
631,75584;2,78474
629,70469;2,79235
627,65353;2,82657
625,60238;2,85764
623,55122;2,84983
621,50007;2,83178
619,44891;2,82621
617,39776;2,83249
615,3466;2,85776
613,29545;2,88473
611,24429;2,89579
609,19314;2,89178
607,14198;2,86301
605,09082;2,82733
603,03967;2,82058
600,98851;2,82032
598,93736;2,79961
596,8862;2,78469
594,83505;2,79603
592,78389;2,84572
590,73274;2,91329
588,68158;2,93517
586,63043;2,89306
584,57927;2,86316
582,52812;2,87029
580,47696;2,88474
578,42581;2,86271
576,37465;2,82096
574,32349;2,82739
572,27234;2,87487
570,22118;2,87788
568,17003;2,85155
566,11887;2,85093
564,06772;2,85968
562,01656;2,8806
559,96541;2,89884
557,91425;2,89956
555,8631;2,91876
553,81194;2,92814
551,76079;2,90671
549,70963;2,90018
547,65848;2,93568
545,60732;2,97849
543,55616;3,0007
541,50501;3,00335
539,45385;2,99055
537,4027;2,99072
535,35154;2,98948
533,30039;2,99629
531,24923;3,02796
529,19808;3,02467
527,14692;2,96962
525,09577;2,91833
523,04461;2,9161
520,99346;2,96135
518,9423;3,00821
516,89115;3,03515
514,83999;3,0636
512,78883;3,07038
510,73768;3,07308
508,68652;3,0522
506,63537;3,00947
504,58421;3,0452
502,53306;3,15896
500,4819;3,19394
498,43075;3,12479
496,37959;3,09337
494,32844;3,12797
492,27728;3,09664
490,22613;3,06405
488,17497;3,14726
486,12382;3,33607
484,07266;3,43633
482,0215;3,50905
479,97035;3,42304
477,91919;3,28209
475,86804;3,16908
473,81688;3,09545
471,76573;3,12776
469,71457;3,21805
467,66342;3,20807
465,61226;3,18763
463,56111;3,11385
461,50995;3,05169
459,4588;3,08678
457,40764;3,17265
455,35649;3,24291
453,30533;3,15228
451,25417;3,04594
449,20302;3,02127
447,15186;3,06804
445,10071;3,11554
443,04955;3,07612
440,9984;3,08307
438,94724;3,02249
436,89609;3,03427
434,84493;3,15682
432,79378;3,19029
430,74262;3,05108
428,69147;2,928
426,64031;2,88414
424,58916;2,84306
422,538;2,84371
420,48684;2,91639
418,43569;2,95587
416,38453;2,94846
414,33338;2,97764
412,28222;3,04511
410,23107;3,10257
408,17991;3,08298
406,12876;3,02598
404,0776;2,97291
402,02645;2,88072
399,97529;2,77377
