3997,70175;1,82955
3995,6506;1,83176
3993,59944;1,83496
3991,54829;1,83677
3989,49713;1,83639
3987,44598;1,83444
3985,39482;1,83317
3983,34367;1,83399
3981,29251;1,8359
3979,24136;1,83763
3977,1902;1,83845
3975,13905;1,83917
3973,08789;1,83984
3971,03673;1,8403
3968,98558;1,84206
3966,93442;1,84501
3964,88327;1,84697
3962,83211;1,84755
3960,78096;1,84873
3958,7298;1,85085
3956,67865;1,85298
3954,62749;1,85491
3952,57634;1,85676
3950,52518;1,8586
3948,47403;1,86057
3946,42287;1,86298
3944,37172;1,8632
3942,32056;1,85966
3940,2694;1,85562
3938,21825;1,85396
3936,16709;1,85486
3934,11594;1,85477
3932,06478;1,85228
3930,01363;1,84971
3927,96247;1,84724
3925,91132;1,84361
3923,86016;1,8404
3921,80901;1,83721
3919,75785;1,83296
3917,7067;1,82977
3915,65554;1,82774
3913,60439;1,82443
3911,55323;1,81976
3909,50207;1,81722
3907,45092;1,81742
3905,39976;1,81737
3903,34861;1,81584
3901,29745;1,81195
3899,2463;1,80748
3897,19514;1,80768
3895,14399;1,80973
3893,09283;1,80808
3891,04168;1,80553
3888,99052;1,80678
3886,93937;1,80693
3884,88821;1,80841
3882,83706;1,81077
3880,7859;1,80792
3878,73474;1,80666
3876,68359;1,80722
3874,63243;1,80715
3872,58128;1,80819
3870,53012;1,80695
3868,47897;1,80914
3866,42781;1,81141
3864,37666;1,80795
3862,3255;1,80369
3860,27435;1,80147
3858,22319;1,80156
3856,17204;1,79896
3854,12088;1,79346
3852,06973;1,79537
3850,01857;1,79947
3847,96741;1,79856
3845,91626;1,79643
3843,8651;1,79669
3841,81395;1,79868
3839,76279;1,7979
3837,71164;1,7962
3835,66048;1,79751
3833,60933;1,79867
3831,55817;1,79875
3829,50702;1,79899
3827,45586;1,79818
3825,40471;1,79959
3823,35355;1,79984
3821,3024;1,79818
3819,25124;1,80204
3817,20008;1,8011
3815,14893;1,79777
3813,09777;1,7998
3811,04662;1,80195
3808,99546;1,80209
3806,94431;1,80341
3804,89315;1,80899
3802,842;1,80925
3800,79084;1,80834
3798,73969;1,81154
3796,68853;1,81053
3794,63738;1,80898
3792,58622;1,80848
3790,53506;1,8081
3788,48391;1,80968
3786,43275;1,81231
3784,3816;1,8145
3782,33044;1,81593
3780,27929;1,81534
3778,22813;1,81568
3776,17698;1,81802
3774,12582;1,82083
3772,07467;1,82338
3770,02351;1,82612
3767,97236;1,8298
3765,9212;1,83058
3763,87005;1,83169
3761,81889;1,83392
3759,76773;1,83568
3757,71658;1,83886
3755,66542;1,84343
3753,61427;1,84683
3751,56311;1,84876
3749,51196;1,85338
3747,4608;1,85853
3745,40965;1,85649
3743,35849;1,85954
3741,30734;1,87026
3739,25618;1,87842
3737,20503;1,88556
3735,15387;1,89295
3733,10272;1,8994
3731,05156;1,90802
3729,0004;1,91896
3726,94925;1,92996
3724,89809;1,94506
3722,84694;1,96228
3720,79578;1,97879
3718,74463;1,99454
3716,69347;2,00917
3714,64232;2,0223
3712,59116;2,03759
3710,54001;2,05975
3708,48885;2,08475
3706,4377;2,10986
3704,38654;2,13855
3702,33539;2,17601
3700,28423;2,22046
3698,23307;2,25775
3696,18192;2,28193
3694,13076;2,2974
3692,07961;2,30338
3690,02845;2,29705
3687,9773;2,28071
3685,92614;2,26146
3683,87499;2,24328
3681,82383;2,23316
3679,77268;2,23343
3677,72152;2,23761
3675,67037;2,24712
3673,61921;2,27012
3671,56806;2,28885
3669,5169;2,29761
3667,46574;2,3062
3665,41459;2,31312
3663,36343;2,31832
3661,31228;2,32521
3659,26112;2,33645
3657,20997;2,35125
3655,15881;2,36897
3653,10766;2,38393
3651,0565;2,3957
3649,00535;2,41297
3646,95419;2,4279
3644,90304;2,43361
3642,85188;2,43198
3640,80073;2,42731
3638,74957;2,4244
3636,69841;2,42589
3634,64726;2,43154
3632,5961;2,44061
3630,54495;2,44989
3628,49379;2,46546
3626,44264;2,48961
3624,39148;2,51106
3622,34033;2,53041
3620,28917;2,54547
3618,23802;2,54787
3616,18686;2,53615
3614,13571;2,51832
3612,08455;2,50937
3610,0334;2,5159
3607,98224;2,53113
3605,93108;2,54526
3603,87993;2,55281
3601,82877;2,55745
3599,77762;2,56289
3597,72646;2,56861
3595,67531;2,57712
3593,62415;2,58891
3591,573;2,59641
3589,52184;2,59373
3587,47069;2,58772
3585,41953;2,58966
3583,36838;2,59566
3581,31722;2,60022
3579,26607;2,6052
3577,21491;2,60979
3575,16375;2,61112
3573,1126;2,612
3571,06144;2,61847
3569,01029;2,62896
3566,95913;2,63802
3564,90798;2,64802
3562,85682;2,65837
3560,80567;2,66418
3558,75451;2,6707
3556,70336;2,68146
3554,6522;2,68815
3552,60105;2,68486
3550,54989;2,67622
3548,49874;2,6731
3546,44758;2,68342
3544,39642;2,69985
3542,34527;2,71138
3540,29411;2,71807
3538,24296;2,71863
3536,1918;2,71434
3534,14065;2,71476
3532,08949;2,72126
3530,03834;2,72642
3527,98718;2,72876
3525,93603;2,73215
3523,88487;2,73399
3521,83372;2,73468
3519,78256;2,74247
3517,73141;2,75542
3515,68025;2,75819
3513,62909;2,74754
3511,57794;2,73873
3509,52678;2,73915
3507,47563;2,74583
3505,42447;2,75459
3503,37332;2,76245
3501,32216;2,77015
3499,27101;2,77293
3497,21985;2,76403
3495,1687;2,75909
3493,11754;2,77096
3491,06639;2,7852
3489,01523;2,79522
3486,96407;2,8074
3484,91292;2,81441
3482,86176;2,8064
3480,81061;2,79178
3478,75945;2,78715
3476,7083;2,79003
3474,65714;2,78623
3472,60599;2,77978
3470,55483;2,78189
3468,50368;2,78925
3466,45252;2,79304
3464,40137;2,78791
3462,35021;2,77913
3460,29906;2,77942
3458,2479;2,78929
3456,19674;2,79793
3454,14559;2,79577
3452,09443;2,78676
3450,04328;2,78543
3447,99212;2,79579
3445,94097;2,80724
3443,88981;2,80753
3441,83866;2,80047
3439,7875;2,80095
3437,73635;2,81358
3435,68519;2,82782
3433,63404;2,83092
3431,58288;2,82227
3429,53173;2,81998
3427,48057;2,82837
3425,42941;2,82581
3423,37826;2,81621
3421,3271;2,82024
3419,27595;2,82468
3417,22479;2,81325
3415,17364;2,80414
3413,12248;2,80932
3411,07133;2,81842
3409,02017;2,82541
3406,96902;2,82811
3404,91786;2,82455
3402,86671;2,82134
3400,81555;2,82477
3398,7644;2,83119
3396,71324;2,8344
3394,66208;2,83205
3392,61093;2,82806
3390,55977;2,82475
3388,50862;2,81714
3386,45746;2,80937
3384,40631;2,8158
3382,35515;2,83455
3380,304;2,83753
3378,25284;2,81781
3376,20169;2,80446
3374,15053;2,80982
3372,09938;2,82103
3370,04822;2,82576
3367,99707;2,82685
3365,94591;2,82943
3363,89475;2,83301
3361,8436;2,83833
3359,79244;2,83463
3357,74129;2,82017
3355,69013;2,81394
3353,63898;2,81982
3351,58782;2,82396
3349,53667;2,81579
3347,48551;2,79971
3345,43436;2,79299
3343,3832;2,79967
3341,33205;2,8025
3339,28089;2,7962
3337,22974;2,79673
3335,17858;2,80702
3333,12742;2,81214
3331,07627;2,80808
3329,02511;2,80613
3326,97396;2,81059
3324,9228;2,81396
3322,87165;2,81277
3320,82049;2,8113
3318,76934;2,80892
3316,71818;2,80369
3314,66703;2,79986
3312,61587;2,80008
3310,56472;2,80416
3308,51356;2,80889
3306,46241;2,80929
3304,41125;2,80697
3302,36009;2,80419
3300,30894;2,79982
3298,25778;2,79138
3296,20663;2,77949
3294,15547;2,77856
3292,10432;2,79071
3290,05316;2,79466
3288,00201;2,7878
3285,95085;2,78467
3283,8997;2,78408
3281,84854;2,78302
3279,79739;2,78588
3277,74623;2,79129
3275,69508;2,79697
3273,64392;2,79797
3271,59276;2,787
3269,54161;2,76909
3267,49045;2,75721
3265,4393;2,76244
3263,38814;2,78064
3261,33699;2,79146
3259,28583;2,78641
3257,23468;2,77918
3255,18352;2,77884
3253,13237;2,78027
3251,08121;2,77718
3249,03006;2,77159
3246,9789;2,77285
3244,92775;2,78143
3242,87659;2,77877
3240,82543;2,7611
3238,77428;2,74953
3236,72312;2,74706
3234,67197;2,74261
3232,62081;2,73689
3230,56966;2,73746
3228,5185;2,74644
3226,46735;2,75188
3224,41619;2,74878
3222,36504;2,74701
3220,31388;2,74998
3218,26273;2,75154
3216,21157;2,74965
3214,16041;2,74759
3212,10926;2,74787
3210,0581;2,75005
3208,00695;2,74681
3205,95579;2,74093
3203,90464;2,74206
3201,85348;2,74123
3199,80233;2,7301
3197,75117;2,71911
3195,70002;2,71742
3193,64886;2,71757
3191,59771;2,71229
3189,54655;2,70936
3187,4954;2,7093
3185,44424;2,70362
3183,39308;2,699
3181,34193;2,70296
3179,29077;2,71054
3177,23962;2,71712
3175,18846;2,71847
3173,13731;2,70993
3171,08615;2,69932
3169,035;2,69574
3166,98384;2,69639
3164,93269;2,69454
3162,88153;2,68462
3160,83038;2,67278
3158,77922;2,67032
3156,72807;2,6736
3154,67691;2,67198
3152,62575;2,66613
3150,5746;2,66198
3148,52344;2,65939
3146,47229;2,65891
3144,42113;2,66117
3142,36998;2,66458
3140,31882;2,6661
3138,26767;2,66091
3136,21651;2,65058
3134,16536;2,64173
3132,1142;2,6389
3130,06305;2,64105
3128,01189;2,64187
3125,96074;2,63921
3123,90958;2,63452
3121,85842;2,62628
3119,80727;2,61759
3117,75611;2,61513
3115,70496;2,61569
3113,6538;2,61331
3111,60265;2,61
3109,55149;2,60874
3107,50034;2,60915
3105,44918;2,60572
3103,39803;2,59333
3101,34687;2,57996
3099,29572;2,57444
3097,24456;2,57144
3095,19341;2,56913
3093,14225;2,57239
3091,09109;2,57561
3089,03994;2,57321
3086,98878;2,56898
3084,93763;2,56574
3082,88647;2,56473
3080,83532;2,56819
3078,78416;2,57123
3076,73301;2,56448
3074,68185;2,55366
3072,6307;2,54942
3070,57954;2,54896
3068,52839;2,54672
3066,47723;2,54373
3064,42608;2,54203
3062,37492;2,54076
3060,32376;2,53935
3058,27261;2,53749
3056,22145;2,5327
3054,1703;2,5236
3052,11914;2,51576
3050,06799;2,51501
3048,01683;2,5135
3045,96568;2,50545
3043,91452;2,49968
3041,86337;2,49987
3039,81221;2,50244
3037,76106;2,50575
3035,7099;2,50636
3033,65875;2,5027
3031,60759;2,49818
3029,55643;2,49356
3027,50528;2,48883
3025,45412;2,48693
3023,40297;2,48766
3021,35181;2,48695
3019,30066;2,48432
3017,2495;2,48337
3015,19835;2,48492
3013,14719;2,48446
3011,09604;2,47953
3009,04488;2,47574
3006,99373;2,47782
3004,94257;2,48005
3002,89142;2,4778
3000,84026;2,47701
2998,7891;2,48004
2996,73795;2,48437
2994,68679;2,49187
2992,63564;2,49899
2990,58448;2,50108
2988,53333;2,5006
2986,48217;2,50111
2984,43102;2,50396
2982,37986;2,50679
2980,32871;2,50724
2978,27755;2,50907
2976,2264;2,51477
2974,17524;2,51904
2972,12409;2,52009
2970,07293;2,52329
2968,02177;2,5292
2965,97062;2,53203
2963,91946;2,53102
2961,86831;2,53051
2959,81715;2,53202
2957,766;2,53768
2955,71484;2,54492
2953,66369;2,5444
2951,61253;2,54028
2949,56138;2,54191
2947,51022;2,54694
2945,45907;2,55123
2943,40791;2,55198
2941,35675;2,55109
2939,3056;2,55296
2937,25444;2,55573
2935,20329;2,55685
2933,15213;2,55571
2931,10098;2,55346
2929,04982;2,55365
2926,99867;2,55533
2924,94751;2,55562
2922,89636;2,55522
2920,8452;2,55316
2918,79405;2,5488
2916,74289;2,54611
2914,69174;2,544
2912,64058;2,53914
2910,58942;2,5357
2908,53827;2,5355
2906,48711;2,53684
2904,43596;2,53806
2902,3848;2,53604
2900,33365;2,53427
2898,28249;2,53589
2896,23134;2,53693
2894,18018;2,53587
2892,12903;2,53262
2890,07787;2,52881
2888,02672;2,52726
2885,97556;2,52548
2883,92441;2,52375
2881,87325;2,52582
2879,82209;2,52769
2877,77094;2,52679
2875,71978;2,52507
2873,66863;2,52225
2871,61747;2,52101
2869,56632;2,52059
2867,51516;2,51463
2865,46401;2,50476
2863,41285;2,49789
2861,3617;2,4927
2859,31054;2,48536
2857,25939;2,47568
2855,20823;2,46548
2853,15708;2,46102
2851,10592;2,46195
2849,05476;2,46062
2847,00361;2,45587
2844,95245;2,44993
2842,9013;2,44407
2840,85014;2,43947
2838,79899;2,4354
2836,74783;2,42998
2834,69668;2,42429
2832,64552;2,41969
2830,59437;2,41355
2828,54321;2,40537
2826,49206;2,39868
2824,4409;2,39466
2822,38975;2,39038
2820,33859;2,38475
2818,28743;2,38022
2816,23628;2,37607
2814,18512;2,37094
2812,13397;2,36745
2810,08281;2,3662
2808,03166;2,3646
2805,9805;2,36232
2803,92935;2,36016
2801,87819;2,35801
2799,82704;2,35725
2797,77588;2,35732
2795,72473;2,35521
2793,67357;2,34989
2791,62242;2,34283
2789,57126;2,33804
2787,5201;2,33597
2785,46895;2,33348
2783,41779;2,33227
2781,36664;2,3322
2779,31548;2,32934
2777,26433;2,3247
2775,21317;2,32163
2773,16202;2,32089
2771,11086;2,31945
2769,05971;2,31671
2767,00855;2,31525
2764,9574;2,31426
2762,90624;2,31256
2760,85509;2,30989
2758,80393;2,3073
2756,75277;2,30655
2754,70162;2,30578
2752,65046;2,30197
2750,59931;2,2979
2748,54815;2,29779
2746,497;2,29865
2744,44584;2,29695
2742,39469;2,29538
2740,34353;2,29418
2738,29238;2,29046
2736,24122;2,28711
2734,19007;2,28661
2732,13891;2,28755
2730,08776;2,28789
2728,0366;2,28674
2725,98544;2,28593
2723,93429;2,28505
2721,88313;2,2832
2719,83198;2,28194
2717,78082;2,28204
2715,72967;2,28355
2713,67851;2,28403
2711,62736;2,28044
2709,5762;2,27654
2707,52505;2,27613
2705,47389;2,27611
2703,42274;2,27431
2701,37158;2,273
2699,32043;2,27187
2697,26927;2,26866
2695,21811;2,26648
2693,16696;2,2665
2691,1158;2,26597
2689,06465;2,26672
2687,01349;2,26796
2684,96234;2,26419
2682,91118;2,25848
2680,86003;2,25834
2678,80887;2,26128
2676,75772;2,26045
2674,70656;2,25714
2672,65541;2,2563
2670,60425;2,25743
2668,55309;2,25688
2666,50194;2,25445
2664,45078;2,25338
2662,39963;2,25436
2660,34847;2,25482
2658,29732;2,25348
2656,24616;2,25153
2654,19501;2,24916
2652,14385;2,24558
2650,0927;2,24214
2648,04154;2,24134
2645,99039;2,24397
2643,93923;2,24828
2641,88808;2,25159
2639,83692;2,25294
2637,78576;2,25428
2635,73461;2,25732
2633,68345;2,26104
2631,6323;2,26395
2629,58114;2,26627
2627,52999;2,26953
2625,47883;2,27384
2623,42768;2,2772
2621,37652;2,2791
2619,32537;2,28184
2617,27421;2,28573
2615,22306;2,28931
2613,1719;2,2924
2611,12075;2,29567
2609,06959;2,29934
2607,01843;2,30299
2604,96728;2,30555
2602,91612;2,30545
2600,86497;2,30452
2598,81381;2,30703
2596,76266;2,31212
2594,7115;2,31366
2592,66035;2,31035
2590,60919;2,30733
2588,55804;2,3075
2586,50688;2,30994
2584,45573;2,31399
2582,40457;2,31744
2580,35342;2,31723
2578,30226;2,31643
2576,2511;2,3169
2574,19995;2,31654
2572,14879;2,3175
2570,09764;2,31988
2568,04648;2,32014
2565,99533;2,31919
2563,94417;2,31891
2561,89302;2,31932
2559,84186;2,31973
2557,79071;2,31919
2555,73955;2,31797
2553,6884;2,31723
2551,63724;2,31896
2549,58609;2,32308
2547,53493;2,32625
2545,48377;2,32787
2543,43262;2,33108
2541,38146;2,33565
2539,33031;2,33861
2537,27915;2,34237
2535,228;2,35
2533,17684;2,35839
2531,12569;2,36563
2529,07453;2,37182
2527,02338;2,37724
2524,97222;2,38477
2522,92107;2,39152
2520,86991;2,39346
2518,81876;2,39369
2516,7676;2,395
2514,71644;2,39579
2512,66529;2,39352
2510,61413;2,39085
2508,56298;2,38977
2506,51182;2,3879
2504,46067;2,38445
2502,40951;2,37899
2500,35836;2,37098
2498,3072;2,36333
2496,25605;2,35754
2494,20489;2,34975
2492,15374;2,33785
2490,10258;2,32459
2488,05143;2,31288
2486,00027;2,30362
2483,94911;2,29688
2481,89796;2,2911
2479,8468;2,28404
2477,79565;2,27567
2475,74449;2,26799
2473,69334;2,2612
2471,64218;2,2524
2469,59103;2,24125
2467,53987;2,23207
2465,48872;2,22757
2463,43756;2,22458
2461,38641;2,21989
2459,33525;2,21442
2457,2841;2,20983
2455,23294;2,20636
2453,18178;2,20224
2451,13063;2,19711
2449,07947;2,1929
2447,02832;2,18955
2444,97716;2,18614
2442,92601;2,18237
2440,87485;2,17835
2438,8237;2,17535
2436,77254;2,17352
2434,72139;2,17249
2432,67023;2,17175
2430,61908;2,17024
2428,56792;2,16839
2426,51677;2,16707
2424,46561;2,16618
2422,41445;2,16448
2420,3633;2,16179
2418,31214;2,15976
2416,26099;2,15833
2414,20983;2,1564
2412,15868;2,1543
2410,10752;2,15283
2408,05637;2,15297
2406,00521;2,15394
2403,95406;2,15326
2401,9029;2,151
2399,85175;2,14872
2397,80059;2,14691
2395,74944;2,14575
2393,69828;2,14474
2391,64712;2,14337
2389,59597;2,14243
2387,54481;2,14213
2385,49366;2,14117
2383,4425;2,13919
2381,39135;2,13684
2379,34019;2,13366
2377,28904;2,12953
2375,23788;2,12597
2373,18673;2,12236
2371,13557;2,11683
2369,08442;2,1114
2367,03326;2,1077
2364,9821;2,10463
2362,93095;2,10398
2360,87979;2,10724
2358,82864;2,11531
2356,77748;2,1296
2354,72633;2,14424
2352,67517;2,15102
2350,62402;2,15521
2348,57286;2,17062
2346,52171;2,19961
2344,47055;2,22942
2342,4194;2,24612
2340,36824;2,24532
2338,31709;2,23089
2336,26593;2,20818
2334,21477;2,18386
2332,16362;2,16711
2330,11246;2,1586
2328,06131;2,15194
2326,01015;2,14623
2323,959;2,14318
2321,90784;2,14317
2319,85669;2,14549
2317,80553;2,14835
2315,75438;2,15164
2313,70322;2,15452
2311,65207;2,15476
2309,60091;2,153
2307,54976;2,15207
2305,4986;2,15346
2303,44744;2,15622
2301,39629;2,1577
2299,34513;2,15636
2297,29398;2,15367
2295,24282;2,15207
2293,19167;2,15231
2291,14051;2,15374
2289,08936;2,15509
2287,0382;2,15516
2284,98705;2,1544
2282,93589;2,15447
2280,88474;2,15583
2278,83358;2,15799
2276,78243;2,16047
2274,73127;2,1621
2272,68011;2,1623
2270,62896;2,16212
2268,5778;2,16271
2266,52665;2,16424
2264,47549;2,16609
2262,42434;2,16705
2260,37318;2,16679
2258,32203;2,16694
2256,27087;2,16864
2254,21972;2,17102
2252,16856;2,1729
2250,11741;2,17382
2248,06625;2,17505
2246,0151;2,17676
2243,96394;2,1788
2241,91278;2,18022
2239,86163;2,18168
2237,81047;2,18324
2235,75932;2,18579
2233,70816;2,18925
2231,65701;2,19176
2229,60585;2,19361
2227,5547;2,19586
2225,50354;2,19829
2223,45239;2,1999
2221,40123;2,2012
2219,35008;2,20312
2217,29892;2,20509
2215,24777;2,20728
2213,19661;2,209
2211,14545;2,20911
2209,0943;2,20837
2207,04314;2,20839
2204,99199;2,21008
2202,94083;2,21318
2200,88968;2,21645
2198,83852;2,21881
2196,78737;2,22058
2194,73621;2,22161
2192,68506;2,22186
2190,6339;2,2226
2188,58275;2,2244
2186,53159;2,2276
2184,48044;2,23209
2182,42928;2,23528
2180,37812;2,23618
2178,32697;2,23725
2176,27581;2,23977
2174,22466;2,24279
2172,1735;2,24429
2170,12235;2,24465
2168,07119;2,24723
2166,02004;2,25224
2163,96888;2,25706
2161,91773;2,26119
2159,86657;2,26535
2157,81542;2,27007
2155,76426;2,27496
2153,71311;2,27847
2151,66195;2,28156
2149,61079;2,28747
2147,55964;2,29445
2145,50848;2,29672
2143,45733;2,29544
2141,40617;2,29595
2139,35502;2,29909
2137,30386;2,30207
2135,25271;2,30211
2133,20155;2,30018
2131,1504;2,29766
2129,09924;2,29439
2127,04809;2,29143
2124,99693;2,28892
2122,94578;2,28587
2120,89462;2,28192
2118,84346;2,27787
2116,79231;2,27536
2114,74115;2,27399
2112,69;2,27313
2110,63884;2,27307
2108,58769;2,27217
2106,53653;2,27069
2104,48538;2,27047
2102,43422;2,27067
2100,38307;2,2704
2098,33191;2,27051
2096,28076;2,27132
2094,2296;2,27181
2092,17844;2,27186
2090,12729;2,2724
2088,07613;2,27328
2086,02498;2,27337
2083,97382;2,27347
2081,92267;2,27554
2079,87151;2,27766
2077,82036;2,27686
2075,7692;2,2761
2073,71805;2,2782
2071,66689;2,28024
2069,61574;2,28031
2067,56458;2,27966
2065,51343;2,27879
2063,46227;2,27906
2061,41111;2,2815
2059,35996;2,28416
2057,3088;2,2856
2055,25765;2,28679
2053,20649;2,28812
2051,15534;2,28886
2049,10418;2,28945
2047,05303;2,29091
2045,00187;2,29275
2042,95072;2,29416
2040,89956;2,29541
2038,84841;2,29539
2036,79725;2,29299
2034,7461;2,29073
2032,69494;2,29052
2030,64378;2,29119
2028,59263;2,29212
2026,54147;2,29367
2024,49032;2,2945
2022,43916;2,29435
2020,38801;2,29544
2018,33685;2,29761
2016,2857;2,29881
2014,23454;2,29831
2012,18339;2,2972
2010,13223;2,29732
2008,08108;2,29804
2006,02992;2,29747
2003,97877;2,29623
2001,92761;2,29693
1999,87645;2,29991
1997,8253;2,30377
1995,77414;2,30849
1993,72299;2,31183
1991,67183;2,31157
1989,62068;2,31093
1987,56952;2,31245
1985,51837;2,31567
1983,46721;2,31803
1981,41606;2,31777
1979,3649;2,31637
1977,31375;2,31695
1975,26259;2,31866
1973,21144;2,31894
1971,16028;2,31972
1969,10912;2,32339
1967,05797;2,3287
1965,00681;2,33342
1962,95566;2,33586
1960,9045;2,33534
1958,85335;2,33242
1956,80219;2,32971
1954,75104;2,32788
1952,69988;2,32529
1950,64873;2,32237
1948,59757;2,32137
1946,54642;2,32304
1944,49526;2,32523
1942,44411;2,3264
1940,39295;2,32819
1938,34179;2,32879
1936,29064;2,32776
1934,23948;2,32729
1932,18833;2,32839
1930,13717;2,33022
1928,08602;2,33167
1926,03486;2,33297
1923,98371;2,33341
1921,93255;2,33405
1919,8814;2,33424
1917,83024;2,33322
1915,77909;2,3346
1913,72793;2,33718
1911,67678;2,33967
1909,62562;2,34121
1907,57446;2,34255
1905,52331;2,34432
1903,47215;2,34521
1901,421;2,34584
1899,36984;2,34814
1897,31869;2,35109
1895,26753;2,3531
1893,21638;2,35608
1891,16522;2,35923
1889,11407;2,36113
1887,06291;2,36322
1885,01176;2,36526
1882,9606;2,36671
1880,90945;2,36695
1878,85829;2,36746
1876,80713;2,37052
1874,75598;2,3767
1872,70482;2,38431
1870,65367;2,38904
1868,60251;2,39042
1866,55136;2,39153
1864,5002;2,39236
1862,44905;2,39433
1860,39789;2,39856
1858,34674;2,403
1856,29558;2,40598
1854,24443;2,40796
1852,19327;2,41054
1850,14212;2,41515
1848,09096;2,42171
1846,0398;2,42697
1843,98865;2,43079
1841,93749;2,4384
1839,88634;2,44566
1837,83518;2,449
1835,78403;2,4524
1833,73287;2,45809
1831,68172;2,46382
1829,63056;2,47136
1827,57941;2,48156
1825,52825;2,48841
1823,4771;2,49422
1821,42594;2,5012
1819,37478;2,50862
1817,32363;2,51638
1815,27247;2,52344
1813,22132;2,52958
1811,17016;2,53661
1809,11901;2,54782
1807,06785;2,56469
1805,0167;2,58653
1802,96554;2,61028
1800,91439;2,63219
1798,86323;2,64899
1796,81208;2,65749
1794,76092;2,65879
1792,70977;2,6541
1790,65861;2,64334
1788,60745;2,62967
1786,5563;2,61676
1784,50514;2,60653
1782,45399;2,59722
1780,40283;2,5878
1778,35168;2,58173
1776,30052;2,57851
1774,24937;2,57482
1772,19821;2,57357
1770,14706;2,57743
1768,0959;2,57887
1766,04475;2,58047
1763,99359;2,58472
1761,94244;2,59015
1759,89128;2,597
1757,84012;2,60151
1755,78897;2,6067
1753,73781;2,61286
1751,68666;2,61562
1749,6355;2,61896
1747,58435;2,6236
1745,53319;2,62834
1743,48204;2,6338
1741,43088;2,63811
1739,37973;2,64173
1737,32857;2,64385
1735,27742;2,63788
1733,22626;2,63783
1731,17511;2,64867
1729,12395;2,65593
1727,07279;2,66022
1725,02164;2,66418
1722,97048;2,67015
1720,91933;2,67465
1718,86817;2,67137
1716,81702;2,67186
1714,76586;2,68301
1712,71471;2,69496
1710,66355;2,7013
1708,6124;2,7019
1706,56124;2,70337
1704,51009;2,71249
1702,45893;2,72013
1700,40778;2,72869
1698,35662;2,75216
1696,30546;2,76786
1694,25431;2,77545
1692,20315;2,78544
1690,152;2,79828
1688,10084;2,81253
1686,04969;2,82028
1683,99853;2,83076
1681,94738;2,84856
1679,89622;2,85184
1677,84507;2,844
1675,79391;2,84118
1673,74276;2,85192
1671,6916;2,86326
1669,64045;2,86689
1667,58929;2,87008
1665,53813;2,871
1663,48698;2,86952
1661,43582;2,87342
1659,38467;2,88265
1657,33351;2,89349
1655,28236;2,89849
1653,2312;2,89584
1651,18005;2,90022
1649,12889;2,90211
1647,07774;2,89348
1645,02658;2,88923
1642,97543;2,89522
1640,92427;2,90458
1638,87312;2,9096
1636,82196;2,90617
1634,7708;2,89922
1632,71965;2,89129
1630,66849;2,88504
1628,61734;2,88951
1626,56618;2,90375
1624,51503;2,91123
1622,46387;2,90861
1620,41272;2,90333
1618,36156;2,89402
1616,31041;2,89113
1614,25925;2,89997
1612,2081;2,90483
1610,15694;2,90433
1608,10579;2,90617
1606,05463;2,90821
1604,00347;2,90098
1601,95232;2,88463
1599,90116;2,87182
1597,85001;2,86759
1595,79885;2,8641
1593,7477;2,85453
1591,69654;2,84007
1589,64539;2,82349
1587,59423;2,80727
1585,54308;2,79367
1583,49192;2,78002
1581,44077;2,76614
1579,38961;2,75257
1577,33846;2,73184
1575,2873;2,70816
1573,23614;2,68894
1571,18499;2,66464
1569,13383;2,63945
1567,08268;2,62218
1565,03152;2,60896
1562,98037;2,59868
1560,92921;2,57887
1558,87806;2,54767
1556,8269;2,52726
1554,77575;2,50938
1552,72459;2,49011
1550,67344;2,47196
1548,62228;2,45764
1546,57113;2,45039
1544,51997;2,44927
1542,46881;2,44753
1540,41766;2,43383
1538,3665;2,42438
1536,31535;2,42631
1534,26419;2,42632
1532,21304;2,43065
1530,16188;2,43822
1528,11073;2,44158
1526,05957;2,44659
1524,00842;2,45266
1521,95726;2,4538
1519,90611;2,45499
1517,85495;2,45195
1515,80379;2,44811
1513,75264;2,45264
1511,70148;2,4626
1509,65033;2,46885
1507,59917;2,46254
1505,54802;2,4606
1503,49686;2,46863
1501,44571;2,46785
1499,39455;2,45921
1497,3434;2,4551
1495,29224;2,46305
1493,24109;2,47606
1491,18993;2,48347
1489,13878;2,48879
1487,08762;2,49449
1485,03646;2,49803
1482,98531;2,49925
1480,93415;2,50177
1478,883;2,50854
1476,83184;2,51793
1474,78069;2,52672
1472,72953;2,53054
1470,67838;2,5322
1468,62722;2,53252
1466,57607;2,53233
1464,52491;2,53908
1462,47376;2,5532
1460,4226;2,56337
1458,37145;2,56434
1456,32029;2,56467
1454,26913;2,56885
1452,21798;2,56831
1450,16682;2,5628
1448,11567;2,55768
1446,06451;2,55689
1444,01336;2,55721
1441,9622;2,55698
1439,91105;2,55732
1437,85989;2,55472
1435,80874;2,55307
1433,75758;2,55495
1431,70643;2,5532
1429,65527;2,54915
1427,60412;2,5458
1425,55296;2,53834
1423,5018;2,52758
1421,45065;2,51842
1419,39949;2,50904
1417,34834;2,49901
1415,29718;2,48585
1413,24603;2,46823
1411,19487;2,44923
1409,14372;2,43529
1407,09256;2,43081
1405,04141;2,43627
1402,99025;2,44904
1400,9391;2,46063
1398,88794;2,4691
1396,83679;2,47739
1394,78563;2,48599
1392,73447;2,49762
1390,68332;2,50956
1388,63216;2,52218
1386,58101;2,53966
1384,52985;2,55577
1382,4787;2,56564
1380,42754;2,57573
1378,37639;2,58798
1376,32523;2,5975
1374,27408;2,60629
1372,22292;2,62085
1370,17177;2,63802
1368,12061;2,65359
1366,06946;2,66576
1364,0183;2,67293
1361,96714;2,67822
1359,91599;2,68223
1357,86483;2,68089
1355,81368;2,67861
1353,76252;2,68399
1351,71137;2,6937
1349,66021;2,69814
1347,60906;2,69649
1345,5579;2,69641
1343,50675;2,7034
1341,45559;2,7129
1339,40444;2,71949
1337,35328;2,7218
1335,30213;2,72018
1333,25097;2,72079
1331,19981;2,72718
1329,14866;2,7345
1327,0975;2,73658
1325,04635;2,73414
1322,99519;2,73445
1320,94404;2,74286
1318,89288;2,75626
1316,84173;2,76537
1314,79057;2,76677
1312,73942;2,7669
1310,68826;2,76636
1308,63711;2,76168
1306,58595;2,76
1304,5348;2,7653
1302,48364;2,77161
1300,43248;2,77495
1298,38133;2,77567
1296,33017;2,77603
1294,27902;2,77676
1292,22786;2,77997
1290,17671;2,7875
1288,12555;2,79483
1286,0744;2,79909
1284,02324;2,80166
1281,97209;2,80436
1279,92093;2,81097
1277,86978;2,81912
1275,81862;2,81966
1273,76747;2,8111
1271,71631;2,80059
1269,66515;2,79559
1267,614;2,79677
1265,56284;2,80007
1263,51169;2,80642
1261,46053;2,81449
1259,40938;2,81806
1257,35822;2,81809
1255,30707;2,81588
1253,25591;2,81345
1251,20476;2,81887
1249,1536;2,82877
1247,10245;2,83271
1245,05129;2,83267
1243,00013;2,83367
1240,94898;2,83346
1238,89782;2,83457
1236,84667;2,84156
1234,79551;2,84837
1232,74436;2,8494
1230,6932;2,84581
1228,64205;2,84627
1226,59089;2,85312
1224,53974;2,85377
1222,48858;2,8516
1220,43743;2,8561
1218,38627;2,85906
1216,33512;2,85652
1214,28396;2,85712
1212,2328;2,86531
1210,18165;2,87277
1208,13049;2,86927
1206,07934;2,86032
1204,02818;2,85622
1201,97703;2,85324
1199,92587;2,84906
1197,87472;2,84872
1195,82356;2,85331
1193,77241;2,86242
1191,72125;2,87285
1189,6701;2,87389
1187,61894;2,86803
1185,56779;2,8699
1183,51663;2,87706
1181,46547;2,87663
1179,41432;2,87329
1177,36316;2,8777
1175,31201;2,89028
1173,26085;2,90267
1171,2097;2,90611
1169,15854;2,90114
1167,10739;2,89443
1165,05623;2,88966
1163,00508;2,88107
1160,95392;2,86438
1158,90277;2,85264
1156,85161;2,8563
1154,80046;2,86533
1152,7493;2,86374
1150,69814;2,8511
1148,64699;2,8401
1146,59583;2,83314
1144,54468;2,82475
1142,49352;2,81372
1140,44237;2,80091
1138,39121;2,78617
1136,34006;2,76668
1134,2889;2,74721
1132,23775;2,73216
1130,18659;2,71486
1128,13544;2,69613
1126,08428;2,68337
1124,03313;2,67032
1121,98197;2,65369
1119,93081;2,64292
1117,87966;2,63681
1115,8285;2,63012
1113,77735;2,62924
1111,72619;2,63
1109,67504;2,61958
1107,62388;2,6039
1105,57273;2,59164
1103,52157;2,58057
1101,47042;2,56873
1099,41926;2,55685
1097,36811;2,54746
1095,31695;2,53729
1093,2658;2,52113
1091,21464;2,50601
1089,16348;2,49607
1087,11233;2,48494
1085,06117;2,47683
1083,01002;2,47466
1080,95886;2,46799
1078,90771;2,45633
1076,85655;2,44572
1074,8054;2,43523
1072,75424;2,42621
1070,70309;2,42189
1068,65193;2,41746
1066,60078;2,40852
1064,54962;2,40112
1062,49847;2,39778
1060,44731;2,39191
1058,39615;2,38137
1056,345;2,37108
1054,29384;2,3635
1052,24269;2,35646
1050,19153;2,34742
1048,14038;2,33631
1046,08922;2,3274
1044,03807;2,32318
1041,98691;2,31991
1039,93576;2,31438
1037,8846;2,30835
1035,83345;2,30357
1033,78229;2,30078
1031,73114;2,30221
1029,67998;2,30635
1027,62882;2,30747
1025,57767;2,30476
1023,52651;2,30345
1021,47536;2,30486
1019,4242;2,30608
1017,37305;2,30757
1015,32189;2,30907
1013,27074;2,30662
1011,21958;2,29985
1009,16843;2,29498
1007,11727;2,29693
1005,06612;2,30525
1003,01496;2,31721
1000,96381;2,3289
998,91265;2,3381
996,86149;2,34502
994,81034;2,35319
992,75918;2,36646
990,70803;2,37908
988,65687;2,38464
986,60572;2,3876
984,55456;2,3913
982,50341;2,3944
980,45225;2,39651
978,4011;2,39745
976,34994;2,4001
974,29879;2,40595
972,24763;2,41133
970,19647;2,41463
968,14532;2,41736
966,09416;2,42225
964,04301;2,43073
961,99185;2,44016
959,9407;2,44993
957,88954;2,45968
955,83839;2,46551
953,78723;2,47157
951,73608;2,48473
949,68492;2,49838
947,63377;2,5018
945,58261;2,49885
943,53146;2,50081
941,4803;2,50861
939,42914;2,51573
937,37799;2,51998
935,32683;2,52555
933,27568;2,5324
931,22452;2,53458
929,17337;2,52863
927,12221;2,51897
925,07106;2,51406
923,0199;2,51343
920,96875;2,51396
918,91759;2,51509
916,86644;2,5138
914,81528;2,51432
912,76413;2,52061
910,71297;2,52463
908,66181;2,52208
906,61066;2,5187
904,5595;2,51671
902,50835;2,51599
900,45719;2,5159
898,40604;2,51322
896,35488;2,51051
894,30373;2,51216
892,25257;2,51804
890,20142;2,52196
888,15026;2,51821
886,09911;2,51694
884,04795;2,52579
881,9968;2,53399
879,94564;2,53689
877,89448;2,53802
875,84333;2,53345
873,79217;2,52269
871,74102;2,51602
869,68986;2,52513
867,63871;2,5428
865,58755;2,55318
863,5364;2,55802
861,48524;2,56145
859,43409;2,56729
857,38293;2,57797
855,33178;2,58261
853,28062;2,58271
851,22947;2,59376
849,17831;2,61646
847,12715;2,63726
845,076;2,64056
843,02484;2,63103
840,97369;2,63193
838,92253;2,64301
836,87138;2,64697
834,82022;2,64329
832,76907;2,64328
830,71791;2,64835
828,66676;2,65398
826,6156;2,66426
824,56445;2,6835
822,51329;2,70654
820,46214;2,72243
818,41098;2,72877
816,35982;2,72801
814,30867;2,72325
812,25751;2,72721
810,20636;2,74559
808,1552;2,75738
806,10405;2,75381
804,05289;2,75148
802,00174;2,76097
799,95058;2,77724
797,89943;2,77783
795,84827;2,76979
793,79712;2,76996
791,74596;2,77293
789,69481;2,77639
787,64365;2,77751
785,59249;2,77866
783,54134;2,78152
781,49018;2,78538
779,43903;2,79759
777,38787;2,81247
775,33672;2,81698
773,28556;2,82113
771,23441;2,83602
769,18325;2,85231
767,1321;2,8525
765,08094;2,83684
763,02979;2,82632
760,97863;2,82924
758,92748;2,84753
756,87632;2,87531
754,82516;2,88691
752,77401;2,882
750,72285;2,88484
748,6717;2,88631
746,62054;2,88226
744,56939;2,89238
742,51823;2,91626
740,46708;2,92852
738,41592;2,92902
736,36477;2,93191
734,31361;2,9286
732,26246;2,92402
730,2113;2,92285
728,16015;2,92211
726,10899;2,93028
724,05783;2,93888
722,00668;2,94709
719,95552;2,9632
717,90437;2,96748
715,85321;2,94566
713,80206;2,91817
711,7509;2,88569
709,69975;2,85875
707,64859;2,85428
705,59744;2,87559
703,54628;2,90838
701,49513;2,91023
699,44397;2,87393
697,39281;2,84216
695,34166;2,83532
693,2905;2,84838
691,23935;2,8751
689,18819;2,89103
687,13704;2,87645
685,08588;2,86124
683,03473;2,87176
680,98357;2,88701
678,93242;2,88452
676,88126;2,87181
674,83011;2,85352
672,77895;2,83282
670,7278;2,83395
668,67664;2,87518
666,62548;2,92222
664,57433;2,93155
662,52317;2,91813
660,47202;2,89961
658,42086;2,8749
656,36971;2,84876
654,31855;2,82932
652,2674;2,81766
650,21624;2,82086
648,16509;2,8406
646,11393;2,86434
644,06278;2,88064
642,01162;2,87828
639,96047;2,86297
637,90931;2,8509
635,85815;2,85373
633,807;2,87715
631,75584;2,89885
629,70469;2,88862
627,65353;2,86194
625,60238;2,86233
623,55122;2,8945
621,50007;2,94034
619,44891;2,96383
617,39776;2,94121
615,3466;2,90872
613,29545;2,91762
611,24429;2,93272
609,19314;2,89908
607,14198;2,86496
605,09082;2,86621
603,03967;2,86918
600,98851;2,85611
598,93736;2,85098
596,8862;2,861
594,83505;2,86556
592,78389;2,85151
590,73274;2,81198
588,68158;2,76519
586,63043;2,74917
584,57927;2,75784
582,52812;2,7657
580,47696;2,7607
578,42581;2,74408
576,37465;2,73573
574,32349;2,72716
572,27234;2,69531
570,22118;2,66747
568,17003;2,67044
566,11887;2,68905
564,06772;2,69118
562,01656;2,6626
559,96541;2,62727
557,91425;2,60638
555,8631;2,57918
553,81194;2,54129
551,76079;2,52298
549,70963;2,52815
547,65848;2,52912
545,60732;2,51581
543,55616;2,49675
541,50501;2,48641
539,45385;2,48235
537,4027;2,46709
535,35154;2,4462
533,30039;2,43358
531,24923;2,43056
529,19808;2,4334
527,14692;2,44689
525,09577;2,46324
523,04461;2,46767
520,99346;2,4653
518,9423;2,46271
516,89115;2,45417
514,83999;2,43609
512,78883;2,41803
510,73768;2,40539
508,68652;2,41266
506,63537;2,45269
504,58421;2,48663
502,53306;2,47256
500,4819;2,43954
498,43075;2,42239
496,37959;2,41733
494,32844;2,41401
492,27728;2,40421
490,22613;2,38473
488,17497;2,35887
486,12382;2,32829
484,07266;2,29437
482,0215;2,26632
479,97035;2,24933
477,91919;2,23244
475,86804;2,2067
473,81688;2,17957
471,76573;2,16291
469,71457;2,15778
467,66342;2,15469
465,61226;2,14875
463,56111;2,13992
461,50995;2,12974
459,4588;2,11738
457,40764;2,10514
455,35649;2,10324
453,30533;2,11286
451,25417;2,12759
449,20302;2,13652
447,15186;2,14104
445,10071;2,1529
443,04955;2,17327
440,9984;2,19225
438,94724;2,19033
436,89609;2,17002
434,84493;2,16217
432,79378;2,17211
430,74262;2,1882
428,69147;2,21248
426,64031;2,22453
424,58916;2,20691
422,538;2,20597
420,48684;2,25695
418,43569;2,31161
416,38453;2,29946
414,33338;2,2571
412,28222;2,24268
410,23107;2,25446
408,17991;2,25927
406,12876;2,24625
404,0776;2,22633
402,02645;2,21045
399,97529;2,2051
