3997,70175;1,81603
3995,6506;1,81667
3993,59944;1,81832
3991,54829;1,81941
3989,49713;1,81964
3987,44598;1,81987
3985,39482;1,82065
3983,34367;1,82245
3981,29251;1,82422
3979,24136;1,82463
3977,1902;1,82512
3975,13905;1,8274
3973,08789;1,82986
3971,03673;1,83072
3968,98558;1,83082
3966,93442;1,83185
3964,88327;1,83392
3962,83211;1,83598
3960,78096;1,83812
3958,7298;1,84058
3956,67865;1,84295
3954,62749;1,84535
3952,57634;1,84828
3950,52518;1,85111
3948,47403;1,85272
3946,42287;1,85321
3944,37172;1,85254
3942,32056;1,8521
3940,2694;1,8525
3938,21825;1,85145
3936,16709;1,84883
3934,11594;1,84502
3932,06478;1,84072
3930,01363;1,83734
3927,96247;1,83461
3925,91132;1,8311
3923,86016;1,8266
3921,80901;1,82067
3919,75785;1,81361
3917,7067;1,80762
3915,65554;1,80398
3913,60439;1,80124
3911,55323;1,79828
3909,50207;1,79682
3907,45092;1,79609
3905,39976;1,79409
3903,34861;1,79223
3901,29745;1,79044
3899,2463;1,78774
3897,19514;1,78639
3895,14399;1,78506
3893,09283;1,78148
3891,04168;1,7792
3888,99052;1,78034
3886,93937;1,7784
3884,88821;1,77625
3882,83706;1,776
3880,7859;1,7733
3878,73474;1,77365
3876,68359;1,77552
3874,63243;1,77526
3872,58128;1,77519
3870,53012;1,77379
3868,47897;1,77539
3866,42781;1,77641
3864,37666;1,77248
3862,3255;1,7691
3860,27435;1,76871
3858,22319;1,76927
3856,17204;1,76459
3854,12088;1,75565
3852,06973;1,75541
3850,01857;1,76099
3847,96741;1,76277
3845,91626;1,7606
3843,8651;1,75858
3841,81395;1,75972
3839,76279;1,76007
3837,71164;1,75886
3835,66048;1,75983
3833,60933;1,76012
3831,55817;1,75867
3829,50702;1,75827
3827,45586;1,75822
3825,40471;1,76
3823,35355;1,76082
3821,3024;1,75988
3819,25124;1,76234
3817,20008;1,76071
3815,14893;1,75863
3813,09777;1,76144
3811,04662;1,76232
3808,99546;1,75923
3806,94431;1,75733
3804,89315;1,76073
3802,842;1,7608
3800,79084;1,76095
3798,73969;1,76552
3796,68853;1,76679
3794,63738;1,76666
3792,58622;1,76599
3790,53506;1,76521
3788,48391;1,76662
3786,43275;1,76898
3784,3816;1,77136
3782,33044;1,7734
3780,27929;1,77347
3778,22813;1,77438
3776,17698;1,77644
3774,12582;1,77798
3772,07467;1,77871
3770,02351;1,7789
3767,97236;1,78052
3765,9212;1,78249
3763,87005;1,78605
3761,81889;1,78889
3759,76773;1,79024
3757,71658;1,79385
3755,66542;1,79752
3753,61427;1,79676
3751,56311;1,79458
3749,51196;1,79855
3747,4608;1,80422
3745,40965;1,80253
3743,35849;1,80622
3741,30734;1,8182
3739,25618;1,82627
3737,20503;1,83141
3735,15387;1,83822
3733,10272;1,84547
3731,05156;1,85279
3729,0004;1,86034
3726,94925;1,86838
3724,89809;1,88175
3722,84694;1,89792
3720,79578;1,91243
3718,74463;1,92533
3716,69347;1,93711
3714,64232;1,94687
3712,59116;1,95719
3710,54001;1,97405
3708,48885;1,99597
3706,4377;2,01943
3704,38654;2,04702
3702,33539;2,08466
3700,28423;2,13183
3698,23307;2,17655
3696,18192;2,21241
3694,13076;2,2373
3692,07961;2,24343
3690,02845;2,22707
3687,9773;2,20025
3685,92614;2,18188
3683,87499;2,1721
3681,82383;2,16493
3679,77268;2,1591
3677,72152;2,15422
3675,67037;2,1562
3673,61921;2,17553
3671,56806;2,1981
3669,5169;2,21574
3667,46574;2,22897
3665,41459;2,23287
3663,36343;2,23417
3661,31228;2,24315
3659,26112;2,2623
3657,20997;2,28832
3655,15881;2,31627
3653,10766;2,33669
3651,0565;2,34743
3649,00535;2,35714
3646,95419;2,36931
3644,90304;2,3805
3642,85188;2,38461
3640,80073;2,38424
3638,74957;2,38581
3636,69841;2,39041
3634,64726;2,39516
3632,5961;2,40081
3630,54495;2,41074
3628,49379;2,43282
3626,44264;2,46283
3624,39148;2,48314
3622,34033;2,49392
3620,28917;2,50001
3618,23802;2,5009
3616,18686;2,49724
3614,13571;2,49141
3612,08455;2,48881
3610,0334;2,49111
3607,98224;2,49612
3605,93108;2,5032
3603,87993;2,51039
3601,82877;2,51903
3599,77762;2,52984
3597,72646;2,53607
3595,67531;2,53535
3593,62415;2,5392
3591,573;2,55125
3589,52184;2,55716
3587,47069;2,55628
3585,41953;2,56162
3583,36838;2,5689
3581,31722;2,57013
3579,26607;2,56531
3577,21491;2,56101
3575,16375;2,56586
3573,1126;2,57706
3571,06144;2,58637
3569,01029;2,59511
3566,95913;2,60984
3564,90798;2,62596
3562,85682;2,63211
3560,80567;2,62834
3558,75451;2,62162
3556,70336;2,6194
3554,6522;2,62336
3552,60105;2,62835
3550,54989;2,63489
3548,49874;2,64269
3546,44758;2,64412
3544,39642;2,63878
3542,34527;2,63739
3540,29411;2,64449
3538,24296;2,65445
3536,1918;2,66482
3534,14065;2,67366
3532,08949;2,67527
3530,03834;2,66867
3527,98718;2,65717
3525,93603;2,64806
3523,88487;2,64692
3521,83372;2,65223
3519,78256;2,65923
3517,73141;2,66668
3515,68025;2,6749
3513,62909;2,68015
3511,57794;2,68147
3509,52678;2,68259
3507,47563;2,68449
3505,42447;2,6844
3503,37332;2,68202
3501,32216;2,68152
3499,27101;2,68536
3497,21985;2,6893
3495,1687;2,68773
3493,11754;2,68639
3491,06639;2,69031
3489,01523;2,69259
3486,96407;2,69292
3484,91292;2,69659
3482,86176;2,69947
3480,81061;2,69961
3478,75945;2,70144
3476,7083;2,704
3474,65714;2,70558
3472,60599;2,70775
3470,55483;2,71009
3468,50368;2,71101
3466,45252;2,70865
3464,40137;2,70223
3462,35021;2,69478
3460,29906;2,69209
3458,2479;2,69569
3456,19674;2,70573
3454,14559;2,71866
3452,09443;2,72456
3450,04328;2,72235
3447,99212;2,71878
3445,94097;2,71944
3443,88981;2,72084
3441,83866;2,71726
3439,7875;2,71335
3437,73635;2,71235
3435,68519;2,71095
3433,63404;2,70926
3431,58288;2,70695
3429,53173;2,70462
3427,48057;2,70732
3425,42941;2,70995
3423,37826;2,70998
3421,3271;2,71314
3419,27595;2,71676
3417,22479;2,71838
3415,17364;2,71748
3413,12248;2,71192
3411,07133;2,706
3409,02017;2,70572
3406,96902;2,70923
3404,91786;2,71304
3402,86671;2,71417
3400,81555;2,71373
3398,7644;2,71476
3396,71324;2,71655
3394,66208;2,71919
3392,61093;2,72087
3390,55977;2,72089
3388,50862;2,72236
3386,45746;2,72262
3384,40631;2,71656
3382,35515;2,71181
3380,304;2,71257
3378,25284;2,71182
3376,20169;2,70875
3374,15053;2,70923
3372,09938;2,71532
3370,04822;2,72107
3367,99707;2,723
3365,94591;2,72439
3363,89475;2,72316
3361,8436;2,71831
3359,79244;2,71465
3357,74129;2,71438
3355,69013;2,71974
3353,63898;2,72288
3351,58782;2,71856
3349,53667;2,71973
3347,48551;2,72536
3345,43436;2,71953
3343,3832;2,70844
3341,33205;2,70925
3339,28089;2,71885
3337,22974;2,72183
3335,17858;2,71558
3333,12742;2,7134
3331,07627;2,72014
3329,02511;2,72743
3326,97396;2,73125
3324,9228;2,72702
3322,87165;2,71791
3320,82049;2,71363
3318,76934;2,71261
3316,71818;2,71529
3314,66703;2,72036
3312,61587;2,71805
3310,56472;2,70869
3308,51356;2,7024
3306,46241;2,70273
3304,41125;2,70422
3302,36009;2,70396
3300,30894;2,70555
3298,25778;2,70589
3296,20663;2,69948
3294,15547;2,69658
3292,10432;2,70109
3290,05316;2,70015
3288,00201;2,69684
3285,95085;2,70185
3283,8997;2,70793
3281,84854;2,70902
3279,79739;2,70586
3277,74623;2,69945
3275,69508;2,69922
3273,64392;2,70794
3271,59276;2,71531
3269,54161;2,71355
3267,49045;2,70288
3265,4393;2,68816
3263,38814;2,67837
3261,33699;2,6791
3259,28583;2,68024
3257,23468;2,67431
3255,18352;2,67147
3253,13237;2,6798
3251,08121;2,68885
3249,03006;2,68554
3246,9789;2,67803
3244,92775;2,67846
3242,87659;2,67739
3240,82543;2,66623
3238,77428;2,66032
3236,72312;2,66945
3234,67197;2,68359
3232,62081;2,69077
3230,56966;2,68804
3228,5185;2,6817
3226,46735;2,67358
3224,41619;2,66424
3222,36504;2,66221
3220,31388;2,66453
3218,26273;2,66004
3216,21157;2,6529
3214,16041;2,65278
3212,10926;2,65678
3210,0581;2,65528
3208,00695;2,64944
3205,95579;2,64787
3203,90464;2,65046
3201,85348;2,65211
3199,80233;2,64816
3197,75117;2,63984
3195,70002;2,63517
3193,64886;2,63975
3191,59771;2,65126
3189,54655;2,65892
3187,4954;2,65752
3185,44424;2,65508
3183,39308;2,65464
3181,34193;2,65041
3179,29077;2,6451
3177,23962;2,64204
3175,18846;2,6377
3173,13731;2,63545
3171,08615;2,63905
3169,035;2,6426
3166,98384;2,64484
3164,93269;2,6485
3162,88153;2,64667
3160,83038;2,63894
3158,77922;2,6349
3156,72807;2,63407
3154,67691;2,62913
3152,62575;2,62102
3150,5746;2,61944
3148,52344;2,62289
3146,47229;2,62291
3144,42113;2,62208
3142,36998;2,62476
3140,31882;2,6276
3138,26767;2,62469
3136,21651;2,61767
3134,16536;2,61397
3132,1142;2,61483
3130,06305;2,61581
3128,01189;2,61689
3125,96074;2,61977
3123,90958;2,62091
3121,85842;2,61773
3119,80727;2,61153
3117,75611;2,606
3115,70496;2,60679
3113,6538;2,61147
3111,60265;2,60942
3109,55149;2,60326
3107,50034;2,60199
3105,44918;2,6017
3103,39803;2,59921
3101,34687;2,6004
3099,29572;2,60399
3097,24456;2,60433
3095,19341;2,60327
3093,14225;2,6011
3091,09109;2,59839
3089,03994;2,60052
3086,98878;2,6036
3084,93763;2,60267
3082,88647;2,60233
3080,83532;2,60337
3078,78416;2,60154
3076,73301;2,59939
3074,68185;2,60115
3072,6307;2,60155
3070,57954;2,59594
3068,52839;2,58967
3066,47723;2,58699
3064,42608;2,58895
3062,37492;2,59502
3060,32376;2,59955
3058,27261;2,60072
3056,22145;2,5996
3054,1703;2,59489
3052,11914;2,59077
3050,06799;2,59028
3048,01683;2,58854
3045,96568;2,5844
3043,91452;2,58215
3041,86337;2,58271
3039,81221;2,58518
3037,76106;2,58826
3035,7099;2,58657
3033,65875;2,58257
3031,60759;2,58436
3029,55643;2,58739
3027,50528;2,58609
3025,45412;2,58587
3023,40297;2,58907
3021,35181;2,59211
3019,30066;2,59424
3017,2495;2,59857
3015,19835;2,60634
3013,14719;2,61446
3011,09604;2,62169
3009,04488;2,62791
3006,99373;2,63102
3004,94257;2,62992
3002,89142;2,6246
3000,84026;2,6188
2998,7891;2,61611
2996,73795;2,61541
2994,68679;2,61764
2992,63564;2,62478
2990,58448;2,63356
2988,53333;2,63586
2986,48217;2,63335
2984,43102;2,63795
2982,37986;2,65124
2980,32871;2,66694
2978,27755;2,68029
2976,2264;2,68925
2974,17524;2,6958
2972,12409;2,70083
2970,07293;2,70376
2968,02177;2,7089
2965,97062;2,71723
2963,91946;2,72322
2961,86831;2,72488
2959,81715;2,72323
2957,766;2,72063
2955,71484;2,71877
2953,66369;2,71952
2951,61253;2,72122
2949,56138;2,72064
2947,51022;2,72188
2945,45907;2,72607
2943,40791;2,72911
2941,35675;2,72961
2939,3056;2,73015
2937,25444;2,73485
2935,20329;2,73703
2933,15213;2,72646
2931,10098;2,71022
2929,04982;2,69992
2926,99867;2,69179
2924,94751;2,68001
2922,89636;2,6679
2920,8452;2,65747
2918,79405;2,6476
2916,74289;2,64192
2914,69174;2,64223
2912,64058;2,64581
2910,58942;2,65268
2908,53827;2,65887
2906,48711;2,65515
2904,43596;2,64614
2902,3848;2,64205
2900,33365;2,64452
2898,28249;2,64828
2896,23134;2,64542
2894,18018;2,64003
2892,12903;2,6395
2890,07787;2,63889
2888,02672;2,63532
2885,97556;2,63468
2883,92441;2,63975
2881,87325;2,64699
2879,82209;2,65198
2877,77094;2,65433
2875,71978;2,6546
2873,66863;2,6502
2871,61747;2,64755
2869,56632;2,65321
2867,51516;2,66126
2865,46401;2,66813
2863,41285;2,67385
2861,3617;2,67385
2859,31054;2,66487
2857,25939;2,65777
2855,20823;2,65902
2853,15708;2,65842
2851,10592;2,64848
2849,05476;2,63201
2847,00361;2,61829
2844,95245;2,61012
2842,9013;2,60037
2840,85014;2,58924
2838,79899;2,57857
2836,74783;2,5654
2834,69668;2,55255
2832,64552;2,54239
2830,59437;2,53125
2828,54321;2,51905
2826,49206;2,51044
2824,4409;2,50264
2822,38975;2,49112
2820,33859;2,48264
2818,28743;2,47901
2816,23628;2,47444
2814,18512;2,46718
2812,13397;2,45636
2810,08281;2,44525
2808,03166;2,43825
2805,9805;2,43286
2803,92935;2,42674
2801,87819;2,42311
2799,82704;2,42406
2797,77588;2,42504
2795,72473;2,42134
2793,67357;2,41406
2791,62242;2,40608
2789,57126;2,3994
2787,5201;2,3946
2785,46895;2,39073
2783,41779;2,3873
2781,36664;2,38415
2779,31548;2,38062
2777,26433;2,37636
2775,21317;2,37221
2773,16202;2,36967
2771,11086;2,36782
2769,05971;2,36292
2767,00855;2,35511
2764,9574;2,34953
2762,90624;2,34991
2760,85509;2,35263
2758,80393;2,35106
2756,75277;2,34631
2754,70162;2,34306
2752,65046;2,3428
2750,59931;2,34397
2748,54815;2,34273
2746,497;2,33963
2744,44584;2,33751
2742,39469;2,3365
2740,34353;2,33595
2738,29238;2,3332
2736,24122;2,32895
2734,19007;2,32787
2732,13891;2,32895
2730,08776;2,32843
2728,0366;2,3271
2725,98544;2,32657
2723,93429;2,3247
2721,88313;2,32031
2719,83198;2,31576
2717,78082;2,31206
2715,72967;2,30962
2713,67851;2,30951
2711,62736;2,30967
2709,5762;2,30683
2707,52505;2,30246
2705,47389;2,30176
2703,42274;2,30399
2701,37158;2,30394
2699,32043;2,30249
2697,26927;2,30294
2695,21811;2,30346
2693,16696;2,30083
2691,1158;2,29814
2689,06465;2,2982
2687,01349;2,29911
2684,96234;2,30138
2682,91118;2,30366
2680,86003;2,30289
2678,80887;2,29985
2676,75772;2,29714
2674,70656;2,29685
2672,65541;2,2974
2670,60425;2,29622
2668,55309;2,29538
2666,50194;2,29596
2664,45078;2,2951
2662,39963;2,29432
2660,34847;2,29659
2658,29732;2,29887
2656,24616;2,29769
2654,19501;2,29507
2652,14385;2,29357
2650,0927;2,29411
2648,04154;2,29702
2645,99039;2,29948
2643,93923;2,30023
2641,88808;2,30143
2639,83692;2,30449
2637,78576;2,3101
2635,73461;2,3174
2633,68345;2,32424
2631,6323;2,32982
2629,58114;2,33609
2627,52999;2,34334
2625,47883;2,35005
2623,42768;2,3563
2621,37652;2,36211
2619,32537;2,36832
2617,27421;2,37402
2615,22306;2,37753
2613,1719;2,38217
2611,12075;2,38855
2609,06959;2,39367
2607,01843;2,39757
2604,96728;2,40097
2602,91612;2,40429
2600,86497;2,40625
2598,81381;2,40539
2596,76266;2,40486
2594,7115;2,40712
2592,66035;2,40928
2590,60919;2,40973
2588,55804;2,40926
2586,50688;2,40856
2584,45573;2,40817
2582,40457;2,40845
2580,35342;2,4111
2578,30226;2,41465
2576,2511;2,41605
2574,19995;2,41637
2572,14879;2,41698
2570,09764;2,41633
2568,04648;2,41397
2565,99533;2,4134
2563,94417;2,41535
2561,89302;2,41788
2559,84186;2,42038
2557,79071;2,42241
2555,73955;2,42459
2553,6884;2,42712
2551,63724;2,42741
2549,58609;2,42455
2547,53493;2,42373
2545,48377;2,42752
2543,43262;2,4313
2541,38146;2,43566
2539,33031;2,44259
2537,27915;2,44908
2535,228;2,45729
2533,17684;2,47001
2531,12569;2,48541
2529,07453;2,49837
2527,02338;2,50305
2524,97222;2,50439
2522,92107;2,51111
2520,86991;2,51963
2518,81876;2,52431
2516,7676;2,52886
2514,71644;2,53197
2512,66529;2,52848
2510,61413;2,52331
2508,56298;2,52067
2506,51182;2,51879
2504,46067;2,51436
2502,40951;2,50347
2500,35836;2,48854
2498,3072;2,47391
2496,25605;2,45908
2494,20489;2,44495
2492,15374;2,43268
2490,10258;2,42077
2488,05143;2,40855
2486,00027;2,39732
2483,94911;2,38698
2481,89796;2,37687
2479,8468;2,36696
2477,79565;2,35472
2475,74449;2,33924
2473,69334;2,32457
2471,64218;2,31305
2469,59103;2,30245
2467,53987;2,29294
2465,48872;2,28623
2463,43756;2,27997
2461,38641;2,27274
2459,33525;2,26541
2457,2841;2,25838
2455,23294;2,25264
2453,18178;2,24677
2451,13063;2,23825
2449,07947;2,23062
2447,02832;2,22838
2444,97716;2,22767
2442,92601;2,22351
2440,87485;2,2184
2438,8237;2,2153
2436,77254;2,21287
2434,72139;2,20982
2432,67023;2,2065
2430,61908;2,20355
2428,56792;2,20086
2426,51677;2,19722
2424,46561;2,19359
2422,41445;2,19176
2420,3633;2,19017
2418,31214;2,188
2416,26099;2,18562
2414,20983;2,18307
2412,15868;2,18082
2410,10752;2,17833
2408,05637;2,17557
2406,00521;2,17271
2403,95406;2,1701
2401,9029;2,16904
2399,85175;2,16861
2397,80059;2,16797
2395,74944;2,16782
2393,69828;2,16807
2391,64712;2,16763
2389,59597;2,16686
2387,54481;2,16639
2385,49366;2,16486
2383,4425;2,16153
2381,39135;2,15897
2379,34019;2,15871
2377,28904;2,15859
2375,23788;2,15761
2373,18673;2,15651
2371,13557;2,15393
2369,08442;2,14954
2367,03326;2,14596
2364,9821;2,1434
2362,93095;2,14062
2360,87979;2,14096
2358,82864;2,14721
2356,77748;2,15513
2354,72633;2,161
2352,67517;2,16661
2350,62402;2,17378
2348,57286;2,18269
2346,52171;2,19386
2344,47055;2,20564
2342,4194;2,21324
2340,36824;2,21353
2338,31709;2,20645
2336,26593;2,19534
2334,21477;2,18474
2332,16362;2,17704
2330,11246;2,17167
2328,06131;2,16663
2326,01015;2,1628
2323,959;2,1628
2321,90784;2,16507
2319,85669;2,16566
2317,80553;2,16438
2315,75438;2,16403
2313,70322;2,16449
2311,65207;2,16367
2309,60091;2,16311
2307,54976;2,16482
2305,4986;2,16692
2303,44744;2,16744
2301,39629;2,16649
2299,34513;2,16417
2297,29398;2,16153
2295,24282;2,16047
2293,19167;2,16076
2291,14051;2,16114
2289,08936;2,16154
2287,0382;2,16171
2284,98705;2,16137
2282,93589;2,16143
2280,88474;2,16219
2278,83358;2,16302
2276,78243;2,16336
2274,73127;2,16253
2272,68011;2,16053
2270,62896;2,15876
2268,5778;2,15871
2266,52665;2,16004
2264,47549;2,16109
2262,42434;2,16127
2260,37318;2,1617
2258,32203;2,16289
2256,27087;2,16425
2254,21972;2,16572
2252,16856;2,16789
2250,11741;2,17136
2248,06625;2,17464
2246,0151;2,17491
2243,96394;2,17457
2241,91278;2,17582
2239,86163;2,17779
2237,81047;2,17879
2235,75932;2,1807
2233,70816;2,18519
2231,65701;2,18891
2229,60585;2,1899
2227,5547;2,18999
2225,50354;2,19113
2223,45239;2,1939
2221,40123;2,19626
2219,35008;2,19711
2217,29892;2,19844
2215,24777;2,19983
2213,19661;2,19996
2211,14545;2,20031
2209,0943;2,20115
2207,04314;2,20163
2204,99199;2,20201
2202,94083;2,20295
2200,88968;2,20425
2198,83852;2,20562
2196,78737;2,20692
2194,73621;2,20784
2192,68506;2,20869
2190,6339;2,20903
2188,58275;2,21024
2186,53159;2,21349
2184,48044;2,21542
2182,42928;2,21532
2180,37812;2,2162
2178,32697;2,21881
2176,27581;2,22288
2174,22466;2,22653
2172,1735;2,2283
2170,12235;2,23079
2168,07119;2,23508
2166,02004;2,24014
2163,96888;2,24565
2161,91773;2,25065
2159,86657;2,25536
2157,81542;2,2606
2155,76426;2,26595
2153,71311;2,27186
2151,66195;2,27796
2149,61079;2,28286
2147,55964;2,2874
2145,50848;2,29307
2143,45733;2,2983
2141,40617;2,29998
2139,35502;2,29822
2137,30386;2,29538
2135,25271;2,29305
2133,20155;2,29076
2131,1504;2,28678
2129,09924;2,28093
2127,04809;2,27397
2124,99693;2,26797
2122,94578;2,26348
2120,89462;2,25806
2118,84346;2,25164
2116,79231;2,24528
2114,74115;2,24006
2112,69;2,2381
2110,63884;2,2385
2108,58769;2,23791
2106,53653;2,23546
2104,48538;2,23417
2102,43422;2,23521
2100,38307;2,23509
2098,33191;2,23327
2096,28076;2,23252
2094,2296;2,2332
2092,17844;2,23469
2090,12729;2,23609
2088,07613;2,23618
2086,02498;2,23559
2083,97382;2,23551
2081,92267;2,2352
2079,87151;2,2347
2077,82036;2,23553
2075,7692;2,2371
2073,71805;2,2378
2071,66689;2,23752
2069,61574;2,23755
2067,56458;2,23901
2065,51343;2,24165
2063,46227;2,24472
2061,41111;2,24697
2059,35996;2,24763
2057,3088;2,24687
2055,25765;2,24548
2053,20649;2,24528
2051,15534;2,24811
2049,10418;2,25248
2047,05303;2,25584
2045,00187;2,25871
2042,95072;2,26114
2040,89956;2,26148
2038,84841;2,25976
2036,79725;2,25774
2034,7461;2,25762
2032,69494;2,25956
2030,64378;2,26103
2028,59263;2,26125
2026,54147;2,26202
2024,49032;2,26408
2022,43916;2,26624
2020,38801;2,26758
2018,33685;2,26711
2016,2857;2,26422
2014,23454;2,26199
2012,18339;2,26276
2010,13223;2,26464
2008,08108;2,26627
2006,02992;2,26738
2003,97877;2,267
2001,92761;2,26682
1999,87645;2,26888
1997,8253;2,27219
1995,77414;2,27468
1993,72299;2,2743
1991,67183;2,27234
1989,62068;2,27159
1987,56952;2,27209
1985,51837;2,274
1983,46721;2,27724
1981,41606;2,28144
1979,3649;2,28423
1977,31375;2,28362
1975,26259;2,28155
1973,21144;2,28094
1971,16028;2,28301
1969,10912;2,28684
1967,05797;2,29209
1965,00681;2,30076
1962,95566;2,3099
1960,9045;2,3133
1958,85335;2,30981
1956,80219;2,30331
1954,75104;2,29788
1952,69988;2,2954
1950,64873;2,29581
1948,59757;2,29838
1946,54642;2,30056
1944,49526;2,29952
1942,44411;2,29806
1940,39295;2,3007
1938,34179;2,3042
1936,29064;2,30558
1934,23948;2,30536
1932,18833;2,30532
1930,13717;2,30645
1928,08602;2,30842
1926,03486;2,31158
1923,98371;2,31428
1921,93255;2,31546
1919,8814;2,3146
1917,83024;2,31371
1915,77909;2,31711
1913,72793;2,32067
1911,67678;2,32041
1909,62562;2,31943
1907,57446;2,32167
1905,52331;2,32443
1903,47215;2,32564
1901,421;2,32744
1899,36984;2,3307
1897,31869;2,33451
1895,26753;2,33841
1893,21638;2,34158
1891,16522;2,3426
1889,11407;2,34381
1887,06291;2,34659
1885,01176;2,34917
1882,9606;2,35281
1880,90945;2,35674
1878,85829;2,3594
1876,80713;2,36268
1874,75598;2,36745
1872,70482;2,37171
1870,65367;2,37317
1868,60251;2,37426
1866,55136;2,37927
1864,5002;2,38556
1862,44905;2,39083
1860,39789;2,3963
1858,34674;2,40113
1856,29558;2,40382
1854,24443;2,4062
1852,19327;2,41031
1850,14212;2,41524
1848,09096;2,42
1846,0398;2,42285
1843,98865;2,42512
1841,93749;2,43265
1839,88634;2,4426
1837,83518;2,44999
1835,78403;2,45457
1833,73287;2,45928
1831,68172;2,46604
1829,63056;2,47518
1827,57941;2,48495
1825,52825;2,49295
1823,4771;2,50184
1821,42594;2,51046
1819,37478;2,51749
1817,32363;2,52647
1815,27247;2,53892
1813,22132;2,55192
1811,17016;2,56557
1809,11901;2,58302
1807,06785;2,60266
1805,0167;2,61996
1802,96554;2,63224
1800,91439;2,64241
1798,86323;2,65613
1796,81208;2,67154
1794,76092;2,67938
1792,70977;2,67299
1790,65861;2,66091
1788,60745;2,65405
1786,5563;2,6506
1784,50514;2,64908
1782,45399;2,64812
1780,40283;2,64421
1778,35168;2,63914
1776,30052;2,63607
1774,24937;2,63486
1772,19821;2,63802
1770,14706;2,65026
1768,0959;2,6663
1766,04475;2,68236
1763,99359;2,69747
1761,94244;2,7167
1759,89128;2,74516
1757,84012;2,77298
1755,78897;2,79237
1753,73781;2,80006
1751,68666;2,79658
1749,6355;2,79401
1747,58435;2,79467
1745,53319;2,78476
1743,48204;2,76279
1741,43088;2,74352
1739,37973;2,73863
1737,32857;2,74306
1735,27742;2,73854
1733,22626;2,7262
1731,17511;2,71794
1729,12395;2,71187
1727,07279;2,70672
1725,02164;2,70275
1722,97048;2,70436
1720,91933;2,70899
1718,86817;2,7062
1716,81702;2,70184
1714,76586;2,70609
1712,71471;2,71418
1710,66355;2,72156
1708,6124;2,7278
1706,56124;2,73414
1704,51009;2,7458
1702,45893;2,75652
1700,40778;2,76093
1698,35662;2,76979
1696,30546;2,77787
1694,25431;2,78515
1692,20315;2,79017
1690,152;2,79043
1688,10084;2,78961
1686,04969;2,78264
1683,99853;2,77459
1681,94738;2,77981
1679,89622;2,7846
1677,84507;2,77559
1675,79391;2,76267
1673,74276;2,76844
1671,6916;2,78259
1669,64045;2,7831
1667,58929;2,77401
1665,53813;2,75964
1663,48698;2,73974
1661,43582;2,7245
1659,38467;2,71837
1657,33351;2,71457
1655,28236;2,70456
1653,2312;2,69212
1651,18005;2,6937
1649,12889;2,69259
1647,07774;2,67774
1645,02658;2,66767
1642,97543;2,66947
1640,92427;2,67238
1638,87312;2,66495
1636,82196;2,64521
1634,7708;2,63401
1632,71965;2,63792
1630,66849;2,63622
1628,61734;2,62741
1626,56618;2,62104
1624,51503;2,6148
1622,46387;2,61122
1620,41272;2,61407
1618,36156;2,61314
1616,31041;2,60993
1614,25925;2,61289
1612,2081;2,61546
1610,15694;2,61417
1608,10579;2,61227
1606,05463;2,61192
1604,00347;2,61387
1601,95232;2,61728
1599,90116;2,61973
1597,85001;2,62174
1595,79885;2,62486
1593,7477;2,62693
1591,69654;2,62644
1589,64539;2,62561
1587,59423;2,62728
1585,54308;2,63059
1583,49192;2,63207
1581,44077;2,63223
1579,38961;2,63298
1577,33846;2,63186
1575,2873;2,63295
1573,23614;2,63788
1571,18499;2,63887
1569,13383;2,64098
1567,08268;2,6455
1565,03152;2,64372
1562,98037;2,63726
1560,92921;2,62329
1558,87806;2,60876
1556,8269;2,61219
1554,77575;2,6159
1552,72459;2,61124
1550,67344;2,60308
1548,62228;2,59596
1546,57113;2,58875
1544,51997;2,57725
1542,46881;2,56264
1540,41766;2,55181
1538,3665;2,55649
1536,31535;2,56274
1534,26419;2,55719
1532,21304;2,55232
1530,16188;2,54962
1528,11073;2,54192
1526,05957;2,53532
1524,00842;2,52968
1521,95726;2,5191
1519,90611;2,51171
1517,85495;2,50661
1515,80379;2,50065
1513,75264;2,49566
1511,70148;2,49134
1509,65033;2,48629
1507,59917;2,47386
1505,54802;2,46413
1503,49686;2,46682
1501,44571;2,46826
1499,39455;2,4628
1497,3434;2,45611
1495,29224;2,45825
1493,24109;2,46706
1491,18993;2,47136
1489,13878;2,47175
1487,08762;2,47241
1485,03646;2,47302
1482,98531;2,47323
1480,93415;2,47791
1478,883;2,48907
1476,83184;2,50279
1474,78069;2,51987
1472,72953;2,54284
1470,67838;2,56943
1468,62722;2,58624
1466,57607;2,5855
1464,52491;2,57623
1462,47376;2,57222
1460,4226;2,57135
1458,37145;2,56421
1456,32029;2,55392
1454,26913;2,55012
1452,21798;2,54892
1450,16682;2,54671
1448,11567;2,54449
1446,06451;2,54361
1444,01336;2,54225
1441,9622;2,54141
1439,91105;2,54049
1437,85989;2,53317
1435,80874;2,52447
1433,75758;2,52055
1431,70643;2,51542
1429,65527;2,50862
1427,60412;2,50333
1425,55296;2,50068
1423,5018;2,5013
1421,45065;2,49986
1419,39949;2,49473
1417,34834;2,49533
1415,29718;2,4962
1413,24603;2,49031
1411,19487;2,48341
1409,14372;2,4823
1407,09256;2,48784
1405,04141;2,49698
1402,99025;2,50712
1400,9391;2,51465
1398,88794;2,51944
1396,83679;2,52344
1394,78563;2,52608
1392,73447;2,53012
1390,68332;2,53524
1388,63216;2,54091
1386,58101;2,55087
1384,52985;2,56383
1382,4787;2,57429
1380,42754;2,58027
1378,37639;2,58245
1376,32523;2,58302
1374,27408;2,58342
1372,22292;2,58414
1370,17177;2,58443
1368,12061;2,58578
1366,06946;2,58805
1364,0183;2,58729
1361,96714;2,58571
1359,91599;2,58617
1357,86483;2,58514
1355,81368;2,58278
1353,76252;2,58357
1351,71137;2,58783
1349,66021;2,5931
1347,60906;2,59788
1345,5579;2,59929
1343,50675;2,5979
1341,45559;2,59907
1339,40444;2,60472
1337,35328;2,61009
1335,30213;2,60974
1333,25097;2,60632
1331,19981;2,60587
1329,14866;2,60806
1327,0975;2,60789
1325,04635;2,60394
1322,99519;2,60267
1320,94404;2,60899
1318,89288;2,61755
1316,84173;2,62273
1314,79057;2,62372
1312,73942;2,62315
1310,68826;2,62353
1308,63711;2,62306
1306,58595;2,62239
1304,5348;2,62264
1302,48364;2,62237
1300,43248;2,62326
1298,38133;2,62593
1296,33017;2,62518
1294,27902;2,62201
1292,22786;2,62416
1290,17671;2,62937
1288,12555;2,63217
1286,0744;2,63514
1284,02324;2,63731
1281,97209;2,63733
1279,92093;2,63969
1277,86978;2,6442
1275,81862;2,64677
1273,76747;2,64693
1271,71631;2,64662
1269,66515;2,64808
1267,614;2,65231
1265,56284;2,65787
1263,51169;2,66111
1261,46053;2,66085
1259,40938;2,66171
1257,35822;2,6664
1255,30707;2,67223
1253,25591;2,67583
1251,20476;2,67667
1249,1536;2,67404
1247,10245;2,66839
1245,05129;2,66452
1243,00013;2,6614
1240,94898;2,65831
1238,89782;2,66002
1236,84667;2,66078
1234,79551;2,65236
1232,74436;2,6395
1230,6932;2,63138
1228,64205;2,63346
1226,59089;2,64121
1224,53974;2,64356
1222,48858;2,63953
1220,43743;2,63432
1218,38627;2,63095
1216,33512;2,62938
1214,28396;2,62705
1212,2328;2,62713
1210,18165;2,63261
1208,13049;2,63752
1206,07934;2,63983
1204,02818;2,64123
1201,97703;2,64005
1199,92587;2,64133
1197,87472;2,64497
1195,82356;2,64257
1193,77241;2,63762
1191,72125;2,636
1189,6701;2,6389
1187,61894;2,64744
1185,56779;2,65578
1183,51663;2,65526
1181,46547;2,65331
1179,41432;2,65703
1177,36316;2,66171
1175,31201;2,66738
1173,26085;2,67114
1171,2097;2,66539
1169,15854;2,65579
1167,10739;2,65447
1165,05623;2,66176
1163,00508;2,66747
1160,95392;2,66281
1158,90277;2,65267
1156,85161;2,65037
1154,80046;2,65797
1152,7493;2,66452
1150,69814;2,66014
1148,64699;2,65028
1146,59583;2,64667
1144,54468;2,64772
1142,49352;2,64648
1140,44237;2,64462
1138,39121;2,64243
1136,34006;2,6379
1134,2889;2,63514
1132,23775;2,6367
1130,18659;2,63736
1128,13544;2,63573
1126,08428;2,63955
1124,03313;2,64711
1121,98197;2,64899
1119,93081;2,64944
1117,87966;2,65415
1115,8285;2,65703
1113,77735;2,65388
1111,72619;2,64833
1109,67504;2,64683
1107,62388;2,64959
1105,57273;2,64834
1103,52157;2,64321
1101,47042;2,64368
1099,41926;2,64938
1097,36811;2,64911
1095,31695;2,64013
1093,2658;2,63242
1091,21464;2,63084
1089,16348;2,6289
1087,11233;2,62363
1085,06117;2,61818
1083,01002;2,61463
1080,95886;2,6143
1078,90771;2,61548
1076,85655;2,61665
1074,8054;2,61415
1072,75424;2,60389
1070,70309;2,5918
1068,65193;2,58787
1066,60078;2,59387
1064,54962;2,5998
1062,49847;2,59537
1060,44731;2,58584
1058,39615;2,58041
1056,345;2,57671
1054,29384;2,57057
1052,24269;2,56571
1050,19153;2,56521
1048,14038;2,56421
1046,08922;2,55794
1044,03807;2,54812
1041,98691;2,53977
1039,93576;2,53117
1037,8846;2,51828
1035,83345;2,50629
1033,78229;2,49738
1031,73114;2,48646
1029,67998;2,47516
1027,62882;2,47118
1025,57767;2,47341
1023,52651;2,47466
1021,47536;2,47121
1019,4242;2,46443
1017,37305;2,456
1015,32189;2,4462
1013,27074;2,43734
1011,21958;2,42733
1009,16843;2,41557
1007,11727;2,40538
1005,06612;2,39815
1003,01496;2,39646
1000,96381;2,39839
998,91265;2,39653
996,86149;2,39231
994,81034;2,39219
992,75918;2,39431
990,70803;2,39373
988,65687;2,38823
986,60572;2,38166
984,55456;2,37914
982,50341;2,37972
980,45225;2,3795
978,4011;2,37728
976,34994;2,37593
974,29879;2,37523
972,24763;2,37285
970,19647;2,3708
968,14532;2,37137
966,09416;2,37251
964,04301;2,37079
961,99185;2,36564
959,9407;2,36408
957,88954;2,37043
955,83839;2,37863
953,78723;2,38516
951,73608;2,38922
949,68492;2,3908
947,63377;2,3933
945,58261;2,39643
943,53146;2,39692
941,4803;2,39521
939,42914;2,39566
937,37799;2,39906
935,32683;2,4029
933,27568;2,40618
931,22452;2,40893
929,17337;2,41223
927,12221;2,41593
925,07106;2,41936
923,0199;2,42394
920,96875;2,42595
918,91759;2,42129
916,86644;2,41434
914,81528;2,40984
912,76413;2,40866
910,71297;2,40959
908,66181;2,41036
906,61066;2,41019
904,5595;2,4105
902,50835;2,4132
900,45719;2,41679
898,40604;2,41823
896,35488;2,41911
894,30373;2,4144
892,25257;2,40074
890,20142;2,39168
888,15026;2,39206
886,09911;2,39371
884,04795;2,3975
881,9968;2,40643
879,94564;2,41455
877,89448;2,41877
875,84333;2,42086
873,79217;2,41802
871,74102;2,41522
869,68986;2,42246
867,63871;2,43221
865,58755;2,43315
863,5364;2,43228
861,48524;2,43781
859,43409;2,44268
857,38293;2,44536
855,33178;2,45259
853,28062;2,45903
851,22947;2,45945
849,17831;2,46036
847,12715;2,46731
845,076;2,47147
843,02484;2,46675
840,97369;2,46537
838,92253;2,47199
836,87138;2,47474
834,82022;2,47101
832,76907;2,46854
830,71791;2,4687
828,66676;2,47201
826,6156;2,4799
824,56445;2,48701
822,51329;2,48782
820,46214;2,48634
818,41098;2,48974
816,35982;2,49495
814,30867;2,49948
812,25751;2,50696
810,20636;2,50813
808,1552;2,49982
806,10405;2,49881
804,05289;2,5079
802,00174;2,51845
799,95058;2,52646
797,89943;2,53026
795,84827;2,53002
793,79712;2,53079
791,74596;2,53538
789,69481;2,5393
787,64365;2,54179
785,59249;2,54092
783,54134;2,5387
781,49018;2,54086
779,43903;2,54308
777,38787;2,55098
775,33672;2,5652
773,28556;2,56649
771,23441;2,55557
769,18325;2,54812
767,1321;2,54713
765,08094;2,55307
763,02979;2,56354
760,97863;2,56921
758,92748;2,56901
756,87632;2,5663
754,82516;2,56438
752,77401;2,56729
750,72285;2,57497
748,6717;2,57787
746,62054;2,57078
744,56939;2,56719
742,51823;2,57049
740,46708;2,56827
738,41592;2,56531
736,36477;2,56972
734,31361;2,57451
732,26246;2,57923
730,2113;2,58865
728,16015;2,59619
726,10899;2,59902
724,05783;2,59993
722,00668;2,59591
719,95552;2,58937
717,90437;2,58422
715,85321;2,58127
713,80206;2,58193
711,7509;2,58287
709,69975;2,58306
707,64859;2,58609
705,59744;2,58544
703,54628;2,57227
701,49513;2,55528
699,44397;2,55436
697,39281;2,56545
695,34166;2,56278
693,2905;2,5482
691,23935;2,54386
689,18819;2,54989
687,13704;2,55108
685,08588;2,54346
683,03473;2,53433
680,98357;2,53162
678,93242;2,53347
676,88126;2,53139
674,83011;2,52804
672,77895;2,5326
670,7278;2,54339
668,67664;2,54594
666,62548;2,53589
664,57433;2,53302
662,52317;2,54412
660,47202;2,55392
658,42086;2,55015
656,36971;2,54086
654,31855;2,53461
652,2674;2,53193
650,21624;2,53331
648,16509;2,53451
646,11393;2,52619
644,06278;2,51254
642,01162;2,50878
639,96047;2,51391
637,90931;2,51613
635,85815;2,51907
633,807;2,52733
631,75584;2,5315
629,70469;2,53107
627,65353;2,53122
625,60238;2,52842
623,55122;2,53165
621,50007;2,53862
619,44891;2,54014
617,39776;2,54301
615,3466;2,54346
613,29545;2,5375
611,24429;2,53919
609,19314;2,55278
607,14198;2,56417
605,09082;2,5656
603,03967;2,5633
600,98851;2,55782
598,93736;2,54955
596,8862;2,54575
594,83505;2,54973
592,78389;2,55514
590,73274;2,55542
588,68158;2,55501
586,63043;2,5631
584,57927;2,56683
582,52812;2,55336
580,47696;2,53307
578,42581;2,51672
576,37465;2,50738
574,32349;2,49303
572,27234;2,47517
570,22118;2,48092
568,17003;2,50994
566,11887;2,5321
564,06772;2,5349
562,01656;2,52209
559,96541;2,50976
557,91425;2,5123
555,8631;2,52579
553,81194;2,52512
551,76079;2,50455
549,70963;2,49085
547,65848;2,48669
545,60732;2,47303
543,55616;2,46103
541,50501;2,47578
539,45385;2,50074
537,4027;2,49375
535,35154;2,45951
533,30039;2,4446
531,24923;2,45588
529,19808;2,45848
527,14692;2,44877
525,09577;2,45586
523,04461;2,46545
520,99346;2,45721
518,9423;2,46262
516,89115;2,48528
514,83999;2,48089
512,78883;2,45713
510,73768;2,46118
508,68652;2,48911
506,63537;2,49492
504,58421;2,48073
502,53306;2,48246
500,4819;2,49767
498,43075;2,5174
496,37959;2,5422
494,32844;2,54107
492,27728;2,51556
490,22613;2,49979
488,17497;2,49526
486,12382;2,48901
484,07266;2,47651
482,0215;2,47033
479,97035;2,46587
477,91919;2,44134
475,86804;2,41386
473,81688;2,39792
471,76573;2,38242
469,71457;2,3672
467,66342;2,35473
465,61226;2,3427
463,56111;2,33103
461,50995;2,32504
459,4588;2,31471
457,40764;2,28376
455,35649;2,25458
453,30533;2,25326
451,25417;2,26675
449,20302;2,27324
447,15186;2,27654
445,10071;2,2766
443,04955;2,26049
440,9984;2,23462
438,94724;2,21933
436,89609;2,2164
434,84493;2,21797
432,79378;2,22688
430,74262;2,23786
428,69147;2,2376
426,64031;2,2379
424,58916;2,25081
422,538;2,25645
420,48684;2,24704
418,43569;2,25224
416,38453;2,26923
414,33338;2,2647
412,28222;2,24614
410,23107;2,23203
408,17991;2,22106
406,12876;2,21179
404,0776;2,20914
402,02645;2,21257
399,97529;2,21676
