3997,70175;1,80761
3995,6506;1,809
3993,59944;1,81066
3991,54829;1,81135
3989,49713;1,81158
3987,44598;1,81263
3985,39482;1,81386
3983,34367;1,81473
3981,29251;1,81609
3979,24136;1,81805
3977,1902;1,81989
3975,13905;1,8218
3973,08789;1,82337
3971,03673;1,82408
3968,98558;1,82525
3966,93442;1,82797
3964,88327;1,83091
3962,83211;1,83275
3960,78096;1,83449
3958,7298;1,83619
3956,67865;1,83739
3954,62749;1,83903
3952,57634;1,84201
3950,52518;1,84604
3948,47403;1,84974
3946,42287;1,85234
3944,37172;1,8528
3942,32056;1,8517
3940,2694;1,85114
3938,21825;1,85113
3936,16709;1,85132
3934,11594;1,84981
3932,06478;1,84567
3930,01363;1,84113
3927,96247;1,83747
3925,91132;1,83284
3923,86016;1,82791
3921,80901;1,82416
3919,75785;1,82033
3917,7067;1,81542
3915,65554;1,81047
3913,60439;1,80613
3911,55323;1,80209
3909,50207;1,79996
3907,45092;1,79924
3905,39976;1,79821
3903,34861;1,79822
3901,29745;1,79742
3899,2463;1,79389
3897,19514;1,79236
3895,14399;1,79279
3893,09283;1,79133
3891,04168;1,78954
3888,99052;1,79073
3886,93937;1,78971
3884,88821;1,78902
3882,83706;1,79113
3880,7859;1,79028
3878,73474;1,78952
3876,68359;1,7889
3874,63243;1,78686
3872,58128;1,78576
3870,53012;1,78329
3868,47897;1,78394
3866,42781;1,7849
3864,37666;1,78185
3862,3255;1,77941
3860,27435;1,77986
3858,22319;1,78252
3856,17204;1,7817
3854,12088;1,77522
3852,06973;1,7732
3850,01857;1,77577
3847,96741;1,77642
3845,91626;1,77523
3843,8651;1,77432
3841,81395;1,77486
3839,76279;1,77381
3837,71164;1,77207
3835,66048;1,77276
3833,60933;1,77233
3831,55817;1,77061
3829,50702;1,77122
3827,45586;1,77242
3825,40471;1,77471
3823,35355;1,77522
3821,3024;1,77254
3819,25124;1,77358
3817,20008;1,77229
3815,14893;1,77039
3813,09777;1,77319
3811,04662;1,77559
3808,99546;1,775
3806,94431;1,77445
3804,89315;1,77867
3802,842;1,77945
3800,79084;1,77895
3798,73969;1,78193
3796,68853;1,78112
3794,63738;1,77964
3792,58622;1,7798
3790,53506;1,78039
3788,48391;1,7818
3786,43275;1,78371
3784,3816;1,786
3782,33044;1,78814
3780,27929;1,78749
3778,22813;1,78618
3776,17698;1,78615
3774,12582;1,7872
3772,07467;1,78911
3770,02351;1,7913
3767,97236;1,79442
3765,9212;1,7957
3763,87005;1,79691
3761,81889;1,79843
3759,76773;1,79985
3757,71658;1,80336
3755,66542;1,80761
3753,61427;1,8093
3751,56311;1,80955
3749,51196;1,81406
3747,4608;1,82075
3745,40965;1,82012
3743,35849;1,82123
3741,30734;1,82923
3739,25618;1,83537
3737,20503;1,83816
3735,15387;1,83997
3733,10272;1,84257
3731,05156;1,84845
3729,0004;1,8574
3726,94925;1,86561
3724,89809;1,87382
3722,84694;1,88158
3720,79578;1,89054
3718,74463;1,90119
3716,69347;1,91171
3714,64232;1,9213
3712,59116;1,93158
3710,54001;1,94567
3708,48885;1,96156
3706,4377;1,97852
3704,38654;2,00185
3702,33539;2,03744
3700,28423;2,0836
3698,23307;2,12683
3696,18192;2,15861
3694,13076;2,17846
3692,07961;2,18275
3690,02845;2,16829
3687,9773;2,14422
3685,92614;2,12676
3683,87499;2,11595
3681,82383;2,10878
3679,77268;2,10695
3677,72152;2,111
3675,67037;2,12164
3673,61921;2,14072
3671,56806;2,15521
3669,5169;2,16554
3667,46574;2,17859
3665,41459;2,18782
3663,36343;2,19416
3661,31228;2,20364
3659,26112;2,21678
3657,20997;2,23185
3655,15881;2,25218
3653,10766;2,27317
3651,0565;2,29031
3649,00535;2,31227
3646,95419;2,33677
3644,90304;2,3541
3642,85188;2,36123
3640,80073;2,35923
3638,74957;2,35039
3636,69841;2,34164
3634,64726;2,3392
3632,5961;2,34372
3630,54495;2,3513
3628,49379;2,3672
3626,44264;2,39406
3624,39148;2,41896
3622,34033;2,43749
3620,28917;2,44716
3618,23802;2,44508
3616,18686;2,43393
3614,13571;2,42178
3612,08455;2,4181
3610,0334;2,42367
3607,98224;2,43118
3605,93108;2,43266
3603,87993;2,42953
3601,82877;2,43002
3599,77762;2,43507
3597,72646;2,4421
3595,67531;2,45137
3593,62415;2,46334
3591,573;2,47631
3589,52184;2,48708
3587,47069;2,49249
3585,41953;2,49074
3583,36838;2,48701
3581,31722;2,48822
3579,26607;2,49547
3577,21491;2,50624
3575,16375;2,51718
3573,1126;2,52456
3571,06144;2,52659
3569,01029;2,52523
3566,95913;2,5269
3564,90798;2,53497
3562,85682;2,54166
3560,80567;2,54296
3558,75451;2,54644
3556,70336;2,55486
3554,6522;2,55958
3552,60105;2,55822
3550,54989;2,55918
3548,49874;2,56219
3546,44758;2,56149
3544,39642;2,56213
3542,34527;2,57081
3540,29411;2,58395
3538,24296;2,59285
3536,1918;2,59592
3534,14065;2,5997
3532,08949;2,60432
3530,03834;2,60452
3527,98718;2,60194
3525,93603;2,60331
3523,88487;2,61041
3521,83372;2,61958
3519,78256;2,62575
3517,73141;2,6263
3515,68025;2,62373
3513,62909;2,62277
3511,57794;2,6242
3509,52678;2,62498
3507,47563;2,62716
3505,42447;2,63397
3503,37332;2,64191
3501,32216;2,64515
3499,27101;2,64539
3497,21985;2,64997
3495,1687;2,65906
3493,11754;2,66634
3491,06639;2,66781
3489,01523;2,66431
3486,96407;2,65859
3484,91292;2,65162
3482,86176;2,64759
3480,81061;2,64999
3478,75945;2,65546
3476,7083;2,66359
3474,65714;2,67427
3472,60599;2,68071
3470,55483;2,67915
3468,50368;2,67366
3466,45252;2,67327
3464,40137;2,68059
3462,35021;2,68608
3460,29906;2,68564
3458,2479;2,6818
3456,19674;2,67653
3454,14559;2,67388
3452,09443;2,67601
3450,04328;2,68105
3447,99212;2,68216
3445,94097;2,67557
3443,88981;2,67145
3441,83866;2,67844
3439,7875;2,68652
3437,73635;2,68548
3435,68519;2,68305
3433,63404;2,68854
3431,58288;2,69997
3429,53173;2,70464
3427,48057;2,69728
3425,42941;2,68954
3423,37826;2,68839
3421,3271;2,69154
3419,27595;2,69444
3417,22479;2,69316
3415,17364;2,69206
3413,12248;2,69008
3411,07133;2,68622
3409,02017;2,68921
3406,96902;2,69744
3404,91786;2,70501
3402,86671;2,70876
3400,81555;2,70372
3398,7644;2,70017
3396,71324;2,70602
3394,66208;2,70976
3392,61093;2,70533
3390,55977;2,70114
3388,50862;2,70324
3386,45746;2,70957
3384,40631;2,71529
3382,35515;2,716
3380,304;2,71235
3378,25284;2,70993
3376,20169;2,7082
3374,15053;2,70992
3372,09938;2,71828
3370,04822;2,72372
3367,99707;2,72256
3365,94591;2,71884
3363,89475;2,71106
3361,8436;2,70169
3359,79244;2,69553
3357,74129;2,69455
3355,69013;2,70406
3353,63898;2,71874
3351,58782;2,72195
3349,53667;2,70848
3347,48551;2,69553
3345,43436;2,704
3343,3832;2,7256
3341,33205;2,73562
3339,28089;2,73174
3337,22974;2,72352
3335,17858;2,71603
3333,12742;2,71199
3331,07627;2,70888
3329,02511;2,70416
3326,97396;2,70128
3324,9228;2,70395
3322,87165;2,71002
3320,82049;2,71791
3318,76934;2,7249
3316,71818;2,72618
3314,66703;2,72358
3312,61587;2,72373
3310,56472;2,72539
3308,51356;2,72088
3306,46241;2,7168
3304,41125;2,72064
3302,36009;2,72574
3300,30894;2,72589
3298,25778;2,72297
3296,20663;2,72151
3294,15547;2,71849
3292,10432;2,71195
3290,05316;2,71164
3288,00201;2,71957
3285,95085;2,72375
3283,8997;2,72127
3281,84854;2,72053
3279,79739;2,72265
3277,74623;2,72015
3275,69508;2,71451
3273,64392;2,71321
3271,59276;2,7138
3269,54161;2,71021
3267,49045;2,70329
3265,4393;2,69896
3263,38814;2,69505
3261,33699;2,68571
3259,28583;2,6769
3257,23468;2,67856
3255,18352;2,68606
3253,13237;2,68659
3251,08121;2,68198
3249,03006;2,68339
3246,9789;2,68601
3244,92775;2,68153
3242,87659;2,67394
3240,82543;2,66401
3238,77428;2,65635
3236,72312;2,65705
3234,67197;2,65717
3232,62081;2,64839
3230,56966;2,64016
3228,5185;2,64274
3226,46735;2,64975
3224,41619;2,65105
3222,36504;2,64854
3220,31388;2,64821
3218,26273;2,65101
3216,21157;2,65092
3214,16041;2,6411
3212,10926;2,63174
3210,0581;2,63228
3208,00695;2,63373
3205,95579;2,63135
3203,90464;2,62686
3201,85348;2,61877
3199,80233;2,60898
3197,75117;2,60476
3195,70002;2,60818
3193,64886;2,61016
3191,59771;2,60834
3189,54655;2,60949
3187,4954;2,61286
3185,44424;2,61131
3183,39308;2,60388
3181,34193;2,59894
3179,29077;2,59635
3177,23962;2,58883
3175,18846;2,58245
3173,13731;2,58306
3171,08615;2,58496
3169,035;2,58324
3166,98384;2,57953
3164,93269;2,57676
3162,88153;2,57482
3160,83038;2,57071
3158,77922;2,56606
3156,72807;2,56553
3154,67691;2,56437
3152,62575;2,55939
3150,5746;2,55725
3148,52344;2,55827
3146,47229;2,55561
3144,42113;2,55049
3142,36998;2,55028
3140,31882;2,55418
3138,26767;2,55322
3136,21651;2,54756
3134,16536;2,5466
3132,1142;2,54949
3130,06305;2,54798
3128,01189;2,54188
3125,96074;2,53591
3123,90958;2,53131
3121,85842;2,52977
3119,80727;2,53075
3117,75611;2,52954
3115,70496;2,52523
3113,6538;2,52062
3111,60265;2,51832
3109,55149;2,51906
3107,50034;2,51899
3105,44918;2,51472
3103,39803;2,51152
3101,34687;2,51283
3099,29572;2,51441
3097,24456;2,51448
3095,19341;2,51537
3093,14225;2,51702
3091,09109;2,51432
3089,03994;2,50521
3086,98878;2,49748
3084,93763;2,4998
3082,88647;2,50849
3080,83532;2,51302
3078,78416;2,51149
3076,73301;2,51006
3074,68185;2,50945
3072,6307;2,50725
3070,57954;2,50506
3068,52839;2,50489
3066,47723;2,50873
3064,42608;2,51173
3062,37492;2,50487
3060,32376;2,49145
3058,27261;2,48428
3056,22145;2,48662
3054,1703;2,48947
3052,11914;2,48971
3050,06799;2,49078
3048,01683;2,48925
3045,96568;2,48174
3043,91452;2,47575
3041,86337;2,47759
3039,81221;2,48223
3037,76106;2,48308
3035,7099;2,47987
3033,65875;2,47642
3031,60759;2,47371
3029,55643;2,47003
3027,50528;2,46747
3025,45412;2,46755
3023,40297;2,46798
3021,35181;2,46799
3019,30066;2,46608
3017,2495;2,46221
3015,19835;2,46113
3013,14719;2,46264
3011,09604;2,46293
3009,04488;2,46327
3006,99373;2,46495
3004,94257;2,465
3002,89142;2,46344
3000,84026;2,46483
2998,7891;2,47085
2996,73795;2,4807
2994,68679;2,49385
2992,63564;2,50607
2990,58448;2,51281
2988,53333;2,51581
2986,48217;2,52048
2984,43102;2,52745
2982,37986;2,53051
2980,32871;2,52821
2978,27755;2,52741
2976,2264;2,52903
2974,17524;2,52827
2972,12409;2,52791
2970,07293;2,53253
2968,02177;2,53932
2965,97062;2,54096
2963,91946;2,5369
2961,86831;2,53526
2959,81715;2,53651
2957,766;2,53398
2955,71484;2,5283
2953,66369;2,52451
2951,61253;2,52233
2949,56138;2,52086
2947,51022;2,52093
2945,45907;2,52292
2943,40791;2,52706
2941,35675;2,52899
2939,3056;2,52426
2937,25444;2,51629
2935,20329;2,51218
2933,15213;2,5125
2931,10098;2,51526
2929,04982;2,51899
2926,99867;2,51688
2924,94751;2,51155
2922,89636;2,50878
2920,8452;2,50293
2918,79405;2,49534
2916,74289;2,49511
2914,69174;2,49856
2912,64058;2,49635
2910,58942;2,4894
2908,53827;2,48334
2906,48711;2,47792
2904,43596;2,47316
2902,3848;2,47375
2900,33365;2,47717
2898,28249;2,47854
2896,23134;2,47755
2894,18018;2,47493
2892,12903;2,47441
2890,07787;2,47703
2888,02672;2,48057
2885,97556;2,486
2883,92441;2,49491
2881,87325;2,50014
2879,82209;2,49925
2877,77094;2,50293
2875,71978;2,50921
2873,66863;2,50862
2871,61747;2,5041
2869,56632;2,50051
2867,51516;2,49686
2865,46401;2,49095
2863,41285;2,48353
2861,3617;2,47895
2859,31054;2,47752
2857,25939;2,47368
2855,20823;2,46599
2853,15708;2,45972
2851,10592;2,45685
2849,05476;2,45038
2847,00361;2,43857
2844,95245;2,42894
2842,9013;2,42249
2840,85014;2,41637
2838,79899;2,40966
2836,74783;2,40042
2834,69668;2,39035
2832,64552;2,38279
2830,59437;2,37507
2828,54321;2,36596
2826,49206;2,35828
2824,4409;2,34964
2822,38975;2,33982
2820,33859;2,33474
2818,28743;2,33447
2816,23628;2,33386
2814,18512;2,33011
2812,13397;2,32553
2810,08281;2,32363
2808,03166;2,32175
2805,9805;2,31759
2803,92935;2,3153
2801,87819;2,31535
2799,82704;2,31432
2797,77588;2,312
2795,72473;2,30891
2793,67357;2,30511
2791,62242;2,30061
2789,57126;2,29615
2787,5201;2,29314
2785,46895;2,29087
2783,41779;2,28794
2781,36664;2,28492
2779,31548;2,28305
2777,26433;2,28083
2775,21317;2,27716
2773,16202;2,27356
2771,11086;2,26957
2769,05971;2,26707
2767,00855;2,26821
2764,9574;2,26805
2762,90624;2,26464
2760,85509;2,26069
2758,80393;2,25859
2756,75277;2,25822
2754,70162;2,25662
2752,65046;2,25464
2750,59931;2,25307
2748,54815;2,25166
2746,497;2,2512
2744,44584;2,25037
2742,39469;2,24918
2740,34353;2,24911
2738,29238;2,24802
2736,24122;2,24438
2734,19007;2,24117
2732,13891;2,24025
2730,08776;2,23996
2728,0366;2,23824
2725,98544;2,2378
2723,93429;2,24014
2721,88313;2,23979
2719,83198;2,23602
2717,78082;2,23422
2715,72967;2,23546
2713,67851;2,23593
2711,62736;2,234
2709,5762;2,23202
2707,52505;2,23179
2705,47389;2,23227
2703,42274;2,23093
2701,37158;2,22754
2699,32043;2,22495
2697,26927;2,22523
2695,21811;2,22628
2693,16696;2,22537
2691,1158;2,22387
2689,06465;2,22418
2687,01349;2,22575
2684,96234;2,22599
2682,91118;2,22525
2680,86003;2,22616
2678,80887;2,22726
2676,75772;2,22645
2674,70656;2,22568
2672,65541;2,22513
2670,60425;2,2242
2668,55309;2,22451
2666,50194;2,22554
2664,45078;2,22574
2662,39963;2,22495
2660,34847;2,22448
2658,29732;2,22503
2656,24616;2,22615
2654,19501;2,22828
2652,14385;2,23031
2650,0927;2,23072
2648,04154;2,23085
2645,99039;2,23273
2643,93923;2,23618
2641,88808;2,24115
2639,83692;2,24925
2637,78576;2,25885
2635,73461;2,26579
2633,68345;2,27154
2631,6323;2,27983
2629,58114;2,28846
2627,52999;2,29693
2625,47883;2,306
2623,42768;2,31192
2621,37652;2,31625
2619,32537;2,32259
2617,27421;2,3296
2615,22306;2,33658
2613,1719;2,34283
2611,12075;2,34825
2609,06959;2,35482
2607,01843;2,36147
2604,96728;2,36578
2602,91612;2,36798
2600,86497;2,3705
2598,81381;2,37518
2596,76266;2,37875
2594,7115;2,37867
2592,66035;2,3784
2590,60919;2,37942
2588,55804;2,38142
2586,50688;2,38479
2584,45573;2,38841
2582,40457;2,39171
2580,35342;2,3928
2578,30226;2,39081
2576,2511;2,38985
2574,19995;2,38943
2572,14879;2,38695
2570,09764;2,38628
2568,04648;2,38884
2565,99533;2,39169
2563,94417;2,39484
2561,89302;2,39831
2559,84186;2,40051
2557,79071;2,40306
2555,73955;2,40779
2553,6884;2,41091
2551,63724;2,41037
2549,58609;2,41117
2547,53493;2,41475
2545,48377;2,41846
2543,43262;2,42236
2541,38146;2,42606
2539,33031;2,42959
2537,27915;2,43764
2535,228;2,45182
2533,17684;2,46672
2531,12569;2,47975
2529,07453;2,49114
2527,02338;2,49865
2524,97222;2,50228
2522,92107;2,50646
2520,86991;2,51379
2518,81876;2,51956
2516,7676;2,51945
2514,71644;2,51794
2512,66529;2,52009
2510,61413;2,52234
2508,56298;2,51979
2506,51182;2,5147
2504,46067;2,50823
2502,40951;2,49566
2500,35836;2,47964
2498,3072;2,46737
2496,25605;2,45696
2494,20489;2,44394
2492,15374;2,42904
2490,10258;2,41512
2488,05143;2,40306
2486,00027;2,39101
2483,94911;2,37861
2481,89796;2,3675
2479,8468;2,35713
2477,79565;2,34568
2475,74449;2,33203
2473,69334;2,31872
2471,64218;2,30872
2469,59103;2,29911
2467,53987;2,28693
2465,48872;2,27454
2463,43756;2,26586
2461,38641;2,2601
2459,33525;2,25417
2457,2841;2,24878
2455,23294;2,24452
2453,18178;2,23997
2451,13063;2,2349
2449,07947;2,22928
2447,02832;2,22369
2444,97716;2,21984
2442,92601;2,21752
2440,87485;2,21507
2438,8237;2,21115
2436,77254;2,20528
2434,72139;2,19987
2432,67023;2,19731
2430,61908;2,19562
2428,56792;2,19123
2426,51677;2,18555
2424,46561;2,18299
2422,41445;2,18329
2420,3633;2,18346
2418,31214;2,18277
2416,26099;2,18064
2414,20983;2,17715
2412,15868;2,17462
2410,10752;2,17365
2408,05637;2,1724
2406,00521;2,17114
2403,95406;2,17071
2401,9029;2,16964
2399,85175;2,16752
2397,80059;2,16586
2395,74944;2,16544
2393,69828;2,16452
2391,64712;2,16183
2389,59597;2,15959
2387,54481;2,15987
2385,49366;2,16112
2383,4425;2,1605
2381,39135;2,15799
2379,34019;2,15578
2377,28904;2,15473
2375,23788;2,15416
2373,18673;2,15318
2371,13557;2,15092
2369,08442;2,14753
2367,03326;2,14445
2364,9821;2,14191
2362,93095;2,14012
2360,87979;2,14147
2358,82864;2,1464
2356,77748;2,1526
2354,72633;2,15927
2352,67517;2,16466
2350,62402;2,16857
2348,57286;2,17476
2346,52171;2,18507
2344,47055;2,19593
2342,4194;2,20081
2340,36824;2,19776
2338,31709;2,19111
2336,26593;2,18365
2334,21477;2,17505
2332,16362;2,16759
2330,11246;2,16417
2328,06131;2,1642
2326,01015;2,16712
2323,959;2,17185
2321,90784;2,17405
2319,85669;2,17157
2317,80553;2,1683
2315,75438;2,16781
2313,70322;2,16808
2311,65207;2,16691
2309,60091;2,16625
2307,54976;2,16719
2305,4986;2,16798
2303,44744;2,16799
2301,39629;2,16766
2299,34513;2,16693
2297,29398;2,16637
2295,24282;2,16686
2293,19167;2,16807
2291,14051;2,169
2289,08936;2,1691
2287,0382;2,1679
2284,98705;2,16566
2282,93589;2,1644
2280,88474;2,16523
2278,83358;2,16694
2276,78243;2,16855
2274,73127;2,16996
2272,68011;2,17081
2270,62896;2,17105
2268,5778;2,17177
2266,52665;2,17353
2264,47549;2,17485
2262,42434;2,1753
2260,37318;2,17636
2258,32203;2,17822
2256,27087;2,18022
2254,21972;2,18288
2252,16856;2,18621
2250,11741;2,18834
2248,06625;2,18932
2246,0151;2,19048
2243,96394;2,19217
2241,91278;2,19368
2239,86163;2,19578
2237,81047;2,1991
2235,75932;2,2022
2233,70816;2,20311
2231,65701;2,20245
2229,60585;2,20333
2227,5547;2,20698
2225,50354;2,21118
2223,45239;2,21421
2221,40123;2,21557
2219,35008;2,21549
2217,29892;2,21535
2215,24777;2,21634
2213,19661;2,21897
2211,14545;2,22246
2209,0943;2,22528
2207,04314;2,22753
2204,99199;2,22946
2202,94083;2,22996
2200,88968;2,22915
2198,83852;2,22852
2196,78737;2,2284
2194,73621;2,22895
2192,68506;2,23028
2190,6339;2,23201
2188,58275;2,23429
2186,53159;2,23648
2184,48044;2,23761
2182,42928;2,23919
2180,37812;2,24205
2178,32697;2,24414
2176,27581;2,24585
2174,22466;2,24759
2172,1735;2,24829
2170,12235;2,25031
2168,07119;2,25524
2166,02004;2,25971
2163,96888;2,2622
2161,91773;2,26684
2159,86657;2,27456
2157,81542;2,28289
2155,76426;2,29135
2153,71311;2,29891
2151,66195;2,30505
2149,61079;2,3096
2147,55964;2,31248
2145,50848;2,31637
2143,45733;2,3219
2141,40617;2,32496
2139,35502;2,32445
2137,30386;2,32307
2135,25271;2,32124
2133,20155;2,3191
2131,1504;2,31657
2129,09924;2,31214
2127,04809;2,30636
2124,99693;2,30039
2122,94578;2,29345
2120,89462;2,2864
2118,84346;2,28057
2116,79231;2,27556
2114,74115;2,27191
2112,69;2,26944
2110,63884;2,26664
2108,58769;2,2637
2106,53653;2,26161
2104,48538;2,25957
2102,43422;2,25838
2100,38307;2,25954
2098,33191;2,26126
2096,28076;2,26227
2094,2296;2,26204
2092,17844;2,26097
2090,12729;2,26133
2088,07613;2,2631
2086,02498;2,26438
2083,97382;2,26531
2081,92267;2,26672
2079,87151;2,26898
2077,82036;2,27174
2075,7692;2,27352
2073,71805;2,27326
2071,66689;2,27262
2069,61574;2,273
2067,56458;2,27291
2065,51343;2,27266
2063,46227;2,27388
2061,41111;2,2749
2059,35996;2,27574
2057,3088;2,27813
2055,25765;2,28086
2053,20649;2,28226
2051,15534;2,28221
2049,10418;2,2818
2047,05303;2,28226
2045,00187;2,2846
2042,95072;2,28784
2040,89956;2,28976
2038,84841;2,29166
2036,79725;2,29502
2034,7461;2,29799
2032,69494;2,29907
2030,64378;2,299
2028,59263;2,29889
2026,54147;2,29923
2024,49032;2,29985
2022,43916;2,30077
2020,38801;2,30227
2018,33685;2,30364
2016,2857;2,30498
2014,23454;2,30715
2012,18339;2,3097
2010,13223;2,31166
2008,08108;2,31171
2006,02992;2,31058
2003,97877;2,30982
2001,92761;2,31014
1999,87645;2,31193
1997,8253;2,31401
1995,77414;2,31529
1993,72299;2,31612
1991,67183;2,31842
1989,62068;2,32215
1987,56952;2,32457
1985,51837;2,32565
1983,46721;2,32556
1981,41606;2,3246
1979,3649;2,32414
1977,31375;2,32623
1975,26259;2,3297
1973,21144;2,33235
1971,16028;2,33577
1969,10912;2,34076
1967,05797;2,34685
1965,00681;2,3549
1962,95566;2,36298
1960,9045;2,36692
1958,85335;2,36536
1956,80219;2,36115
1954,75104;2,35681
1952,69988;2,35375
1950,64873;2,3528
1948,59757;2,35338
1946,54642;2,35555
1944,49526;2,35823
1942,44411;2,35847
1940,39295;2,35783
1938,34179;2,35845
1936,29064;2,36061
1934,23948;2,36233
1932,18833;2,36185
1930,13717;2,3614
1928,08602;2,36392
1926,03486;2,36723
1923,98371;2,36857
1921,93255;2,37148
1919,8814;2,37507
1917,83024;2,37698
1915,77909;2,37945
1913,72793;2,38151
1911,67678;2,38418
1909,62562;2,38596
1907,57446;2,38575
1905,52331;2,3863
1903,47215;2,38871
1901,421;2,39291
1899,36984;2,39853
1897,31869;2,40332
1895,26753;2,40646
1893,21638;2,40993
1891,16522;2,41226
1889,11407;2,41317
1887,06291;2,41593
1885,01176;2,41983
1882,9606;2,42265
1880,90945;2,42399
1878,85829;2,42679
1876,80713;2,43226
1874,75598;2,43944
1872,70482;2,44791
1870,65367;2,45346
1868,60251;2,45463
1866,55136;2,45585
1864,5002;2,45821
1862,44905;2,46213
1860,39789;2,46746
1858,34674;2,47245
1856,29558;2,47597
1854,24443;2,47815
1852,19327;2,48117
1850,14212;2,48769
1848,09096;2,49792
1846,0398;2,50691
1843,98865;2,51235
1841,93749;2,51979
1839,88634;2,52661
1837,83518;2,52916
1835,78403;2,53177
1833,73287;2,53958
1831,68172;2,55047
1829,63056;2,56109
1827,57941;2,57154
1825,52825;2,58083
1823,4771;2,58989
1821,42594;2,59668
1819,37478;2,60317
1817,32363;2,6146
1815,27247;2,62978
1813,22132;2,64536
1811,17016;2,66353
1809,11901;2,6876
1807,06785;2,71414
1805,0167;2,73826
1802,96554;2,76045
1800,91439;2,78389
1798,86323;2,80531
1796,81208;2,81572
1794,76092;2,81214
1792,70977;2,80013
1790,65861;2,78811
1788,60745;2,77307
1786,5563;2,75083
1784,50514;2,73226
1782,45399;2,72469
1780,40283;2,72104
1778,35168;2,71794
1776,30052;2,71613
1774,24937;2,71503
1772,19821;2,71557
1770,14706;2,71614
1768,0959;2,71138
1766,04475;2,70751
1763,99359;2,70885
1761,94244;2,71457
1759,89128;2,7225
1757,84012;2,72616
1755,78897;2,73064
1753,73781;2,73906
1751,68666;2,74567
1749,6355;2,75176
1747,58435;2,75794
1745,53319;2,76511
1743,48204;2,77232
1741,43088;2,77575
1739,37973;2,7795
1737,32857;2,78754
1735,27742;2,79192
1733,22626;2,79554
1731,17511;2,79783
1729,12395;2,79433
1727,07279;2,79536
1725,02164;2,80466
1722,97048;2,81795
1720,91933;2,82867
1718,86817;2,83151
1716,81702;2,83466
1714,76586;2,84504
1712,71471;2,85833
1710,66355;2,87309
1708,6124;2,88808
1706,56124;2,89829
1704,51009;2,90478
1702,45893;2,91294
1700,40778;2,93202
1698,35662;2,96457
1696,30546;2,98428
1694,25431;2,9939
1692,20315;3,00292
1690,152;3,00772
1688,10084;3,01206
1686,04969;3,02172
1683,99853;3,04771
1681,94738;3,0828
1679,89622;3,10192
1677,84507;3,10851
1675,79391;3,11186
1673,74276;3,12219
1671,6916;3,13441
1669,64045;3,14104
1667,58929;3,14178
1665,53813;3,13336
1663,48698;3,12918
1661,43582;3,13859
1659,38467;3,14435
1657,33351;3,13936
1655,28236;3,12671
1653,2312;3,12064
1651,18005;3,13708
1649,12889;3,14334
1647,07774;3,14013
1645,02658;3,15349
1642,97543;3,16768
1640,92427;3,16609
1638,87312;3,15175
1636,82196;3,12741
1634,7708;3,10608
1632,71965;3,10534
1630,66849;3,10995
1628,61734;3,10743
1626,56618;3,10228
1624,51503;3,09656
1622,46387;3,08948
1620,41272;3,07836
1618,36156;3,05701
1616,31041;3,03133
1614,25925;3,01336
1612,2081;3,00497
1610,15694;3,00742
1608,10579;3,0153
1606,05463;3,01836
1604,00347;3,01436
1601,95232;3,00669
1599,90116;2,99789
1597,85001;2,99088
1595,79885;2,98785
1593,7477;2,98541
1591,69654;2,98187
1589,64539;2,981
1587,59423;2,9812
1585,54308;2,97611
1583,49192;2,96703
1581,44077;2,95991
1579,38961;2,95397
1577,33846;2,94455
1575,2873;2,93789
1573,23614;2,93864
1571,18499;2,93519
1569,13383;2,92132
1567,08268;2,89306
1565,03152;2,85525
1562,98037;2,82652
1560,92921;2,80207
1558,87806;2,77682
1556,8269;2,76621
1554,77575;2,75013
1552,72459;2,7212
1550,67344;2,68596
1548,62228;2,65142
1546,57113;2,62497
1544,51997;2,60596
1542,46881;2,58923
1540,41766;2,5701
1538,3665;2,55884
1536,31535;2,54894
1534,26419;2,52418
1532,21304;2,50005
1530,16188;2,49007
1528,11073;2,48461
1526,05957;2,47866
1524,00842;2,47029
1521,95726;2,45623
1519,90611;2,44484
1517,85495;2,43707
1515,80379;2,43089
1513,75264;2,42712
1511,70148;2,42509
1509,65033;2,42336
1507,59917;2,41024
1505,54802;2,39106
1503,49686;2,38327
1501,44571;2,37846
1499,39455;2,3711
1497,3434;2,36443
1495,29224;2,36138
1493,24109;2,35854
1491,18993;2,35194
1489,13878;2,34664
1487,08762;2,34393
1485,03646;2,34104
1482,98531;2,33683
1480,93415;2,33309
1478,883;2,33204
1476,83184;2,33281
1474,78069;2,334
1472,72953;2,33326
1470,67838;2,33433
1468,62722;2,33522
1466,57607;2,32994
1464,52491;2,32331
1462,47376;2,32314
1460,4226;2,32428
1458,37145;2,32074
1456,32029;2,31671
1454,26913;2,31421
1452,21798;2,30914
1450,16682;2,30335
1448,11567;2,29817
1446,06451;2,29413
1444,01336;2,28979
1441,9622;2,28519
1439,91105;2,28089
1437,85989;2,27276
1435,80874;2,2647
1433,75758;2,25956
1431,70643;2,25031
1429,65527;2,23871
1427,60412;2,22873
1425,55296;2,21752
1423,5018;2,20529
1421,45065;2,19162
1419,39949;2,17244
1417,34834;2,15355
1415,29718;2,13615
1413,24603;2,11616
1411,19487;2,09645
1409,14372;2,08374
1407,09256;2,08157
1405,04141;2,09015
1402,99025;2,1058
1400,9391;2,12016
1398,88794;2,13294
1396,83679;2,14692
1394,78563;2,16031
1392,73447;2,1752
1390,68332;2,1914
1388,63216;2,20854
1386,58101;2,22801
1384,52985;2,24602
1382,4787;2,25979
1380,42754;2,2739
1378,37639;2,29112
1376,32523;2,30864
1374,27408;2,32315
1372,22292;2,33458
1370,17177;2,34198
1368,12061;2,34785
1366,06946;2,35567
1364,0183;2,36457
1361,96714;2,3742
1359,91599;2,38297
1357,86483;2,38873
1355,81368;2,39276
1353,76252;2,39732
1351,71137;2,40324
1349,66021;2,40946
1347,60906;2,41523
1345,5579;2,42069
1343,50675;2,4253
1341,45559;2,42827
1339,40444;2,43169
1337,35328;2,43707
1335,30213;2,44199
1333,25097;2,44667
1331,19981;2,45248
1329,14866;2,45762
1327,0975;2,46142
1325,04635;2,4668
1322,99519;2,47309
1320,94404;2,47743
1318,89288;2,48087
1316,84173;2,48328
1314,79057;2,48362
1312,73942;2,48509
1310,68826;2,48887
1308,63711;2,49266
1306,58595;2,49583
1304,5348;2,49628
1302,48364;2,49364
1300,43248;2,49287
1298,38133;2,49585
1296,33017;2,49979
1294,27902;2,50263
1292,22786;2,50451
1290,17671;2,50719
1288,12555;2,51098
1286,0744;2,51445
1284,02324;2,51622
1281,97209;2,51648
1279,92093;2,51768
1277,86978;2,52021
1275,81862;2,52319
1273,76747;2,52623
1271,71631;2,52637
1269,66515;2,52385
1267,614;2,52345
1265,56284;2,52586
1263,51169;2,52926
1261,46053;2,53281
1259,40938;2,53554
1257,35822;2,53884
1255,30707;2,54425
1253,25591;2,54991
1251,20476;2,55532
1249,1536;2,55999
1247,10245;2,56018
1245,05129;2,56023
1243,00013;2,56617
1240,94898;2,57089
1238,89782;2,56946
1236,84667;2,56756
1234,79551;2,56959
1232,74436;2,57507
1230,6932;2,58026
1228,64205;2,58252
1226,59089;2,58274
1224,53974;2,58116
1222,48858;2,5776
1220,43743;2,57287
1218,38627;2,57055
1216,33512;2,57382
1214,28396;2,57869
1212,2328;2,58075
1210,18165;2,58133
1208,13049;2,58345
1206,07934;2,58577
1204,02818;2,58576
1201,97703;2,58781
1199,92587;2,59591
1197,87472;2,60454
1195,82356;2,60887
1193,77241;2,61334
1191,72125;2,61975
1189,6701;2,62117
1187,61894;2,61765
1185,56779;2,61877
1183,51663;2,62508
1181,46547;2,63176
1179,41432;2,6387
1177,36316;2,64477
1175,31201;2,64961
1173,26085;2,65679
1171,2097;2,66184
1169,15854;2,65896
1167,10739;2,65646
1165,05623;2,66191
1163,00508;2,67218
1160,95392;2,68156
1158,90277;2,68944
1156,85161;2,69287
1154,80046;2,68539
1152,7493;2,67126
1150,69814;2,66198
1148,64699;2,66286
1146,59583;2,668
1144,54468;2,67076
1142,49352;2,66971
1140,44237;2,6671
1138,39121;2,66541
1136,34006;2,66192
1134,2889;2,6547
1132,23775;2,64743
1130,18659;2,64347
1128,13544;2,6395
1126,08428;2,63254
1124,03313;2,62689
1121,98197;2,62578
1119,93081;2,62625
1117,87966;2,62491
1115,8285;2,62575
1113,77735;2,63465
1111,72619;2,64398
1109,67504;2,64038
1107,62388;2,6283
1105,57273;2,61876
1103,52157;2,61248
1101,47042;2,60621
1099,41926;2,59662
1097,36811;2,58745
1095,31695;2,58447
1093,2658;2,58472
1091,21464;2,58432
1089,16348;2,58286
1087,11233;2,57995
1085,06117;2,57446
1083,01002;2,56871
1080,95886;2,56504
1078,90771;2,55902
1076,85655;2,5489
1074,8054;2,54007
1072,75424;2,53561
1070,70309;2,53187
1068,65193;2,5272
1066,60078;2,52104
1064,54962;2,51171
1062,49847;2,50412
1060,44731;2,50025
1058,39615;2,49642
1056,345;2,48985
1054,29384;2,48086
1052,24269;2,47154
1050,19153;2,46026
1048,14038;2,44871
1046,08922;2,44421
1044,03807;2,44643
1041,98691;2,44844
1039,93576;2,44733
1037,8846;2,44701
1035,83345;2,44787
1033,78229;2,44454
1031,73114;2,44254
1029,67998;2,45124
1027,62882;2,4617
1025,57767;2,46239
1023,52651;2,45772
1021,47536;2,45318
1019,4242;2,45038
1017,37305;2,45151
1015,32189;2,45232
1013,27074;2,44641
1011,21958;2,44036
1009,16843;2,44255
1007,11727;2,45067
1005,06612;2,46047
1003,01496;2,46742
1000,96381;2,47304
998,91265;2,48347
996,86149;2,4947
994,81034;2,5014
992,75918;2,504
990,70803;2,50498
988,65687;2,51066
986,60572;2,52026
984,55456;2,52584
982,50341;2,5294
980,45225;2,53421
978,4011;2,53725
976,34994;2,53999
974,29879;2,5411
972,24763;2,54003
970,19647;2,54446
968,14532;2,55316
966,09416;2,56016
964,04301;2,56935
961,99185;2,58043
959,9407;2,58661
957,88954;2,59331
955,83839;2,60245
953,78723;2,60309
951,73608;2,59799
949,68492;2,60075
947,63377;2,6084
945,58261;2,60847
943,53146;2,60423
941,4803;2,60607
939,42914;2,61324
937,37799;2,61987
935,32683;2,62456
933,27568;2,62954
931,22452;2,63011
929,17337;2,62286
927,12221;2,61548
925,07106;2,61261
923,0199;2,61301
920,96875;2,61213
918,91759;2,60717
916,86644;2,60066
914,81528;2,59363
912,76413;2,58944
910,71297;2,59143
908,66181;2,59815
906,61066;2,60653
904,5595;2,61069
902,50835;2,61379
900,45719;2,61743
898,40604;2,61371
896,35488;2,61105
894,30373;2,61232
892,25257;2,60313
890,20142;2,58616
888,15026;2,58152
886,09911;2,604
884,04795;2,64523
881,9968;2,67429
879,94564;2,66553
877,89448;2,62074
875,84333;2,56021
873,79217;2,50149
871,74102;2,46645
869,68986;2,47628
867,63871;2,52
865,58755;2,56006
863,5364;2,57653
861,48524;2,58081
859,43409;2,58728
857,38293;2,59933
855,33178;2,6155
853,28062;2,63014
851,22947;2,64361
849,17831;2,66039
847,12715;2,66262
845,076;2,63909
843,02484;2,61543
840,97369;2,60845
838,92253;2,61094
836,87138;2,61805
834,82022;2,62439
832,76907;2,6273
830,71791;2,63281
828,66676;2,64215
826,6156;2,65129
824,56445;2,65076
822,51329;2,6407
820,46214;2,63887
818,41098;2,64895
816,35982;2,65707
814,30867;2,66001
812,25751;2,6635
810,20636;2,66952
808,1552;2,67292
806,10405;2,67725
804,05289;2,6939
802,00174;2,71134
799,95058;2,7182
797,89943;2,72182
795,84827;2,7251
793,79712;2,72863
791,74596;2,72639
789,69481;2,7268
787,64365;2,73729
785,59249;2,74073
783,54134;2,73323
781,49018;2,72751
779,43903;2,73248
777,38787;2,74374
775,33672;2,75627
773,28556;2,76955
771,23441;2,77819
769,18325;2,78686
767,1321;2,79275
765,08094;2,7899
763,02979;2,78546
760,97863;2,78058
758,92748;2,7831
756,87632;2,79211
754,82516;2,79846
752,77401;2,80747
750,72285;2,82275
748,6717;2,83889
746,62054;2,85072
744,56939;2,85505
742,51823;2,85161
740,46708;2,85227
738,41592;2,8508
736,36477;2,83929
734,31361;2,8506
732,26246;2,88892
730,2113;2,91876
728,16015;2,92245
726,10899;2,92727
724,05783;2,94792
722,00668;2,96576
719,95552;2,97924
717,90437;2,99662
715,85321;3,00993
713,80206;2,99187
711,7509;2,95248
709,69975;2,92724
707,64859;2,9112
705,59744;2,88397
703,54628;2,84923
701,49513;2,82182
699,44397;2,80801
697,39281;2,80703
695,34166;2,81459
693,2905;2,82656
691,23935;2,83985
689,18819;2,84876
687,13704;2,85361
685,08588;2,84927
683,03473;2,8416
680,98357;2,84851
678,93242;2,85976
676,88126;2,86626
674,83011;2,87074
672,77895;2,85766
670,7278;2,82713
668,67664;2,81295
666,62548;2,83178
664,57433;2,85321
662,52317;2,86548
660,47202;2,86637
658,42086;2,8551
656,36971;2,84206
654,31855;2,83697
652,2674;2,85142
650,21624;2,87579
648,16509;2,87463
646,11393;2,84966
644,06278;2,83909
642,01162;2,84619
639,96047;2,85015
637,90931;2,85413
635,85815;2,86314
633,807;2,85161
631,75584;2,81821
629,70469;2,79864
627,65353;2,80353
625,60238;2,80124
623,55122;2,78838
621,50007;2,80082
619,44891;2,83973
617,39776;2,85601
615,3466;2,8446
613,29545;2,83282
611,24429;2,81451
609,19314;2,80903
607,14198;2,84496
605,09082;2,88668
603,03967;2,88764
600,98851;2,86113
598,93736;2,82287
596,8862;2,77923
594,83505;2,76451
592,78389;2,80231
590,73274;2,85642
588,68158;2,85763
586,63043;2,8163
584,57927;2,78608
582,52812;2,77906
580,47696;2,78295
578,42581;2,80189
576,37465;2,82787
574,32349;2,81635
572,27234;2,78823
570,22118;2,78364
568,17003;2,78778
566,11887;2,78665
564,06772;2,75869
562,01656;2,69466
559,96541;2,65174
557,91425;2,64689
555,8631;2,63996
553,81194;2,61829
551,76079;2,59844
549,70963;2,5959
547,65848;2,61466
545,60732;2,63239
543,55616;2,63292
541,50501;2,63324
539,45385;2,63646
537,4027;2,62109
535,35154;2,60244
533,30039;2,6072
531,24923;2,62817
529,19808;2,63603
527,14692;2,62031
525,09577;2,60594
523,04461;2,61538
520,99346;2,62523
518,9423;2,61587
516,89115;2,60186
514,83999;2,60253
512,78883;2,61824
510,73768;2,63173
508,68652;2,63334
506,63537;2,63899
504,58421;2,65698
502,53306;2,66242
500,4819;2,65516
498,43075;2,65819
496,37959;2,66161
494,32844;2,64462
492,27728;2,61825
490,22613;2,5896
488,17497;2,55535
486,12382;2,52713
484,07266;2,50578
482,0215;2,47945
479,97035;2,44569
477,91919;2,41984
475,86804;2,41622
473,81688;2,42099
471,76573;2,42913
469,71457;2,44468
467,66342;2,44387
465,61226;2,42516
463,56111;2,41829
461,50995;2,41624
459,4588;2,39662
457,40764;2,38552
455,35649;2,41369
453,30533;2,45265
451,25417;2,45753
449,20302;2,43328
447,15186;2,43124
445,10071;2,46484
443,04955;2,49294
440,9984;2,47739
438,94724;2,43409
436,89609;2,43248
434,84493;2,48778
432,79378;2,52274
430,74262;2,49928
428,69147;2,45543
426,64031;2,43229
424,58916;2,44458
422,538;2,44693
420,48684;2,40892
418,43569;2,39308
416,38453;2,42529
414,33338;2,4548
412,28222;2,45775
410,23107;2,43313
408,17991;2,40367
406,12876;2,41464
404,0776;2,47865
402,02645;2,53003
399,97529;2,49713
