3997,70175;1,81531
3995,6506;1,81734
3993,59944;1,81997
3991,54829;1,8224
3989,49713;1,82286
3987,44598;1,82252
3985,39482;1,82411
3983,34367;1,82636
3981,29251;1,82719
3979,24136;1,82761
3977,1902;1,8285
3975,13905;1,82986
3973,08789;1,83171
3971,03673;1,83397
3968,98558;1,83643
3966,93442;1,83902
3964,88327;1,84193
3962,83211;1,84495
3960,78096;1,8476
3958,7298;1,84963
3956,67865;1,85203
3954,62749;1,85517
3952,57634;1,85775
3950,52518;1,85928
3948,47403;1,86065
3946,42287;1,86305
3944,37172;1,86521
3942,32056;1,86566
3940,2694;1,86443
3938,21825;1,86147
3936,16709;1,85822
3934,11594;1,85535
3932,06478;1,85247
3930,01363;1,84953
3927,96247;1,84695
3925,91132;1,84341
3923,86016;1,83796
3921,80901;1,83171
3919,75785;1,82618
3917,7067;1,82194
3915,65554;1,81815
3913,60439;1,81335
3911,55323;1,80774
3909,50207;1,80426
3907,45092;1,80318
3905,39976;1,802
3903,34861;1,79994
3901,29745;1,79631
3899,2463;1,79261
3897,19514;1,79253
3895,14399;1,79302
3893,09283;1,79009
3891,04168;1,7872
3888,99052;1,78782
3886,93937;1,7866
3884,88821;1,78598
3882,83706;1,78737
3880,7859;1,78569
3878,73474;1,78572
3876,68359;1,78665
3874,63243;1,78494
3872,58128;1,78337
3870,53012;1,78081
3868,47897;1,78145
3866,42781;1,78392
3864,37666;1,78403
3862,3255;1,78309
3860,27435;1,78096
3858,22319;1,7784
3856,17204;1,7738
3854,12088;1,76894
3852,06973;1,77119
3850,01857;1,77442
3847,96741;1,77337
3845,91626;1,77146
3843,8651;1,7716
3841,81395;1,77416
3839,76279;1,7752
3837,71164;1,77463
3835,66048;1,77502
3833,60933;1,77361
3831,55817;1,77131
3829,50702;1,77119
3827,45586;1,77091
3825,40471;1,77213
3823,35355;1,77294
3821,3024;1,77156
3819,25124;1,77369
3817,20008;1,77247
3815,14893;1,76948
3813,09777;1,77148
3811,04662;1,77441
3808,99546;1,77506
3806,94431;1,77489
3804,89315;1,77754
3802,842;1,77707
3800,79084;1,77639
3798,73969;1,77946
3796,68853;1,77967
3794,63738;1,77925
3792,58622;1,77957
3790,53506;1,77998
3788,48391;1,78142
3786,43275;1,78315
3784,3816;1,78424
3782,33044;1,78493
3780,27929;1,78556
3778,22813;1,78825
3776,17698;1,79105
3774,12582;1,79207
3772,07467;1,79306
3770,02351;1,79598
3767,97236;1,80062
3765,9212;1,80199
3763,87005;1,80219
3761,81889;1,80324
3759,76773;1,80463
3757,71658;1,8076
3755,66542;1,81024
3753,61427;1,80987
3751,56311;1,80963
3749,51196;1,81545
3747,4608;1,82243
3745,40965;1,82159
3743,35849;1,82436
3741,30734;1,83487
3739,25618;1,84268
3737,20503;1,84726
3735,15387;1,85169
3733,10272;1,85678
3731,05156;1,86482
3729,0004;1,8763
3726,94925;1,88866
3724,89809;1,90315
3722,84694;1,91856
3720,79578;1,93365
3718,74463;1,9473
3716,69347;1,95982
3714,64232;1,9735
3712,59116;1,9915
3710,54001;2,01571
3708,48885;2,04125
3706,4377;2,06528
3704,38654;2,09391
3702,33539;2,13555
3700,28423;2,18761
3698,23307;2,23417
3696,18192;2,2658
3694,13076;2,28381
3692,07961;2,29034
3690,02845;2,28217
3687,9773;2,25857
3685,92614;2,23447
3683,87499;2,21789
3681,82383;2,2076
3679,77268;2,20192
3677,72152;2,20179
3675,67037;2,21247
3673,61921;2,23405
3671,56806;2,25028
3669,5169;2,26233
3667,46574;2,275
3665,41459;2,27974
3663,36343;2,2802
3661,31228;2,28619
3659,26112;2,29892
3657,20997;2,315
3655,15881;2,33559
3653,10766;2,3565
3651,0565;2,37486
3649,00535;2,39366
3646,95419;2,40398
3644,90304;2,40382
3642,85188;2,39962
3640,80073;2,39661
3638,74957;2,39663
3636,69841;2,40008
3634,64726;2,40731
3632,5961;2,4174
3630,54495;2,42711
3628,49379;2,44119
3626,44264;2,46386
3624,39148;2,49035
3622,34033;2,52185
3620,28917;2,54926
3618,23802;2,55287
3616,18686;2,53493
3614,13571;2,51489
3612,08455;2,50229
3610,0334;2,49429
3607,98224;2,48814
3605,93108;2,48722
3603,87993;2,49142
3601,82877;2,49836
3599,77762;2,50679
3597,72646;2,51386
3595,67531;2,51924
3593,62415;2,52796
3591,573;2,53873
3589,52184;2,54244
3587,47069;2,53972
3585,41953;2,5411
3583,36838;2,54724
3581,31722;2,5515
3579,26607;2,5557
3577,21491;2,56728
3575,16375;2,5806
3573,1126;2,584
3571,06144;2,58144
3569,01029;2,58258
3566,95913;2,58798
3564,90798;2,594
3562,85682;2,59886
3560,80567;2,60227
3558,75451;2,60679
3556,70336;2,61443
3554,6522;2,62266
3552,60105;2,63036
3550,54989;2,63684
3548,49874;2,63873
3546,44758;2,64067
3544,39642;2,64674
3542,34527;2,65076
3540,29411;2,65122
3538,24296;2,64979
3536,1918;2,6489
3534,14065;2,655
3532,08949;2,66761
3530,03834;2,68029
3527,98718;2,68575
3525,93603;2,68152
3523,88487;2,67824
3521,83372;2,68024
3519,78256;2,68038
3517,73141;2,68091
3515,68025;2,68568
3513,62909;2,69194
3511,57794;2,69626
3509,52678;2,69914
3507,47563;2,70713
3505,42447;2,72107
3503,37332;2,73358
3501,32216;2,73877
3499,27101;2,73666
3497,21985;2,73398
3495,1687;2,73374
3493,11754;2,73164
3491,06639;2,73016
3489,01523;2,73289
3486,96407;2,73675
3484,91292;2,74404
3482,86176;2,7547
3480,81061;2,762
3478,75945;2,76622
3476,7083;2,76627
3474,65714;2,75539
3472,60599;2,74083
3470,55483;2,73617
3468,50368;2,7432
3466,45252;2,75425
3464,40137;2,75927
3462,35021;2,75459
3460,29906;2,74417
3458,2479;2,73659
3456,19674;2,73914
3454,14559;2,74551
3452,09443;2,74725
3450,04328;2,74932
3447,99212;2,75537
3445,94097;2,7662
3443,88981;2,7782
3441,83866;2,78494
3439,7875;2,79042
3437,73635;2,79134
3435,68519;2,78036
3433,63404;2,7716
3431,58288;2,77536
3429,53173;2,78133
3427,48057;2,78078
3425,42941;2,77942
3423,37826;2,78568
3421,3271;2,79159
3419,27595;2,7859
3417,22479;2,78239
3415,17364;2,7963
3413,12248;2,81738
3411,07133;2,82573
3409,02017;2,81617
3406,96902;2,80363
3404,91786;2,79582
3402,86671;2,79083
3400,81555;2,79526
3398,7644;2,80186
3396,71324;2,80216
3394,66208;2,80372
3392,61093;2,80571
3390,55977;2,80171
3388,50862;2,79681
3386,45746;2,7973
3384,40631;2,80402
3382,35515;2,81067
3380,304;2,8073
3378,25284;2,80006
3376,20169;2,79803
3374,15053;2,79307
3372,09938;2,79005
3370,04822;2,79975
3367,99707;2,80931
3365,94591;2,81213
3363,89475;2,81616
3361,8436;2,81725
3359,79244;2,80602
3357,74129;2,78834
3355,69013;2,78192
3353,63898;2,79202
3351,58782;2,80518
3349,53667;2,81404
3347,48551;2,82484
3345,43436;2,83542
3343,3832;2,84255
3341,33205;2,84584
3339,28089;2,84015
3337,22974;2,82873
3335,17858;2,8242
3333,12742;2,82853
3331,07627;2,82693
3329,02511;2,81399
3326,97396;2,80253
3324,9228;2,8015
3322,87165;2,80349
3320,82049;2,80691
3318,76934;2,82142
3316,71818;2,84119
3314,66703;2,84862
3312,61587;2,84419
3310,56472;2,83982
3308,51356;2,83205
3306,46241;2,82108
3304,41125;2,81658
3302,36009;2,82388
3300,30894;2,84068
3298,25778;2,85011
3296,20663;2,84374
3294,15547;2,82827
3292,10432;2,8076
3290,05316;2,795
3288,00201;2,80323
3285,95085;2,81847
3283,8997;2,82451
3281,84854;2,831
3279,79739;2,84161
3277,74623;2,84004
3275,69508;2,82347
3273,64392;2,80834
3271,59276;2,80194
3269,54161;2,79693
3267,49045;2,78854
3265,4393;2,78133
3263,38814;2,77716
3261,33699;2,7757
3259,28583;2,77757
3257,23468;2,7783
3255,18352;2,77553
3253,13237;2,77087
3251,08121;2,76787
3249,03006;2,76913
3246,9789;2,7677
3244,92775;2,76382
3242,87659;2,76544
3240,82543;2,77025
3238,77428;2,77511
3236,72312;2,77826
3234,67197;2,77545
3232,62081;2,76877
3230,56966;2,76322
3228,5185;2,76004
3226,46735;2,75705
3224,41619;2,75394
3222,36504;2,75472
3220,31388;2,75577
3218,26273;2,75096
3216,21157;2,74697
3214,16041;2,75529
3212,10926;2,77092
3210,0581;2,77171
3208,00695;2,75141
3205,95579;2,73194
3203,90464;2,72823
3201,85348;2,73237
3199,80233;2,73395
3197,75117;2,72835
3195,70002;2,71757
3193,64886;2,71071
3191,59771;2,70989
3189,54655;2,70879
3187,4954;2,70287
3185,44424;2,69649
3183,39308;2,69632
3181,34193;2,69996
3179,29077;2,69859
3177,23962;2,69086
3175,18846;2,68215
3173,13731;2,67587
3171,08615;2,67474
3169,035;2,67546
3166,98384;2,66852
3164,93269;2,65782
3162,88153;2,65405
3160,83038;2,65393
3158,77922;2,65231
3156,72807;2,65144
3154,67691;2,64915
3152,62575;2,63984
3150,5746;2,6313
3148,52344;2,63477
3146,47229;2,64326
3144,42113;2,64514
3142,36998;2,63951
3140,31882;2,63075
3138,26767;2,6249
3136,21651;2,62141
3134,16536;2,61484
3132,1142;2,60846
3130,06305;2,60967
3128,01189;2,61683
3125,96074;2,61999
3123,90958;2,61591
3121,85842;2,60967
3119,80727;2,60294
3117,75611;2,59922
3115,70496;2,60021
3113,6538;2,60033
3111,60265;2,59807
3109,55149;2,59581
3107,50034;2,59374
3105,44918;2,59165
3103,39803;2,59074
3101,34687;2,5896
3099,29572;2,58474
3097,24456;2,58062
3095,19341;2,58337
3093,14225;2,58907
3091,09109;2,59373
3089,03994;2,5954
3086,98878;2,59323
3084,93763;2,5906
3082,88647;2,58857
3080,83532;2,58742
3078,78416;2,5888
3076,73301;2,59209
3074,68185;2,59149
3072,6307;2,58556
3070,57954;2,58245
3068,52839;2,58408
3066,47723;2,58343
3064,42608;2,57808
3062,37492;2,57221
3060,32376;2,56906
3058,27261;2,56891
3056,22145;2,57085
3054,1703;2,57148
3052,11914;2,56827
3050,06799;2,56584
3048,01683;2,56617
3045,96568;2,56569
3043,91452;2,56332
3041,86337;2,55982
3039,81221;2,55708
3037,76106;2,55425
3035,7099;2,5497
3033,65875;2,54738
3031,60759;2,54967
3029,55643;2,55281
3027,50528;2,55396
3025,45412;2,55297
3023,40297;2,54964
3021,35181;2,54343
3019,30066;2,53612
3017,2495;2,53411
3015,19835;2,538
3013,14719;2,54013
3011,09604;2,53848
3009,04488;2,53671
3006,99373;2,53774
3004,94257;2,54161
3002,89142;2,54424
3000,84026;2,54539
2998,7891;2,55086
2996,73795;2,564
2994,68679;2,57845
2992,63564;2,58454
2990,58448;2,58532
2988,53333;2,58902
2986,48217;2,59765
2984,43102;2,6069
2982,37986;2,61395
2980,32871;2,62013
2978,27755;2,62481
2976,2264;2,62845
2974,17524;2,633
2972,12409;2,64015
2970,07293;2,6455
2968,02177;2,64647
2965,97062;2,64827
2963,91946;2,64978
2961,86831;2,64801
2959,81715;2,64369
2957,766;2,6361
2955,71484;2,62653
2953,66369;2,61821
2951,61253;2,61317
2949,56138;2,61169
2947,51022;2,60932
2945,45907;2,6047
2943,40791;2,60265
2941,35675;2,60218
2939,3056;2,60331
2937,25444;2,60961
2935,20329;2,61515
2933,15213;2,61461
2931,10098;2,61004
2929,04982;2,60254
2926,99867;2,59546
2924,94751;2,5903
2922,89636;2,58542
2920,8452;2,58246
2918,79405;2,58051
2916,74289;2,57558
2914,69174;2,57189
2912,64058;2,57177
2910,58942;2,56635
2908,53827;2,55659
2906,48711;2,55029
2904,43596;2,54769
2902,3848;2,54707
2900,33365;2,54638
2898,28249;2,54175
2896,23134;2,53404
2894,18018;2,53095
2892,12903;2,53468
2890,07787;2,5405
2888,02672;2,54474
2885,97556;2,54532
2883,92441;2,54433
2881,87325;2,54862
2879,82209;2,5591
2877,77094;2,56787
2875,71978;2,56817
2873,66863;2,56219
2871,61747;2,55611
2869,56632;2,54996
2867,51516;2,54298
2865,46401;2,53638
2863,41285;2,53165
2861,3617;2,52824
2859,31054;2,52478
2857,25939;2,52042
2855,20823;2,51236
2853,15708;2,50233
2851,10592;2,49432
2849,05476;2,48838
2847,00361;2,48268
2844,95245;2,47685
2842,9013;2,46999
2840,85014;2,45892
2838,79899;2,44552
2836,74783;2,43539
2834,69668;2,42846
2832,64552;2,42186
2830,59437;2,41477
2828,54321;2,40576
2826,49206;2,39567
2824,4409;2,38875
2822,38975;2,38517
2820,33859;2,38045
2818,28743;2,37408
2816,23628;2,36897
2814,18512;2,36433
2812,13397;2,3584
2810,08281;2,35183
2808,03166;2,34711
2805,9805;2,34632
2803,92935;2,34554
2801,87819;2,34083
2799,82704;2,33567
2797,77588;2,33272
2795,72473;2,33111
2793,67357;2,32821
2791,62242;2,32263
2789,57126;2,31695
2787,5201;2,31103
2785,46895;2,3045
2783,41779;2,30053
2781,36664;2,29855
2779,31548;2,29578
2777,26433;2,29189
2775,21317;2,28772
2773,16202;2,28512
2771,11086;2,28316
2769,05971;2,27973
2767,00855;2,27658
2764,9574;2,27484
2762,90624;2,27322
2760,85509;2,27128
2758,80393;2,26899
2756,75277;2,26698
2754,70162;2,26528
2752,65046;2,26142
2750,59931;2,25651
2748,54815;2,25414
2746,497;2,25364
2744,44584;2,25317
2742,39469;2,25282
2740,34353;2,2523
2738,29238;2,25003
2736,24122;2,24748
2734,19007;2,24626
2732,13891;2,24435
2730,08776;2,24206
2728,0366;2,24082
2725,98544;2,23965
2723,93429;2,23794
2721,88313;2,23726
2719,83198;2,23801
2717,78082;2,23646
2715,72967;2,23074
2713,67851;2,22555
2711,62736;2,22523
2709,5762;2,22668
2707,52505;2,22611
2705,47389;2,22515
2703,42274;2,22475
2701,37158;2,22373
2699,32043;2,22328
2697,26927;2,22347
2695,21811;2,22163
2693,16696;2,21923
2691,1158;2,21954
2689,06465;2,22072
2687,01349;2,2199
2684,96234;2,21872
2682,91118;2,2188
2680,86003;2,21967
2678,80887;2,22173
2676,75772;2,22473
2674,70656;2,22641
2672,65541;2,22569
2670,60425;2,22556
2668,55309;2,22634
2666,50194;2,22493
2664,45078;2,22302
2662,39963;2,22332
2660,34847;2,22403
2658,29732;2,2245
2656,24616;2,22654
2654,19501;2,22871
2652,14385;2,22879
2650,0927;2,22849
2648,04154;2,22966
2645,99039;2,23183
2643,93923;2,23638
2641,88808;2,24509
2639,83692;2,25471
2637,78576;2,26199
2635,73461;2,26954
2633,68345;2,27944
2631,6323;2,28912
2629,58114;2,29819
2627,52999;2,30761
2625,47883;2,31499
2623,42768;2,3204
2621,37652;2,32789
2619,32537;2,33675
2617,27421;2,34261
2615,22306;2,34721
2613,1719;2,35353
2611,12075;2,35974
2609,06959;2,36296
2607,01843;2,36342
2604,96728;2,36471
2602,91612;2,368
2600,86497;2,37114
2598,81381;2,37271
2596,76266;2,37408
2594,7115;2,37623
2592,66035;2,37791
2590,60919;2,37903
2588,55804;2,37918
2586,50688;2,3797
2584,45573;2,38207
2582,40457;2,38396
2580,35342;2,38423
2578,30226;2,38389
2576,2511;2,38456
2574,19995;2,38837
2572,14879;2,39165
2570,09764;2,38823
2568,04648;2,38339
2565,99533;2,38433
2563,94417;2,38757
2561,89302;2,38991
2559,84186;2,39216
2557,79071;2,3931
2555,73955;2,3929
2553,6884;2,39324
2551,63724;2,39523
2549,58609;2,39899
2547,53493;2,40167
2545,48377;2,40312
2543,43262;2,40554
2541,38146;2,41036
2539,33031;2,41821
2537,27915;2,42611
2535,228;2,43313
2533,17684;2,44152
2531,12569;2,45256
2529,07453;2,46561
2527,02338;2,47715
2524,97222;2,4857
2522,92107;2,49258
2520,86991;2,49622
2518,81876;2,49525
2516,7676;2,49482
2514,71644;2,49828
2512,66529;2,501
2510,61413;2,49743
2508,56298;2,48749
2506,51182;2,47823
2504,46067;2,47319
2502,40951;2,46653
2500,35836;2,4565
2498,3072;2,44636
2496,25605;2,43676
2494,20489;2,42623
2492,15374;2,41522
2490,10258;2,40613
2488,05143;2,39708
2486,00027;2,38555
2483,94911;2,37473
2481,89796;2,36624
2479,8468;2,3563
2477,79565;2,34424
2475,74449;2,33213
2473,69334;2,3196
2471,64218;2,30708
2469,59103;2,2971
2467,53987;2,29008
2465,48872;2,28306
2463,43756;2,27442
2461,38641;2,26651
2459,33525;2,26068
2457,2841;2,25384
2455,23294;2,24552
2453,18178;2,23928
2451,13063;2,23514
2449,07947;2,2305
2447,02832;2,22634
2444,97716;2,22426
2442,92601;2,22072
2440,87485;2,21453
2438,8237;2,20909
2436,77254;2,20491
2434,72139;2,20109
2432,67023;2,19751
2430,61908;2,19364
2428,56792;2,18961
2426,51677;2,1865
2424,46561;2,18476
2422,41445;2,18318
2420,3633;2,18074
2418,31214;2,17797
2416,26099;2,1757
2414,20983;2,17427
2412,15868;2,17266
2410,10752;2,17
2408,05637;2,16777
2406,00521;2,16584
2403,95406;2,16243
2401,9029;2,15899
2399,85175;2,15756
2397,80059;2,15804
2395,74944;2,15874
2393,69828;2,15796
2391,64712;2,15643
2389,59597;2,1552
2387,54481;2,15337
2385,49366;2,15082
2383,4425;2,14877
2381,39135;2,14758
2379,34019;2,14637
2377,28904;2,14418
2375,23788;2,14132
2373,18673;2,13823
2371,13557;2,13357
2369,08442;2,12583
2367,03326;2,11675
2364,9821;2,11109
2362,93095;2,1102
2360,87979;2,11368
2358,82864;2,12419
2356,77748;2,13954
2354,72633;2,15279
2352,67517;2,16184
2350,62402;2,17023
2348,57286;2,1833
2346,52171;2,20462
2344,47055;2,22963
2342,4194;2,24552
2340,36824;2,24401
2338,31709;2,22781
2336,26593;2,20621
2334,21477;2,18712
2332,16362;2,17257
2330,11246;2,16205
2328,06131;2,1552
2326,01015;2,15218
2323,959;2,15333
2321,90784;2,15701
2319,85669;2,15959
2317,80553;2,15893
2315,75438;2,15658
2313,70322;2,15562
2311,65207;2,1563
2309,60091;2,15627
2307,54976;2,15538
2305,4986;2,15499
2303,44744;2,1549
2301,39629;2,15496
2299,34513;2,15528
2297,29398;2,15561
2295,24282;2,15594
2293,19167;2,15531
2291,14051;2,15325
2289,08936;2,15179
2287,0382;2,15244
2284,98705;2,15442
2282,93589;2,15582
2280,88474;2,15543
2278,83358;2,15488
2276,78243;2,15587
2274,73127;2,15694
2272,68011;2,15665
2270,62896;2,15576
2268,5778;2,15631
2266,52665;2,15903
2264,47549;2,16157
2262,42434;2,1618
2260,37318;2,16058
2258,32203;2,16063
2256,27087;2,16316
2254,21972;2,16671
2252,16856;2,16992
2250,11741;2,17318
2248,06625;2,17728
2246,0151;2,17987
2243,96394;2,18089
2241,91278;2,18256
2239,86163;2,18516
2237,81047;2,18756
2235,75932;2,18854
2233,70816;2,18893
2231,65701;2,19204
2229,60585;2,19757
2227,5547;2,20225
2225,50354;2,20454
2223,45239;2,20584
2221,40123;2,20828
2219,35008;2,21077
2217,29892;2,21134
2215,24777;2,21085
2213,19661;2,2113
2211,14545;2,21317
2209,0943;2,21556
2207,04314;2,21739
2204,99199;2,2182
2202,94083;2,21849
2200,88968;2,21848
2198,83852;2,21916
2196,78737;2,22113
2194,73621;2,22171
2192,68506;2,22091
2190,6339;2,22205
2188,58275;2,22504
2186,53159;2,22781
2184,48044;2,23018
2182,42928;2,2326
2180,37812;2,23476
2178,32697;2,23786
2176,27581;2,24231
2174,22466;2,24597
2172,1735;2,24862
2170,12235;2,25144
2168,07119;2,25489
2166,02004;2,25998
2163,96888;2,26631
2161,91773;2,2713
2159,86657;2,27593
2157,81542;2,28398
2155,76426;2,29466
2153,71311;2,30433
2151,66195;2,31253
2149,61079;2,31945
2147,55964;2,32447
2145,50848;2,32749
2143,45733;2,32917
2141,40617;2,33079
2139,35502;2,33168
2137,30386;2,33287
2135,25271;2,3344
2133,20155;2,33194
2131,1504;2,32647
2129,09924;2,32144
2127,04809;2,31547
2124,99693;2,30694
2122,94578;2,29655
2120,89462;2,28677
2118,84346;2,28068
2116,79231;2,27642
2114,74115;2,27054
2112,69;2,26502
2110,63884;2,26187
2108,58769;2,25965
2106,53653;2,25704
2104,48538;2,25434
2102,43422;2,25166
2100,38307;2,24902
2098,33191;2,2482
2096,28076;2,24932
2094,2296;2,25003
2092,17844;2,25041
2090,12729;2,2515
2088,07613;2,25222
2086,02498;2,25238
2083,97382;2,25338
2081,92267;2,25512
2079,87151;2,25568
2077,82036;2,25538
2075,7692;2,25552
2073,71805;2,25598
2071,66689;2,25789
2069,61574;2,26174
2067,56458;2,26501
2065,51343;2,26613
2063,46227;2,26669
2061,41111;2,2673
2059,35996;2,26809
2057,3088;2,26913
2055,25765;2,2697
2053,20649;2,27077
2051,15534;2,27285
2049,10418;2,27468
2047,05303;2,27589
2045,00187;2,27675
2042,95072;2,2773
2040,89956;2,27853
2038,84841;2,28043
2036,79725;2,28185
2034,7461;2,28284
2032,69494;2,28324
2030,64378;2,28232
2028,59263;2,28117
2026,54147;2,28186
2024,49032;2,2836
2022,43916;2,28476
2020,38801;2,2858
2018,33685;2,28642
2016,2857;2,28618
2014,23454;2,28588
2012,18339;2,28648
2010,13223;2,28842
2008,08108;2,29074
2006,02992;2,29245
2003,97877;2,2938
2001,92761;2,29536
1999,87645;2,29688
1997,8253;2,29856
1995,77414;2,30106
1993,72299;2,30303
1991,67183;2,30438
1989,62068;2,30611
1987,56952;2,30626
1985,51837;2,30543
1983,46721;2,30637
1981,41606;2,30919
1979,3649;2,31218
1977,31375;2,31449
1975,26259;2,31519
1973,21144;2,31442
1971,16028;2,31474
1969,10912;2,31871
1967,05797;2,32712
1965,00681;2,33864
1962,95566;2,34994
1960,9045;2,35631
1958,85335;2,35338
1956,80219;2,34513
1954,75104;2,33969
1952,69988;2,33718
1950,64873;2,33439
1948,59757;2,33198
1946,54642;2,33159
1944,49526;2,33236
1942,44411;2,33304
1940,39295;2,33467
1938,34179;2,33602
1936,29064;2,336
1934,23948;2,33535
1932,18833;2,33599
1930,13717;2,33808
1928,08602;2,33959
1926,03486;2,34121
1923,98371;2,34381
1921,93255;2,34739
1919,8814;2,34988
1917,83024;2,35116
1915,77909;2,35462
1913,72793;2,35956
1911,67678;2,36498
1909,62562;2,36812
1907,57446;2,36764
1905,52331;2,36648
1903,47215;2,36775
1901,421;2,37171
1899,36984;2,37704
1897,31869;2,38265
1895,26753;2,38734
1893,21638;2,3896
1891,16522;2,38785
1889,11407;2,38685
1887,06291;2,39104
1885,01176;2,39621
1882,9606;2,40048
1880,90945;2,40411
1878,85829;2,40683
1876,80713;2,40984
1874,75598;2,41553
1872,70482;2,42342
1870,65367;2,42863
1868,60251;2,43172
1866,55136;2,43688
1864,5002;2,44175
1862,44905;2,44476
1860,39789;2,4483
1858,34674;2,45392
1856,29558;2,46092
1854,24443;2,46749
1852,19327;2,47312
1850,14212;2,47869
1848,09096;2,48377
1846,0398;2,48696
1843,98865;2,49161
1841,93749;2,50221
1839,88634;2,51355
1837,83518;2,52233
1835,78403;2,53037
1833,73287;2,53983
1831,68172;2,55027
1829,63056;2,55988
1827,57941;2,56713
1825,52825;2,57205
1823,4771;2,5808
1821,42594;2,59356
1819,37478;2,60586
1817,32363;2,61668
1815,27247;2,62685
1813,22132;2,63841
1811,17016;2,65518
1809,11901;2,67759
1807,06785;2,70023
1805,0167;2,719
1802,96554;2,7333
1800,91439;2,74749
1798,86323;2,7641
1796,81208;2,77787
1794,76092;2,78439
1792,70977;2,78315
1790,65861;2,77542
1788,60745;2,76
1786,5563;2,73823
1784,50514;2,72003
1782,45399;2,71211
1780,40283;2,70967
1778,35168;2,70533
1776,30052;2,69514
1774,24937;2,68381
1772,19821;2,68228
1770,14706;2,69242
1768,0959;2,70303
1766,04475;2,71167
1763,99359;2,71922
1761,94244;2,72541
1759,89128;2,73036
1757,84012;2,73132
1755,78897;2,73007
1753,73781;2,72831
1751,68666;2,73089
1749,6355;2,74558
1747,58435;2,76167
1745,53319;2,76697
1743,48204;2,76534
1741,43088;2,76269
1739,37973;2,76204
1737,32857;2,76418
1735,27742;2,766
1733,22626;2,7769
1731,17511;2,79264
1729,12395;2,80069
1727,07279;2,80675
1725,02164;2,81136
1722,97048;2,81408
1720,91933;2,8163
1718,86817;2,81616
1716,81702;2,82123
1714,76586;2,83679
1712,71471;2,85506
1710,66355;2,86845
1708,6124;2,87506
1706,56124;2,88061
1704,51009;2,89659
1702,45893;2,92206
1700,40778;2,95377
1698,35662;2,99391
1696,30546;3,03386
1694,25431;3,07535
1692,20315;3,10666
1690,152;3,12042
1688,10084;3,1222
1686,04969;3,11008
1683,99853;3,1029
1681,94738;3,12524
1679,89622;3,14719
1677,84507;3,15149
1675,79391;3,15187
1673,74276;3,16056
1671,6916;3,16987
1669,64045;3,18265
1667,58929;3,20577
1665,53813;3,22356
1663,48698;3,22911
1661,43582;3,22446
1659,38467;3,21009
1657,33351;3,19058
1655,28236;3,16362
1653,2312;3,14655
1651,18005;3,16679
1649,12889;3,17707
1647,07774;3,1643
1645,02658;3,16924
1642,97543;3,18596
1640,92427;3,18579
1638,87312;3,17027
1636,82196;3,15627
1634,7708;3,15543
1632,71965;3,15975
1630,66849;3,15528
1628,61734;3,13394
1626,56618;3,10082
1624,51503;3,07423
1622,46387;3,0717
1620,41272;3,08516
1618,36156;3,09234
1616,31041;3,09372
1614,25925;3,08807
1612,2081;3,06713
1610,15694;3,04494
1608,10579;3,03286
1606,05463;3,01876
1604,00347;2,99673
1601,95232;2,98095
1599,90116;2,97901
1597,85001;2,98247
1595,79885;2,98052
1593,7477;2,97396
1591,69654;2,97277
1589,64539;2,97706
1587,59423;2,97919
1585,54308;2,97706
1583,49192;2,9714
1581,44077;2,96268
1579,38961;2,95313
1577,33846;2,94346
1575,2873;2,93947
1573,23614;2,93879
1571,18499;2,92883
1569,13383;2,91332
1567,08268;2,8996
1565,03152;2,88531
1562,98037;2,87139
1560,92921;2,85152
1558,87806;2,82851
1556,8269;2,81967
1554,77575;2,80951
1552,72459;2,7927
1550,67344;2,77626
1548,62228;2,76751
1546,57113;2,77092
1544,51997;2,78011
1542,46881;2,7821
1540,41766;2,76895
1538,3665;2,76143
1536,31535;2,7667
1534,26419;2,76686
1532,21304;2,76139
1530,16188;2,75607
1528,11073;2,75058
1526,05957;2,74833
1524,00842;2,74739
1521,95726;2,74124
1519,90611;2,73835
1517,85495;2,73725
1515,80379;2,72825
1513,75264;2,71495
1511,70148;2,70411
1509,65033;2,69403
1507,59917;2,67682
1505,54802;2,66329
1503,49686;2,65866
1501,44571;2,64973
1499,39455;2,63369
1497,3434;2,61608
1495,29224;2,60884
1493,24109;2,6136
1491,18993;2,61677
1489,13878;2,6136
1487,08762;2,60652
1485,03646;2,59896
1482,98531;2,59489
1480,93415;2,59685
1478,883;2,60299
1476,83184;2,60889
1474,78069;2,61396
1472,72953;2,62015
1470,67838;2,6304
1468,62722;2,63812
1466,57607;2,63984
1464,52491;2,64425
1462,47376;2,65636
1460,4226;2,66996
1458,37145;2,67964
1456,32029;2,68491
1454,26913;2,68741
1452,21798;2,6856
1450,16682;2,6798
1448,11567;2,67365
1446,06451;2,67141
1444,01336;2,67109
1441,9622;2,67017
1439,91105;2,66775
1437,85989;2,66047
1435,80874;2,65349
1433,75758;2,64975
1431,70643;2,64105
1429,65527;2,62864
1427,60412;2,61777
1425,55296;2,60726
1423,5018;2,59883
1421,45065;2,59242
1419,39949;2,58275
1417,34834;2,57243
1415,29718;2,56016
1413,24603;2,54283
1411,19487;2,52549
1409,14372;2,51453
1407,09256;2,51283
1405,04141;2,52181
1402,99025;2,53763
1400,9391;2,55097
1398,88794;2,56101
1396,83679;2,57119
1394,78563;2,58233
1392,73447;2,59586
1390,68332;2,60763
1388,63216;2,61782
1386,58101;2,63232
1384,52985;2,64701
1382,4787;2,65418
1380,42754;2,65645
1378,37639;2,66025
1376,32523;2,66807
1374,27408;2,67929
1372,22292;2,69315
1370,17177;2,70372
1368,12061;2,70805
1366,06946;2,71109
1364,0183;2,71384
1361,96714;2,71492
1359,91599;2,71668
1357,86483;2,72047
1355,81368;2,72586
1353,76252;2,73193
1351,71137;2,73766
1349,66021;2,74358
1347,60906;2,7478
1345,5579;2,74678
1343,50675;2,74515
1341,45559;2,74957
1339,40444;2,7581
1337,35328;2,76267
1335,30213;2,76246
1333,25097;2,76305
1331,19981;2,76385
1329,14866;2,76587
1327,0975;2,77276
1325,04635;2,78139
1322,99519;2,78612
1320,94404;2,78628
1318,89288;2,78919
1316,84173;2,80106
1314,79057;2,81484
1312,73942;2,82018
1310,68826;2,81828
1308,63711;2,81282
1306,58595;2,80807
1304,5348;2,80897
1302,48364;2,80876
1300,43248;2,80435
1298,38133;2,80233
1296,33017;2,80183
1294,27902;2,79863
1292,22786;2,79957
1290,17671;2,80944
1288,12555;2,81561
1286,0744;2,8119
1284,02324;2,81133
1281,97209;2,8167
1279,92093;2,81962
1277,86978;2,82264
1275,81862;2,83054
1273,76747;2,83947
1271,71631;2,84449
1269,66515;2,84545
1267,614;2,84801
1265,56284;2,85309
1263,51169;2,85578
1261,46053;2,85752
1259,40938;2,86392
1257,35822;2,87436
1255,30707;2,88426
1253,25591;2,88571
1251,20476;2,87717
1249,1536;2,86793
1247,10245;2,86706
1245,05129;2,884
1243,00013;2,90878
1240,94898;2,91846
1238,89782;2,91986
1236,84667;2,92475
1234,79551;2,92551
1232,74436;2,92088
1230,6932;2,91934
1228,64205;2,91964
1226,59089;2,91948
1224,53974;2,92238
1222,48858;2,92165
1220,43743;2,90911
1218,38627;2,89758
1216,33512;2,89493
1214,28396;2,89722
1212,2328;2,9081
1210,18165;2,91812
1208,13049;2,91541
1206,07934;2,9129
1204,02818;2,92315
1201,97703;2,94037
1199,92587;2,94865
1197,87472;2,94515
1195,82356;2,93772
1193,77241;2,93047
1191,72125;2,93166
1189,6701;2,94203
1187,61894;2,95342
1185,56779;2,96501
1183,51663;2,97519
1181,46547;2,97892
1179,41432;2,97449
1177,36316;2,962
1175,31201;2,95268
1173,26085;2,95585
1171,2097;2,96616
1169,15854;2,9743
1167,10739;2,98038
1165,05623;2,98497
1163,00508;2,98233
1160,95392;2,97737
1158,90277;2,98304
1156,85161;2,99297
1154,80046;2,98887
1152,7493;2,97115
1150,69814;2,95089
1148,64699;2,94034
1146,59583;2,94466
1144,54468;2,94874
1142,49352;2,94088
1140,44237;2,92993
1138,39121;2,9266
1136,34006;2,92265
1134,2889;2,90871
1132,23775;2,89685
1130,18659;2,89244
1128,13544;2,88205
1126,08428;2,86357
1124,03313;2,84832
1121,98197;2,83791
1119,93081;2,82455
1117,87966;2,81399
1115,8285;2,81795
1113,77735;2,82086
1111,72619;2,80913
1109,67504;2,80039
1107,62388;2,79723
1105,57273;2,78431
1103,52157;2,76301
1101,47042;2,74567
1099,41926;2,73684
1097,36811;2,7319
1095,31695;2,72863
1093,2658;2,72717
1091,21464;2,72342
1089,16348;2,71605
1087,11233;2,70816
1085,06117;2,69933
1083,01002;2,68457
1080,95886;2,66876
1078,90771;2,66365
1076,85655;2,66324
1074,8054;2,65597
1072,75424;2,647
1070,70309;2,64015
1068,65193;2,63299
1066,60078;2,62497
1064,54962;2,61216
1062,49847;2,59848
1060,44731;2,59146
1058,39615;2,58552
1056,345;2,574
1054,29384;2,56285
1052,24269;2,55827
1050,19153;2,55435
1048,14038;2,54662
1046,08922;2,53918
1044,03807;2,53179
1041,98691;2,5211
1039,93576;2,51302
1037,8846;2,5114
1035,83345;2,50972
1033,78229;2,50669
1031,73114;2,50616
1029,67998;2,5069
1027,62882;2,50514
1025,57767;2,50475
1023,52651;2,50856
1021,47536;2,50963
1019,4242;2,50777
1017,37305;2,50654
1015,32189;2,50376
1013,27074;2,49922
1011,21958;2,49482
1009,16843;2,49149
1007,11727;2,4927
1005,06612;2,50006
1003,01496;2,5106
1000,96381;2,52331
998,91265;2,53987
996,86149;2,55645
994,81034;2,56281
992,75918;2,56216
990,70803;2,56609
988,65687;2,57362
986,60572;2,57808
984,55456;2,57693
982,50341;2,57506
980,45225;2,58056
978,4011;2,59455
976,34994;2,60619
974,29879;2,6085
972,24763;2,61006
970,19647;2,61463
968,14532;2,61642
966,09416;2,61782
964,04301;2,62618
961,99185;2,63789
959,9407;2,64975
957,88954;2,66156
955,83839;2,66546
953,78723;2,66181
951,73608;2,66166
949,68492;2,66841
947,63377;2,68077
945,58261;2,69283
943,53146;2,69548
941,4803;2,69199
939,42914;2,69073
937,37799;2,69468
935,32683;2,69676
933,27568;2,68791
931,22452;2,67809
929,17337;2,67827
927,12221;2,68365
925,07106;2,68585
923,0199;2,68504
920,96875;2,68434
918,91759;2,68274
916,86644;2,6809
914,81528;2,68088
912,76413;2,68035
910,71297;2,6774
908,66181;2,67332
906,61066;2,67167
904,5595;2,6759
902,50835;2,68228
900,45719;2,67894
898,40604;2,66949
896,35488;2,66668
894,30373;2,66231
892,25257;2,64511
890,20142;2,61489
888,15026;2,58789
886,09911;2,59207
884,04795;2,62931
881,9968;2,66539
879,94564;2,6741
877,89448;2,66936
875,84333;2,6679
873,79217;2,66634
871,74102;2,66787
869,68986;2,68199
867,63871;2,70207
865,58755;2,71738
863,5364;2,72139
861,48524;2,71883
859,43409;2,72196
857,38293;2,73267
855,33178;2,74251
853,28062;2,74755
851,22947;2,75543
849,17831;2,77457
847,12715;2,79402
845,076;2,79285
843,02484;2,78151
840,97369;2,77626
838,92253;2,77224
836,87138;2,76808
834,82022;2,77147
832,76907;2,78045
830,71791;2,78683
828,66676;2,79215
826,6156;2,79107
824,56445;2,77993
822,51329;2,77037
820,46214;2,76509
818,41098;2,771
816,35982;2,79364
814,30867;2,81063
812,25751;2,81495
810,20636;2,81807
808,1552;2,8228
806,10405;2,83291
804,05289;2,83596
802,00174;2,823
799,95058;2,80862
797,89943;2,80749
795,84827;2,82512
793,79712;2,84853
791,74596;2,85747
789,69481;2,87704
787,64365;2,91462
785,59249;2,92715
783,54134;2,92333
781,49018;2,92965
779,43903;2,94715
777,38787;2,96464
775,33672;2,96542
773,28556;2,95643
771,23441;2,95896
769,18325;2,96398
767,1321;2,95972
765,08094;2,97072
763,02979;3,00793
760,97863;3,02774
758,92748;3,00461
756,87632;2,98422
754,82516;2,98844
752,77401;3,00363
750,72285;3,02245
748,6717;3,01863
746,62054;3,00383
744,56939;3,01643
742,51823;3,04444
740,46708;3,05765
738,41592;3,07379
736,36477;3,08932
734,31361;3,08268
732,26246;3,06401
730,2113;3,06317
728,16015;3,08447
726,10899;3,08864
724,05783;3,08071
722,00668;3,08335
719,95552;3,09152
717,90437;3,10996
715,85321;3,14811
713,80206;3,16352
711,7509;3,12856
709,69975;3,09647
707,64859;3,10471
705,59744;3,11013
703,54628;3,08055
701,49513;3,04233
699,44397;3,01939
697,39281;3,01524
695,34166;3,02525
693,2905;3,02806
691,23935;3,02658
689,18819;3,03636
687,13704;3,04152
685,08588;3,03794
683,03473;3,02189
680,98357;3,01701
678,93242;3,0581
676,88126;3,10346
674,83011;3,10419
672,77895;3,0799
670,7278;3,05521
668,67664;3,02514
666,62548;3,00751
664,57433;3,02043
662,52317;3,0553
660,47202;3,08462
658,42086;3,07536
656,36971;3,04373
654,31855;3,02096
652,2674;3,01815
650,21624;3,0355
648,16509;3,03565
646,11393;2,99838
644,06278;2,94892
642,01162;2,91777
639,96047;2,94128
637,90931;3,01695
635,85815;3,0845
633,807;3,09479
631,75584;3,06536
629,70469;3,05446
627,65353;3,09129
625,60238;3,12166
623,55122;3,09753
621,50007;3,03938
619,44891;2,9996
617,39776;3,01268
615,3466;3,06987
613,29545;3,06062
611,24429;2,98168
609,19314;2,93782
607,14198;2,95481
605,09082;2,9803
603,03967;2,99579
600,98851;3,0313
598,93736;3,06596
596,8862;3,06418
594,83505;3,0484
592,78389;3,0209
590,73274;2,99018
588,68158;2,96575
586,63043;2,92441
584,57927;2,87736
582,52812;2,85438
580,47696;2,86533
578,42581;2,89829
576,37465;2,91969
574,32349;2,91557
572,27234;2,91266
570,22118;2,90614
568,17003;2,87373
566,11887;2,81505
564,06772;2,76393
562,01656;2,72799
559,96541;2,71335
557,91425;2,71812
555,8631;2,73102
553,81194;2,73645
551,76079;2,71712
549,70963;2,70019
547,65848;2,69798
545,60732;2,67783
543,55616;2,64951
541,50501;2,64691
539,45385;2,64776
537,4027;2,63578
535,35154;2,63944
533,30039;2,66036
531,24923;2,67223
529,19808;2,66585
527,14692;2,65071
525,09577;2,63903
523,04461;2,65054
520,99346;2,67864
518,9423;2,6766
516,89115;2,6403
514,83999;2,60956
512,78883;2,59728
510,73768;2,60944
508,68652;2,63679
506,63537;2,6458
504,58421;2,62163
502,53306;2,60493
500,4819;2,62928
498,43075;2,65971
496,37959;2,6482
494,32844;2,59925
492,27728;2,55986
490,22613;2,5372
488,17497;2,50502
486,12382;2,47668
484,07266;2,4604
482,0215;2,44339
479,97035;2,42392
477,91919;2,39972
475,86804;2,37277
473,81688;2,35668
471,76573;2,35886
469,71457;2,36735
467,66342;2,37424
465,61226;2,38631
463,56111;2,40178
461,50995;2,41055
459,4588;2,40991
457,40764;2,39994
455,35649;2,38949
453,30533;2,38324
451,25417;2,37432
449,20302;2,36331
447,15186;2,36481
445,10071;2,37849
443,04955;2,37694
440,9984;2,36224
438,94724;2,36023
436,89609;2,38338
434,84493;2,42463
432,79378;2,44726
430,74262;2,42943
428,69147;2,40591
426,64031;2,41786
424,58916;2,45468
422,538;2,46005
420,48684;2,41676
418,43569;2,40147
416,38453;2,42962
414,33338;2,43146
412,28222;2,42573
410,23107;2,46464
408,17991;2,50156
406,12876;2,4794
404,0776;2,45097
402,02645;2,46177
399,97529;2,48306
