Data from redochrewhite_Reflection__0__07.txt Node;
"Date: Wed Sep 10 11:30:53 CEST 2025 User: sycur Spectrometer: SR400348 Trigger mode: 0 Integration Time (sec): 1,000000E-2 Scans to average: 10 Electric dark correction enabled: true Nonlinearity correction enabled: false Boxcar width: 10 XAxis mode: Wavelengths Number of Pixels in Spectrum: 3648 >>>>>Begin Spectral Data<<<<<";
186,01;64,99
186,281;64,81
186,552;35,54
186,822;108,02
187,093;633,33
187,364;534,4
187,635;109,8
187,905;110,47
188,176;82,5
188,447;82,45
188,717;71,05
188,988;70,41
189,258;64,35
189,529;63,68
189,8;63,97
190,07;65,83
190,341;59,81
190,611;59,26
190,882;57,88
191,152;56,32
191,423;54,75
191,693;54,14
191,964;52,74
192,234;56
192,505;51,77
192,775;54,37
193,045;52,98
193,316;52,66
193,586;52,79
193,856;52,55
194,127;52,52
194,397;54,27
194,667;53,67
194,938;53,52
195,208;55,46
195,478;55,2
195,748;55,23
196,019;56,33
196,289;56,27
196,559;55,51
196,829;55,94
197,099;54,94
197,37;54,73
197,64;56,17
197,91;55,27
198,18;55,84
198,45;55,22
198,72;54,79
198,99;55,35
199,26;53,83
199,53;54,37
199,8;54,29
200,07;52,96
200,34;53,36
200,61;53,11
200,88;52,23
201,15;51,78
201,42;51,61
201,69;51,07
201,96;50,87
202,23;51,37
202,499;51,81
202,769;51,97
203,039;51,84
203,309;51,14
203,579;50,67
203,849;50,35
204,118;50,22
204,388;50,41
204,658;50,38
204,927;50,58
205,197;50,21
205,467;50,25
205,736;50,44
206,006;49,93
206,276;50,21
206,545;49,99
206,815;50,5
207,085;50,27
207,354;50,5
207,624;50,1
207,893;49,09
208,163;48,58
208,432;48,51
208,702;48,38
208,971;48,19
209,241;48,22
209,51;48,33
209,78;48,15
210,049;48,1
210,318;47,83
210,588;47,87
210,857;47,96
211,127;47,57
211,396;47,2
211,665;47,31
211,935;47,17
212,204;47,15
212,473;46,81
212,742;46,52
213,012;46,47
213,281;46,55
213,55;46,65
213,819;46,44
214,088;46,24
214,358;46,16
214,627;46,04
214,896;45,97
215,165;45,65
215,434;45,56
215,703;45,18
215,972;45,04
216,241;44,93
216,51;44,67
216,779;44,66
217,048;44,71
217,317;44,48
217,586;44,44
217,855;44,53
218,124;44,47
218,393;44,4
218,662;44,22
218,931;44,16
219,2;44,15
219,469;44,2
219,738;44,36
220,006;44,24
220,275;44,12
220,544;44,06
220,813;44,1
221,082;43,99
221,35;44,04
221,619;43,99
221,888;43,85
222,157;43,78
222,425;43,83
222,694;43,57
222,963;43,64
223,231;43,43
223,5;43,44
223,769;43,3
224,037;43,27
224,306;43,11
224,574;43,06
224,843;42,88
225,111;42,66
225,38;42,38
225,648;42,26
225,917;42,18
226,185;42,04
226,454;41,91
226,722;41,87
226,991;41,73
227,259;41,67
227,528;41,54
227,796;41,57
228,064;41,3
228,333;41,34
228,601;41,14
228,869;41,15
229,138;40,87
229,406;40,83
229,674;40,72
229,942;40,76
230,211;40,72
230,479;40,65
230,747;40,64
231,015;40,49
231,283;40,43
231,552;40,42
231,82;40,4
232,088;40,3
232,356;40,21
232,624;40,14
232,892;40,08
233,16;39,95
233,428;39,88
233,696;39,87
233,964;39,78
234,232;39,81
234,5;39,68
234,768;39,67
235,036;39,63
235,304;39,64
235,572;39,57
235,84;39,45
236,108;39,44
236,376;39,41
236,644;39,41
236,912;39,39
237,179;39,31
237,447;39,23
237,715;39,17
237,983;39,12
238,251;39,02
238,518;38,93
238,786;38,92
239,054;38,81
239,322;38,75
239,589;38,71
239,857;38,63
240,125;38,65
240,392;38,6
240,66;38,55
240,927;38,43
241,195;38,38
241,463;38,38
241,73;38,31
241,998;38,26
242,265;38,22
242,533;38,14
242,8;38,06
243,068;37,99
243,335;37,98
243,603;37,95
243,87;37,95
244,138;37,94
244,405;37,92
244,672;37,88
244,94;37,83
245,207;37,79
245,474;37,78
245,742;37,74
246,009;37,67
246,276;37,64
246,544;37,63
246,811;37,55
247,078;37,47
247,345;37,45
247,613;37,38
247,88;37,32
248,147;37,28
248,414;37,26
248,681;37,22
248,948;37,21
249,215;37,15
249,483;37,12
249,75;37,04
250,017;36,96
250,284;36,93
250,551;36,91
250,818;36,82
251,085;36,72
251,352;36,64
251,619;36,62
251,886;36,53
252,153;36,47
252,42;36,45
252,687;36,4
252,953;36,33
253,22;36,29
253,487;36,3
253,754;36,25
254,021;36,23
254,288;36,18
254,555;36,1
254,821;36,07
255,088;35,96
255,355;35,92
255,622;35,9
255,888;35,86
256,155;35,79
256,422;35,8
256,688;35,76
256,955;35,71
257,222;35,67
257,488;35,65
257,755;35,62
258,022;35,56
258,288;35,51
258,555;35,47
258,821;35,42
259,088;35,33
259,354;35,3
259,621;35,22
259,887;35,23
260,154;35,21
260,42;35,13
260,687;35,14
260,953;35,11
261,219;35,1
261,486;35,09
261,752;35,04
262,019;35,01
262,285;34,99
262,551;34,98
262,818;34,96
263,084;34,94
263,35;34,9
263,616;34,85
263,883;34,86
264,149;34,84
264,415;34,81
264,681;34,84
264,947;34,85
265,214;34,81
265,48;34,81
265,746;34,78
266,012;34,82
266,278;34,79
266,544;34,8
266,81;34,8
267,076;34,8
267,342;34,81
267,608;34,76
267,874;34,72
268,14;34,71
268,406;34,69
268,672;34,69
268,938;34,72
269,204;34,72
269,47;34,73
269,736;34,68
270,002;34,66
270,268;34,62
270,533;34,61
270,799;34,62
271,065;34,58
271,331;34,59
271,597;34,58
271,862;34,59
272,128;34,59
272,394;34,57
272,66;34,5
272,925;34,5
273,191;34,49
273,457;34,51
273,722;34,47
273,988;34,45
274,254;34,44
274,519;34,4
274,785;34,39
275,05;34,37
275,316;34,39
275,582;34,41
275,847;34,39
276,113;34,35
276,378;34,35
276,644;34,37
276,909;34,33
277,174;34,32
277,44;34,34
277,705;34,32
277,971;34,26
278,236;34,29
278,501;34,3
278,767;34,3
279,032;34,31
279,297;34,32
279,563;34,29
279,828;34,3
280,093;34,27
280,358;34,26
280,624;34,27
280,889;34,26
281,154;34,27
281,419;34,27
281,684;34,26
281,95;34,22
282,215;34,2
282,48;34,21
282,745;34,23
283,01;34,17
283,275;34,14
283,54;34,14
283,805;34,11
284,07;34,05
284,335;34,04
284,6;33,99
284,865;34
285,13;34
285,395;33,95
285,66;33,94
285,925;33,93
286,19;33,91
286,455;33,9
286,72;33,85
286,985;33,84
287,249;33,82
287,514;33,82
287,779;33,79
288,044;33,77
288,309;33,74
288,573;33,77
288,838;33,78
289,103;33,75
289,367;33,74
289,632;33,76
289,897;33,73
290,161;33,72
290,426;33,68
290,691;33,67
290,955;33,67
291,22;33,61
291,484;33,59
291,749;33,54
292,014;33,53
292,278;33,53
292,543;33,53
292,807;33,53
293,072;33,51
293,336;33,47
293,6;33,43
293,865;33,39
294,129;33,36
294,394;33,35
294,658;33,35
294,922;33,33
295,187;33,33
295,451;33,32
295,715;33,3
295,98;33,28
296,244;33,27
296,508;33,25
296,773;33,24
297,037;33,25
297,301;33,22
297,565;33,24
297,829;33,18
298,094;33,15
298,358;33,14
298,622;33,12
298,886;33,17
299,15;33,17
299,414;33,1
299,678;33,06
299,942;33,02
300,206;32,95
300,47;32,94
300,734;32,88
300,998;32,85
301,262;32,84
301,526;32,8
301,79;32,79
302,054;32,76
302,318;32,75
302,582;32,73
302,846;32,7
303,11;32,63
303,374;32,61
303,637;32,6
303,901;32,55
304,165;32,51
304,429;32,4
304,693;32,34
304,956;32,37
305,22;32,36
305,484;32,34
305,747;32,35
306,011;32,36
306,275;32,33
306,538;32,31
306,802;32,3
307,066;32,3
307,329;32,25
307,593;32,25
307,856;32,21
308,12;32,15
308,384;32,14
308,647;32,1
308,911;32,09
309,174;32,06
309,438;32,03
309,701;32
309,964;31,97
310,228;31,97
310,491;31,92
310,755;31,89
311,018;31,88
311,281;31,84
311,545;31,76
311,808;31,73
312,071;31,69
312,335;31,62
312,598;31,58
312,861;31,55
313,124;31,5
313,388;31,48
313,651;31,47
313,914;31,41
314,177;31,4
314,44;31,35
314,704;31,28
314,967;31,26
315,23;31,26
315,493;31,26
315,756;31,21
316,019;31,17
316,282;31,11
316,545;31,06
316,808;31,03
317,071;31,01
317,334;30,96
317,597;30,96
317,86;30,97
318,123;30,94
318,386;30,9
318,649;30,84
318,912;30,82
319,175;30,75
319,437;30,76
319,7;30,74
319,963;30,74
320,226;30,71
320,489;30,64
320,751;30,61
321,014;30,56
321,277;30,54
321,54;30,49
321,802;30,49
322,065;30,44
322,328;30,39
322,59;30,37
322,853;30,37
323,116;30,33
323,378;30,27
323,641;30,19
323,903;30,16
324,166;30,16
324,428;30,08
324,691;30,06
324,953;30,02
325,216;29,99
325,478;29,96
325,741;29,96
326,003;29,96
326,266;29,89
326,528;29,84
326,791;29,77
327,053;29,75
327,315;29,7
327,578;29,69
327,84;29,63
328,102;29,57
328,365;29,54
328,627;29,49
328,889;29,49
329,151;29,51
329,414;29,5
329,676;29,48
329,938;29,48
330,2;29,43
330,462;29,38
330,725;29,3
330,987;29,27
331,249;29,22
331,511;29,19
331,773;29,17
332,035;29,2
332,297;29,21
332,559;29,16
332,821;29,11
333,083;29,09
333,345;29,06
333,607;29,09
333,869;29,06
334,131;29,07
334,393;29,02
334,655;28,97
334,917;28,96
335,179;28,92
335,44;28,9
335,702;28,89
335,964;28,88
336,226;28,91
336,488;28,86
336,749;28,84
337,011;28,82
337,273;28,8
337,535;28,75
337,796;28,73
338,058;28,77
338,32;28,76
338,581;28,7
338,843;28,7
339,105;28,66
339,366;28,64
339,628;28,57
339,889;28,55
340,151;28,56
340,412;28,51
340,674;28,46
340,935;28,43
341,197;28,41
341,458;28,37
341,72;28,32
341,981;28,3
342,243;28,29
342,504;28,25
342,766;28,21
343,027;28,18
343,288;28,16
343,55;28,1
343,811;28,08
344,072;28,03
344,334;28,01
344,595;27,99
344,856;27,94
345,117;27,95
345,379;27,9
345,64;27,86
345,901;27,82
346,162;27,82
346,423;27,78
346,684;27,72
346,946;27,67
347,207;27,62
347,468;27,59
347,729;27,5
347,99;27,47
348,251;27,47
348,512;27,44
348,773;27,38
349,034;27,33
349,295;27,31
349,556;27,32
349,817;27,23
350,078;27,19
350,339;27,12
350,6;27,1
350,86;27,1
351,121;27,03
351,382;26,94
351,643;26,84
351,904;26,78
352,165;26,77
352,425;26,74
352,686;26,69
352,947;26,68
353,208;26,69
353,468;26,64
353,729;26,62
353,99;26,6
354,25;26,58
354,511;26,54
354,772;26,53
355,032;26,54
355,293;26,53
355,553;26,49
355,814;26,53
356,074;26,45
356,335;26,41
356,596;26,42
356,856;26,43
357,116;26,44
357,377;26,48
357,637;26,47
357,898;26,5
358,158;26,49
358,419;26,46
358,679;26,44
358,939;26,4
359,2;26,36
359,46;26,32
359,72;26,3
359,981;26,26
360,241;26,18
360,501;26,11
360,761;26,1
361,022;26,08
361,282;25,99
361,542;25,97
361,802;25,91
362,062;25,84
362,323;25,84
362,583;25,85
362,843;25,79
363,103;25,77
363,363;25,75
363,623;25,68
363,883;25,63
364,143;25,62
364,403;25,64
364,663;25,6
364,923;25,63
365,183;25,59
365,443;25,62
365,703;25,63
365,963;25,64
366,223;25,63
366,483;25,57
366,743;25,61
367,002;25,59
367,262;25,61
367,522;25,64
367,782;25,59
368,042;25,56
368,301;25,56
368,561;25,53
368,821;25,48
369,081;25,5
369,34;25,5
369,6;25,41
369,86;25,4
370,119;25,39
370,379;25,34
370,638;25,32
370,898;25,34
371,158;25,31
371,417;25,28
371,677;25,25
371,936;25,25
372,196;25,23
372,455;25,27
372,715;25,24
372,974;25,24
373,234;25,19
373,493;25,23
373,753;25,25
374,012;25,24
374,271;25,24
374,531;25,22
374,79;25,21
375,049;25,24
375,309;25,17
375,568;25,11
375,827;25,1
376,086;25,03
376,346;24,99
376,605;25,02
376,864;25,03
377,123;25,02
377,383;24,98
377,642;24,99
377,901;24,95
378,16;24,89
378,419;24,83
378,678;24,84
378,937;24,79
379,196;24,73
379,455;24,72
379,714;24,68
379,973;24,71
380,232;24,66
380,491;24,63
380,75;24,65
381,009;24,65
381,268;24,65
381,527;24,66
381,786;24,66
382,045;24,57
382,304;24,55
382,563;24,56
382,821;24,58
383,08;24,52
383,339;24,53
383,598;24,57
383,857;24,57
384,115;24,56
384,374;24,48
384,633;24,45
384,891;24,45
385,15;24,43
385,409;24,44
385,667;24,48
385,926;24,47
386,185;24,45
386,443;24,48
386,702;24,46
386,96;24,47
387,219;24,44
387,477;24,5
387,736;24,47
387,994;24,41
388,253;24,39
388,511;24,36
388,77;24,3
389,028;24,28
389,287;24,27
389,545;24,31
389,803;24,33
390,062;24,33
390,32;24,29
390,578;24,29
390,837;24,26
391,095;24,25
391,353;24,22
391,612;24,26
391,87;24,21
392,128;24,17
392,386;24,09
392,644;24,11
392,903;24,04
393,161;24
393,419;23,99
393,677;23,99
393,935;23,99
394,193;23,94
394,451;23,94
394,709;23,92
394,967;23,91
395,225;23,91
395,483;23,93
395,741;23,97
395,999;23,96
396,257;23,96
396,515;23,93
396,773;23,98
397,031;23,92
397,289;23,97
397,547;23,96
397,805;24,02
398,062;24,01
398,32;23,96
398,578;23,96
398,836;23,99
399,094;23,97
399,351;23,95
399,609;24,01
399,867;24,05
400,124;24,02
400,382;24
400,64;24,01
400,897;24
401,155;23,97
401,413;23,94
401,67;23,87
401,928;23,86
402,185;23,83
402,443;23,85
402,701;23,86
402,958;23,87
403,216;23,87
403,473;23,88
403,73;23,92
403,988;23,96
404,245;23,94
404,503;23,92
404,76;23,92
405,018;23,89
405,275;23,87
405,532;23,89
405,79;23,88
406,047;23,87
406,304;23,9
406,561;23,89
406,819;23,96
407,076;23,95
407,333;23,97
407,59;24,02
407,848;24
408,105;23,96
408,362;24,02
408,619;24,06
408,876;23,99
409,133;23,95
409,39;23,92
409,647;23,93
409,904;23,9
410,161;23,94
410,418;23,92
410,675;23,91
410,932;23,87
411,189;23,89
411,446;23,85
411,703;23,77
411,96;23,77
412,217;23,74
412,474;23,74
412,731;23,73
412,988;23,7
413,245;23,73
413,501;23,72
413,758;23,67
414,015;23,62
414,272;23,66
414,529;23,74
414,785;23,74
415,042;23,79
415,299;23,84
415,555;23,84
415,812;23,82
416,069;23,76
416,325;23,8
416,582;23,8
416,838;23,85
417,095;23,84
417,352;23,86
417,608;23,89
417,865;23,92
418,121;23,89
418,378;23,91
418,634;23,86
418,891;23,91
419,147;23,97
419,403;24,01
419,66;24
419,916;24,01
420,173;23,94
420,429;23,86
420,685;23,94
420,942;23,93
421,198;23,95
421,454;24,03
421,711;24
421,967;24,03
422,223;24,04
422,479;24,07
422,735;24,08
422,992;24,04
423,248;24,01
423,504;24,04
423,76;24,04
424,016;24,05
424,272;24,01
424,528;23,97
424,784;23,93
425,041;23,95
425,297;23,97
425,553;24,06
425,809;24,11
426,065;24,06
426,32;24,07
426,576;24,07
426,832;24,06
427,088;24,11
427,344;24,06
427,6;24,11
427,856;24,15
428,112;24,16
428,368;24,17
428,623;24,23
428,879;24,24
429,135;24,26
429,391;24,28
429,646;24,31
429,902;24,33
430,158;24,36
430,414;24,37
430,669;24,42
430,925;24,47
431,181;24,47
431,436;24,54
431,692;24,52
431,947;24,58
432,203;24,62
432,458;24,6
432,714;24,68
432,97;24,63
433,225;24,62
433,481;24,59
433,736;24,63
433,991;24,66
434,247;24,65
434,502;24,67
434,758;24,73
435,013;24,69
435,268;24,7
435,524;24,67
435,779;24,63
436,034;24,58
436,29;24,58
436,545;24,58
436,8;24,55
437,056;24,59
437,311;24,57
437,566;24,55
437,821;24,59
438,076;24,55
438,331;24,59
438,587;24,63
438,842;24,7
439,097;24,75
439,352;24,75
439,607;24,78
439,862;24,76
440,117;24,73
440,372;24,71
440,627;24,74
440,882;24,8
441,137;24,84
441,392;24,87
441,647;24,91
441,902;25
442,157;25,03
442,412;25,08
442,667;25,12
442,921;25,14
443,176;25,14
443,431;25,19
443,686;25,25
443,941;25,24
444,195;25,26
444,45;25,2
444,705;25,24
444,96;25,29
445,214;25,32
445,469;25,35
445,724;25,36
445,978;25,41
446,233;25,45
446,487;25,47
446,742;25,47
446,997;25,47
447,251;25,41
447,506;25,41
447,76;25,39
448,015;25,43
448,269;25,49
448,524;25,53
448,778;25,55
449,033;25,53
449,287;25,57
449,541;25,58
449,796;25,65
450,05;25,63
450,305;25,63
450,559;25,68
450,813;25,71
451,067;25,75
451,322;25,73
451,576;25,75
451,83;25,76
452,084;25,81
452,339;25,85
452,593;25,9
452,847;25,93
453,101;25,9
453,355;25,95
453,609;25,94
453,864;25,95
454,118;25,93
454,372;25,91
454,626;25,94
454,88;25,99
455,134;26
455,388;26,04
455,642;26,07
455,896;26,1
456,15;26,07
456,404;26,12
456,658;26,14
456,912;26,12
457,165;26,12
457,419;26,09
457,673;26,07
457,927;26,09
458,181;26,14
458,435;26,16
458,688;26,17
458,942;26,19
459,196;26,19
459,45;26,24
459,703;26,25
459,957;26,27
460,211;26,27
460,464;26,29
460,718;26,29
460,972;26,31
461,225;26,27
461,479;26,34
461,732;26,35
461,986;26,34
462,239;26,4
462,493;26,46
462,746;26,56
463;26,57
463,253;26,59
463,507;26,57
463,76;26,63
464,014;26,62
464,267;26,64
464,52;26,7
464,774;26,7
465,027;26,8
465,28;26,86
465,534;26,89
465,787;26,91
466,04;26,92
466,294;26,91
466,547;26,95
466,8;27
467,053;27,02
467,306;27,1
467,56;27,14
467,813;27,14
468,066;27,14
468,319;27,17
468,572;27,19
468,825;27,23
469,078;27,27
469,331;27,32
469,584;27,34
469,837;27,33
470,09;27,4
470,343;27,4
470,596;27,43
470,849;27,43
471,102;27,45
471,355;27,53
471,608;27,62
471,861;27,7
472,114;27,73
472,367;27,78
472,619;27,83
472,872;27,87
473,125;27,94
473,378;28
473,631;28,09
473,883;28,14
474,136;28,17
474,389;28,23
474,641;28,25
474,894;28,34
475,147;28,41
475,399;28,43
475,652;28,53
475,905;28,58
476,157;28,65
476,41;28,72
476,662;28,78
476,915;28,83
477,167;28,85
477,42;28,89
477,672;28,95
477,925;28,98
478,177;28,99
478,43;29,05
478,682;29,07
478,934;29,09
479,187;29,13
479,439;29,17
479,691;29,21
479,944;29,25
480,196;29,23
480,448;29,27
480,701;29,33
480,953;29,36
481,205;29,4
481,457;29,42
481,709;29,48
481,962;29,51
482,214;29,56
482,466;29,63
482,718;29,73
482,97;29,82
483,222;29,93
483,474;30,05
483,726;30,13
483,978;30,21
484,23;30,3
484,482;30,35
484,734;30,41
484,986;30,45
485,238;30,49
485,49;30,52
485,742;30,55
485,994;30,56
486,246;30,57
486,498;30,56
486,75;30,59
487,001;30,59
487,253;30,64
487,505;30,64
487,757;30,66
488,009;30,63
488,26;30,64
488,512;30,62
488,764;30,58
489,015;30,57
489,267;30,54
489,519;30,5
489,77;30,48
490,022;30,49
490,274;30,47
490,525;30,51
490,777;30,56
491,028;30,59
491,28;30,59
491,531;30,63
491,783;30,67
492,034;30,72
492,286;30,75
492,537;30,8
492,789;30,81
493,04;30,84
493,291;30,88
493,543;30,91
493,794;30,92
494,045;30,95
494,297;30,97
494,548;31,04
494,799;31,06
495,051;31,14
495,302;31,15
495,553;31,19
495,804;31,23
496,056;31,24
496,307;31,25
496,558;31,32
496,809;31,33
497,06;31,38
497,311;31,38
497,562;31,4
497,813;31,38
498,064;31,45
498,316;31,45
498,567;31,49
498,818;31,48
499,069;31,51
499,319;31,55
499,57;31,56
499,821;31,56
500,072;31,6
500,323;31,61
500,574;31,62
500,825;31,67
501,076;31,65
501,327;31,68
501,577;31,73
501,828;31,73
502,079;31,78
502,33;31,78
502,58;31,79
502,831;31,83
503,082;31,87
503,333;31,88
503,583;31,94
503,834;31,97
504,084;32
504,335;32,02
504,586;32,04
504,836;32,07
505,087;32,12
505,337;32,15
505,588;32,15
505,838;32,19
506,089;32,22
506,339;32,24
506,59;32,27
506,84;32,27
507,091;32,33
507,341;32,32
507,591;32,36
507,842;32,4
508,092;32,43
508,343;32,45
508,593;32,47
508,843;32,45
509,093;32,48
509,344;32,5
509,594;32,54
509,844;32,56
510,094;32,58
510,345;32,59
510,595;32,59
510,845;32,62
511,095;32,64
511,345;32,69
511,595;32,74
511,845;32,77
512,095;32,8
512,345;32,79
512,595;32,82
512,845;32,82
513,095;32,86
513,345;32,88
513,595;32,9
513,845;32,92
514,095;32,96
514,345;32,99
514,595;33,02
514,845;33,03
515,095;33,04
515,345;33,08
515,594;33,11
515,844;33,12
516,094;33,14
516,344;33,16
516,593;33,13
516,843;33,12
517,093;33,12
517,343;33,14
517,592;33,16
517,842;33,2
518,092;33,24
518,341;33,23
518,591;33,24
518,84;33,25
519,09;33,29
519,34;33,32
519,589;33,32
519,839;33,34
520,088;33,37
520,338;33,38
520,587;33,38
520,836;33,37
521,086;33,41
521,335;33,45
521,585;33,48
521,834;33,52
522,083;33,57
522,333;33,59
522,582;33,66
522,831;33,71
523,081;33,72
523,33;33,76
523,579;33,84
523,828;33,87
524,078;33,91
524,327;33,95
524,576;33,96
524,825;33,99
525,074;34,03
525,323;34,04
525,573;34,08
525,822;34,14
526,071;34,2
526,32;34,22
526,569;34,26
526,818;34,29
527,067;34,33
527,316;34,35
527,565;34,41
527,814;34,42
528,063;34,42
528,312;34,47
528,56;34,5
528,809;34,5
529,058;34,55
529,307;34,63
529,556;34,67
529,805;34,73
530,053;34,79
530,302;34,86
530,551;34,94
530,8;34,97
531,048;35,03
531,297;35,04
531,546;35,12
531,794;35,17
532,043;35,2
532,292;35,26
532,54;35,3
532,789;35,34
533,037;35,41
533,286;35,46
533,535;35,53
533,783;35,53
534,032;35,6
534,28;35,64
534,528;35,66
534,777;35,71
535,025;35,74
535,274;35,79
535,522;35,82
535,771;35,85
536,019;35,92
536,267;35,96
536,516;36,06
536,764;36,13
537,012;36,2
537,26;36,26
537,509;36,3
537,757;36,35
538,005;36,42
538,253;36,44
538,501;36,52
538,75;36,54
538,998;36,63
539,246;36,7
539,494;36,74
539,742;36,8
539,99;36,87
540,238;36,91
540,486;36,96
540,734;36,98
540,982;37,03
541,23;37,1
541,478;37,16
541,726;37,18
541,974;37,21
542,222;37,25
542,47;37,3
542,718;37,37
542,966;37,42
543,213;37,47
543,461;37,55
543,709;37,62
543,957;37,71
544,205;37,8
544,452;37,88
544,7;37,91
544,948;37,98
545,196;38,03
545,443;38,13
545,691;38,21
545,939;38,32
546,186;38,42
546,434;38,48
546,681;38,55
546,929;38,64
547,176;38,7
547,424;38,76
547,671;38,85
547,919;38,91
548,166;39,03
548,414;39,16
548,661;39,23
548,909;39,29
549,156;39,36
549,404;39,39
549,651;39,48
549,898;39,62
550,146;39,72
550,393;39,83
550,64;39,93
550,888;40,04
551,135;40,16
551,382;40,22
551,629;40,35
551,876;40,44
552,124;40,57
552,371;40,72
552,618;40,84
552,865;40,97
553,112;41,09
553,359;41,19
553,606;41,26
553,854;41,38
554,101;41,49
554,348;41,63
554,595;41,8
554,842;41,9
555,089;41,99
555,336;42,1
555,582;42,21
555,829;42,32
556,076;42,42
556,323;42,51
556,57;42,65
556,817;42,77
557,064;42,89
557,311;42,98
557,557;43,06
557,804;43,18
558,051;43,29
558,298;43,4
558,544;43,53
558,791;43,66
559,038;43,77
559,284;43,9
559,531;44,01
559,778;44,1
560,024;44,24
560,271;44,35
560,517;44,49
560,764;44,6
561,011;44,7
561,257;44,84
561,504;44,98
561,75;45,09
561,997;45,18
562,243;45,33
562,489;45,48
562,736;45,62
562,982;45,73
563,229;45,88
563,475;46,04
563,721;46,18
563,968;46,36
564,214;46,53
564,46;46,68
564,707;46,83
564,953;46,99
565,199;47,12
565,445;47,3
565,691;47,43
565,938;47,58
566,184;47,75
566,43;47,9
566,676;48,04
566,922;48,21
567,168;48,36
567,414;48,48
567,66;48,61
567,906;48,77
568,152;48,93
568,398;49,09
568,644;49,22
568,89;49,32
569,136;49,43
569,382;49,55
569,628;49,65
569,874;49,79
570,12;49,9
570,366;50,04
570,612;50,19
570,857;50,32
571,103;50,44
571,349;50,59
571,595;50,74
571,84;50,89
572,086;51,01
572,332;51,18
572,578;51,31
572,823;51,45
573,069;51,55
573,315;51,69
573,56;51,83
573,806;51,95
574,051;52,1
574,297;52,24
574,542;52,39
574,788;52,52
575,034;52,67
575,279;52,81
575,524;52,96
575,77;53,09
576,015;53,22
576,261;53,37
576,506;53,51
576,752;53,62
576,997;53,74
577,242;53,88
577,488;54
577,733;54,13
577,978;54,3
578,223;54,5
578,469;54,65
578,714;54,78
578,959;54,93
579,204;55,09
579,45;55,21
579,695;55,34
579,94;55,49
580,185;55,59
580,43;55,75
580,675;55,87
580,92;56
581,165;56,14
581,41;56,29
581,655;56,41
581,9;56,56
582,145;56,69
582,39;56,81
582,635;56,95
582,88;57,1
583,125;57,22
583,37;57,34
583,615;57,45
583,86;57,6
584,105;57,73
584,349;57,88
584,594;58,03
584,839;58,19
585,084;58,33
585,328;58,52
585,573;58,66
585,818;58,78
586,063;58,92
586,307;59,04
586,552;59,15
586,797;59,29
587,041;59,38
587,286;59,48
587,53;59,6
587,775;59,75
588,019;59,84
588,264;59,96
588,508;60,1
588,753;60,25
588,997;60,36
589,242;60,49
589,486;60,6
589,731;60,75
589,975;60,88
590,22;61,04
590,464;61,13
590,708;61,27
590,953;61,41
591,197;61,5
591,441;61,61
591,685;61,74
591,93;61,84
592,174;61,96
592,418;62,13
592,662;62,25
592,907;62,31
593,151;62,41
593,395;62,49
593,639;62,57
593,883;62,68
594,127;62,79
594,371;62,87
594,615;62,95
594,859;63,06
595,103;63,16
595,347;63,25
595,591;63,33
595,835;63,4
596,079;63,51
596,323;63,61
596,567;63,72
596,811;63,79
597,055;63,86
597,299;63,94
597,542;63,99
597,786;64,1
598,03;64,17
598,274;64,27
598,518;64,36
598,761;64,44
599,005;64,47
599,249;64,54
599,492;64,62
599,736;64,71
599,98;64,81
600,223;64,85
600,467;64,94
600,711;65
600,954;65,08
601,198;65,15
601,441;65,21
601,685;65,26
601,928;65,34
602,172;65,42
602,415;65,5
602,659;65,59
602,902;65,65
603,145;65,76
603,389;65,83
603,632;65,9
603,876;65,98
604,119;66,06
604,362;66,12
604,606;66,2
604,849;66,27
605,092;66,31
605,335;66,39
605,579;66,42
605,822;66,51
606,065;66,56
606,308;66,61
606,551;66,69
606,794;66,74
607,037;66,82
607,281;66,89
607,524;66,94
607,767;66,99
608,01;67,05
608,253;67,09
608,496;67,14
608,739;67,2
608,982;67,23
609,225;67,27
609,468;67,32
609,711;67,34
609,953;67,41
610,196;67,47
610,439;67,49
610,682;67,56
610,925;67,6
611,168;67,62
611,41;67,67
611,653;67,71
611,896;67,75
612,139;67,78
612,381;67,85
612,624;67,88
612,867;67,93
613,109;67,99
613,352;68,01
613,595;68,08
613,837;68,12
614,08;68,18
614,322;68,25
614,565;68,32
614,807;68,39
615,05;68,4
615,292;68,44
615,535;68,5
615,777;68,53
616,02;68,57
616,262;68,64
616,505;68,69
616,747;68,73
616,989;68,83
617,232;68,87
617,474;68,9
617,716;68,95
617,959;68,98
618,201;68,96
618,443;69,03
618,685;69,02
618,927;69,06
619,17;69,06
619,412;69,09
619,654;69,11
619,896;69,13
620,138;69,15
620,38;69,19
620,622;69,25
620,864;69,28
621,107;69,3
621,349;69,34
621,591;69,37
621,833;69,37
622,075;69,36
622,316;69,41
622,558;69,46
622,8;69,48
623,042;69,52
623,284;69,59
623,526;69,62
623,768;69,67
624,01;69,73
624,251;69,78
624,493;69,83
624,735;69,88
624,977;69,91
625,218;69,97
625,46;69,98
625,702;69,98
625,943;70,01
626,185;70,02
626,427;70,02
626,668;70,03
626,91;70,1
627,152;70,16
627,393;70,16
627,635;70,17
627,876;70,22
628,118;70,25
628,359;70,29
628,601;70,32
628,842;70,33
629,084;70,35
629,325;70,33
629,566;70,34
629,808;70,33
630,049;70,36
630,29;70,39
630,532;70,4
630,773;70,44
631,014;70,47
631,256;70,52
631,497;70,58
631,738;70,61
631,979;70,59
632,22;70,57
632,462;70,59
632,703;70,62
632,944;70,63
633,185;70,65
633,426;70,65
633,667;70,66
633,908;70,69
634,149;70,7
634,39;70,78
634,631;70,79
634,872;70,83
635,113;70,83
635,354;70,86
635,595;70,87
635,836;70,87
636,077;70,89
636,318;70,94
636,559;70,96
636,8;71
637,04;71,03
637,281;71,02
637,522;71,05
637,763;71,06
638,003;71,08
638,244;71,06
638,485;71,1
638,726;71,11
638,966;71,11
639,207;71,16
639,448;71,14
639,688;71,15
639,929;71,18
640,169;71,22
640,41;71,22
640,65;71,25
640,891;71,25
641,131;71,28
641,372;71,29
641,612;71,29
641,853;71,31
642,093;71,31
642,334;71,36
642,574;71,4
642,814;71,4
643,055;71,44
643,295;71,48
643,535;71,49
643,776;71,52
644,016;71,52
644,256;71,53
644,496;71,56
644,737;71,6
644,977;71,61
645,217;71,66
645,457;71,66
645,697;71,68
645,938;71,72
646,178;71,74
646,418;71,74
646,658;71,78
646,898;71,78
647,138;71,83
647,378;71,84
647,618;71,86
647,858;71,87
648,098;71,9
648,338;71,91
648,578;71,93
648,818;71,98
649,057;71,99
649,297;72,01
649,537;72,05
649,777;72,05
650,017;72,06
650,257;72,01
650,496;72,04
650,736;72,09
650,976;72,1
651,216;72,08
651,455;72,14
651,695;72,17
651,935;72,16
652,174;72,18
652,414;72,28
652,653;72,3
652,893;72,27
653,133;72,23
653,372;72,2
653,612;72,11
653,851;72,09
654,091;72,05
654,33;72,03
654,57;71,98
654,809;71,94
655,048;71,9
655,288;71,88
655,527;71,81
655,767;71,76
656,006;71,72
656,245;71,71
656,485;71,67
656,724;71,65
656,963;71,63
657,202;71,61
657,442;71,57
657,681;71,55
657,92;71,55
658,159;71,53
658,398;71,52
658,637;71,55
658,877;71,54
659,116;71,56
659,355;71,54
659,594;71,61
659,833;71,68
660,072;71,81
660,311;71,93
660,55;72,09
660,789;72,2
661,028;72,34
661,267;72,4
661,506;72,49
661,744;72,58
661,983;72,7
662,222;72,75
662,461;72,79
662,7;72,78
662,939;72,8
663,177;72,82
663,416;72,81
663,655;72,78
663,894;72,8
664,132;72,85
664,371;72,88
664,61;72,88
664,848;72,9
665,087;72,9
665,326;72,9
665,564;72,95
665,803;72,98
666,041;73,01
666,28;73,07
666,518;73,08
666,757;73,08
666,995;73,09
667,234;73,1
667,472;73,13
667,711;73,13
667,949;73,18
668,187;73,17
668,426;73,23
668,664;73,28
668,902;73,28
669,141;73,24
669,379;73,27
669,617;73,29
669,856;73,3
670,094;73,28
670,332;73,27
670,57;73,24
670,808;73,26
671,046;73,25
671,285;73,29
671,523;73,28
671,761;73,35
671,999;73,34
672,237;73,37
672,475;73,41
672,713;73,46
672,951;73,45
673,189;73,46
673,427;73,44
673,665;73,45
673,903;73,46
674,141;73,53
674,379;73,57
674,617;73,57
674,854;73,6
675,092;73,66
675,33;73,67
675,568;73,65
675,806;73,72
676,043;73,76
676,281;73,77
676,519;73,83
676,756;73,81
676,994;73,84
677,232;73,83
677,469;73,82
677,707;73,83
677,945;73,82
678,182;73,9
678,42;73,93
678,657;73,93
678,895;73,97
679,132;73,97
679,37;73,95
679,607;73,95
679,845;73,94
680,082;73,92
680,32;73,92
680,557;73,95
680,794;73,92
681,032;73,91
681,269;73,91
681,507;73,9
681,744;73,91
681,981;73,96
682,218;73,94
682,456;73,94
682,693;73,98
682,93;74
683,167;73,97
683,404;74
683,642;74,04
683,879;74,02
684,116;74,06
684,353;74,07
684,59;74,1
684,827;74,13
685,064;74,13
685,301;74,17
685,538;74,18
685,775;74,19
686,012;74,21
686,249;74,26
686,486;74,25
686,723;74,3
686,96;74,26
687,197;74,28
687,433;74,33
687,67;74,36
687,907;74,36
688,144;74,36
688,381;74,35
688,617;74,32
688,854;74,37
689,091;74,32
689,327;74,34
689,564;74,35
689,801;74,36
690,037;74,39
690,274;74,41
690,511;74,42
690,747;74,46
690,984;74,48
691,22;74,46
691,457;74,47
691,693;74,43
691,93;74,47
692,166;74,46
692,403;74,49
692,639;74,46
692,876;74,45
693,112;74,47
693,348;74,49
693,585;74,53
693,821;74,54
694,057;74,59
694,294;74,6
694,53;74,62
694,766;74,63
695,002;74,63
695,239;74,65
695,475;74,67
695,711;74,67
695,947;74,68
696,183;74,69
696,419;74,75
696,656;74,78
696,892;74,78
697,128;74,82
697,364;74,78
697,6;74,79
697,836;74,81
698,072;74,83
698,308;74,88
698,544;74,84
698,78;74,84
699,016;74,82
699,251;74,86
699,487;74,86
699,723;74,86
699,959;74,9
700,195;74,88
700,431;74,89
700,666;74,87
700,902;74,83
701,138;74,88
701,374;74,85
701,609;74,87
701,845;74,88
702,081;74,95
702,316;74,97
702,552;74,98
702,788;74,97
703,023;74,98
703,259;74,92
703,494;74,99
703,73;75,03
703,965;75,07
704,201;75,06
704,436;75,08
704,672;75,09
704,907;75,06
705,143;75,06
705,378;75,06
705,613;75,08
705,849;75,1
706,084;75,07
706,319;75,1
706,555;75,08
706,79;75,06
707,025;75,03
707,26;75,05
707,496;75,09
707,731;75,13
707,966;75,14
708,201;75,16
708,436;75,18
708,671;75,19
708,907;75,2
709,142;75,21
709,377;75,16
709,612;75,23
709,847;75,27
710,082;75,28
710,317;75,31
710,552;75,36
710,787;75,38
711,022;75,38
711,257;75,37
711,492;75,4
711,726;75,41
711,961;75,41
712,196;75,4
712,431;75,38
712,666;75,38
712,901;75,42
713,135;75,45
713,37;75,5
713,605;75,48
713,839;75,53
714,074;75,54
714,309;75,6
714,543;75,58
714,778;75,59
715,013;75,6
715,247;75,6
715,482;75,56
715,716;75,6
715,951;75,63
716,185;75,65
716,42;75,68
716,654;75,73
716,889;75,71
717,123;75,68
717,358;75,71
717,592;75,76
717,827;75,74
718,061;75,74
718,295;75,67
718,53;75,69
718,764;75,64
718,998;75,66
719,232;75,67
719,467;75,66
719,701;75,62
719,935;75,67
720,169;75,7
720,403;75,7
720,638;75,72
720,872;75,73
721,106;75,72
721,34;75,69
721,574;75,69
721,808;75,72
722,042;75,74
722,276;75,74
722,51;75,71
722,744;75,69
722,978;75,65
723,212;75,65
723,446;75,6
723,68;75,6
723,914;75,61
724,147;75,59
724,381;75,62
724,615;75,68
724,849;75,65
725,083;75,61
725,316;75,62
725,55;75,59
725,784;75,58
726,018;75,58
726,251;75,63
726,485;75,64
726,719;75,67
726,952;75,67
727,186;75,67
727,419;75,65
727,653;75,68
727,887;75,73
728,12;75,77
728,354;75,78
728,587;75,76
728,821;75,73
729,054;75,76
729,287;75,76
729,521;75,73
729,754;75,74
729,988;75,77
730,221;75,79
730,454;75,79
730,688;75,8
730,921;75,79
731,154;75,75
731,387;75,75
731,621;75,71
731,854;75,69
732,087;75,69
732,32;75,72
732,553;75,72
732,787;75,73
733,02;75,75
733,253;75,74
733,486;75,75
733,719;75,75
733,952;75,74
734,185;75,72
734,418;75,73
734,651;75,74
734,884;75,72
735,117;75,72
735,35;75,67
735,583;75,66
735,816;75,68
736,049;75,67
736,281;75,67
736,514;75,66
736,747;75,69
736,98;75,69
737,213;75,66
737,445;75,64
737,678;75,63
737,911;75,61
738,144;75,63
738,376;75,68
738,609;75,71
738,842;75,71
739,074;75,71
739,307;75,75
739,539;75,75
739,772;75,78
740,004;75,78
740,237;75,87
740,469;75,87
740,702;75,84
740,934;75,9
741,167;75,86
741,399;75,85
741,632;75,85
741,864;75,87
742,096;75,92
742,329;75,94
742,561;75,91
742,793;75,89
743,026;75,9
743,258;75,86
743,49;75,77
743,723;75,76
743,955;75,75
744,187;75,69
744,419;75,69
744,651;75,66
744,883;75,65
745,115;75,58
745,348;75,56
745,58;75,59
745,812;75,53
746,044;75,54
746,276;75,53
746,508;75,56
746,74;75,52
746,972;75,52
747,204;75,48
747,436;75,46
747,667;75,5
747,899;75,46
748,131;75,47
748,363;75,52
748,595;75,55
748,827;75,59
749,058;75,59
749,29;75,58
749,522;75,55
749,754;75,53
749,985;75,56
750,217;75,55
750,449;75,49
750,68;75,49
750,912;75,52
751,144;75,59
751,375;75,54
751,607;75,54
751,838;75,53
752,07;75,58
752,301;75,6
752,533;75,57
752,764;75,58
752,996;75,57
753,227;75,53
753,459;75,47
753,69;75,43
753,921;75,46
754,153;75,43
754,384;75,47
754,615;75,49
754,847;75,48
755,078;75,54
755,309;75,56
755,54;75,54
755,772;75,51
756,003;75,43
756,234;75,45
756,465;75,48
756,696;75,45
756,927;75,43
757,159;75,44
757,39;75,44
757,621;75,5
757,852;75,49
758,083;75,53
758,314;75,59
758,545;75,61
758,776;75,53
759,007;75,55
759,238;75,51
759,469;75,49
759,699;75,48
759,93;75,42
760,161;75,42
760,392;75,41
760,623;75,37
760,854;75,44
761,084;75,46
761,315;75,41
761,546;75,36
761,776;75,36
762,007;75,4
762,238;75,37
762,468;75,28
762,699;75,29
762,93;75,26
763,16;75,2
763,391;75,19
763,621;75,24
763,852;75,26
764,083;75,26
764,313;75,28
764,543;75,23
764,774;75,21
765,004;75,19
765,235;75,17
765,465;75,2
765,696;75,16
765,926;75,09
766,156;75,07
766,387;75,13
766,617;75,13
766,847;75,08
767,077;75,07
767,308;75,09
767,538;75,08
767,768;75,03
767,998;75,03
768,228;74,97
768,459;74,94
768,689;74,94
768,919;74,93
769,149;74,91
769,379;75
769,609;75,03
769,839;75,05
770,069;75,09
770,299;75,08
770,529;75,06
770,759;75,04
770,989;75,04
771,219;74,99
771,449;74,93
771,678;74,97
771,908;75
772,138;75,05
772,368;75,07
772,598;75,11
772,827;75,12
773,057;75,15
773,287;75,17
773,517;75,14
773,746;75,14
773,976;75,16
774,206;75,11
774,435;75,1
774,665;75,1
774,894;75,07
775,124;75,1
775,354;75,1
775,583;75,15
775,813;75,16
776,042;75,2
776,272;75,19
776,501;75,13
776,73;75,11
776,96;75,07
777,189;75,05
777,419;75,08
777,648;75,08
777,877;75,06
778,107;75,02
778,336;75
778,565;74,99
778,794;74,99
779,024;75
779,253;74,99
779,482;74,94
779,711;74,95
779,94;74,9
780,17;74,86
780,399;74,8
780,628;74,79
780,857;74,75
781,086;74,79
781,315;74,78
781,544;74,75
781,773;74,72
782,002;74,72
782,231;74,67
782,46;74,67
782,689;74,67
782,918;74,69
783,147;74,66
783,375;74,64
783,604;74,63
783,833;74,59
784,062;74,54
784,291;74,57
784,519;74,57
784,748;74,55
784,977;74,54
785,206;74,54
785,434;74,49
785,663;74,49
785,892;74,45
786,12;74,43
786,349;74,43
786,577;74,42
786,806;74,41
787,034;74,42
787,263;74,38
787,492;74,36
787,72;74,32
787,948;74,35
788,177;74,35
788,405;74,26
788,634;74,24
788,862;74,32
789,09;74,32
789,319;74,27
789,547;74,25
789,775;74,23
790,004;74,24
790,232;74,3
790,46;74,25
790,688;74,23
790,917;74,21
791,145;74,18
791,373;74,19
791,601;74,13
791,829;74,11
792,057;74,1
792,286;74,13
792,514;74,15
792,742;74,15
792,97;74,11
793,198;74,14
793,426;74,09
793,654;74,06
793,882;74,04
794,109;74,04
794,337;74,09
794,565;74,05
794,793;74,04
795,021;74,03
795,249;74,03
795,477;74,06
795,704;74,04
795,932;74,01
796,16;73,95
796,388;73,93
796,615;73,85
796,843;73,81
797,071;73,71
797,298;73,67
797,526;73,61
797,754;73,61
797,981;73,62
798,209;73,66
798,436;73,54
798,664;73,49
798,891;73,47
799,119;73,44
799,346;73,42
799,574;73,44
799,801;73,44
800,029;73,36
800,256;73,36
800,483;73,36
800,711;73,38
800,938;73,34
801,165;73,35
801,393;73,34
801,62;73,35
801,847;73,44
802,074;73,39
802,302;73,45
802,529;73,49
802,756;73,44
802,983;73,4
803,21;73,47
803,437;73,49
803,665;73,54
803,892;73,54
804,119;73,56
804,346;73,5
804,573;73,47
804,8;73,47
805,027;73,39
805,254;73,34
805,481;73,35
805,708;73,33
805,934;73,3
806,161;73,32
806,388;73,31
806,615;73,19
806,842;73,17
807,069;73,12
807,295;73,02
807,522;73,03
807,749;73,05
807,976;73,05
808,202;73,03
808,429;72,94
808,656;72,9
808,882;72,9
809,109;72,88
809,335;72,84
809,562;72,88
809,789;72,86
810,015;72,91
810,242;72,9
810,468;72,93
810,695;72,92
810,921;72,97
811,147;72,92
811,374;72,98
811,6;73,03
811,827;72,97
812,053;73,01
812,279;72,95
812,506;72,92
812,732;72,91
812,958;72,9
813,185;72,91
813,411;72,9
813,637;72,88
813,863;72,91
814,089;72,93
814,315;72,91
814,542;72,95
814,768;72,84
814,994;72,83
815,22;72,76
815,446;72,81
815,672;72,74
815,898;72,79
816,124;72,71
816,35;72,67
816,576;72,73
816,802;72,69
817,028;72,66
817,254;72,66
817,48;72,59
817,705;72,63
817,931;72,6
818,157;72,54
818,383;72,53
818,609;72,5
818,834;72,51
819,06;72,42
819,286;72,37
819,512;72,48
819,737;72,4
819,963;72,44
820,189;72,33
820,414;72,28
820,64;72,21
820,865;72,26
821,091;72,19
821,316;72,12
821,542;72,09
821,767;72,07
821,993;72,05
822,218;72,07
822,444;71,97
822,669;72,03
822,895;72,05
823,12;72,09
823,345;72,09
823,571;72
823,796;72,06
824,021;72,07
824,247;72,07
824,472;72,09
824,697;72,08
824,922;72,14
825,147;72,14
825,373;72,21
825,598;72,21
825,823;72,22
826,048;72,21
826,273;72,2
826,498;72,32
826,723;72,31
826,948;72,25
827,173;72,25
827,398;72,2
827,623;72,15
827,848;72,1
828,073;72,04
828,298;71,95
828,523;71,97
828,748;71,92
828,973;71,85
829,197;71,81
829,422;71,75
829,647;71,72
829,872;71,67
830,097;71,62
830,321;71,62
830,546;71,65
830,771;71,68
830,995;71,72
831,22;71,64
831,445;71,61
831,669;71,61
831,894;71,57
832,118;71,54
832,343;71,5
832,567;71,49
832,792;71,47
833,016;71,53
833,241;71,49
833,465;71,52
833,69;71,47
833,914;71,45
834,139;71,49
834,363;71,38
834,587;71,42
834,812;71,36
835,036;71,32
835,26;71,28
835,485;71,24
835,709;71,15
835,933;71,09
836,157;70,98
836,381;70,98
836,606;71,01
836,83;70,92
837,054;70,96
837,278;70,91
837,502;70,85
837,726;70,82
837,95;70,75
838,174;70,69
838,398;70,69
838,622;70,72
838,846;70,7
839,07;70,67
839,294;70,68
839,518;70,71
839,742;70,62
839,966;70,63
840,189;70,6
840,413;70,63
840,637;70,6
840,861;70,66
841,085;70,62
841,308;70,5
841,532;70,6
841,756;70,64
841,979;70,62
842,203;70,72
842,427;70,75
842,65;70,75
842,874;70,74
843,098;70,72
843,321;70,69
843,545;70,69
843,768;70,7
843,992;70,66
844,215;70,59
844,439;70,6
844,662;70,5
844,886;70,43
845,109;70,42
845,332;70,38
845,556;70,41
845,779;70,43
846,002;70,47
846,226;70,48
846,449;70,35
846,672;70,33
846,895;70,25
847,119;70,17
847,342;70,16
847,565;70,14
847,788;70,14
848,011;70,13
848,234;70,09
848,457;70,1
848,681;70,06
848,904;70,1
849,127;70,09
849,35;70,24
849,573;70,31
849,796;70,3
850,019;70,36
850,241;70,38
850,464;70,36
850,687;70,47
850,91;70,37
851,133;70,41
851,356;70,4
851,579;70,48
851,801;70,48
852,024;70,58
852,247;70,56
852,47;70,5
852,692;70,44
852,915;70,43
853,138;70,44
853,36;70,45
853,583;70,41
853,806;70,43
854,028;70,32
854,251;70,32
854,473;70,39
854,696;70,34
854,918;70,34
855,141;70,32
855,363;70,28
855,586;70,29
855,808;70,24
856,031;70,25
856,253;70,24
856,475;70,31
856,698;70,14
856,92;70,16
857,142;70,23
857,365;70,33
857,587;70,29
857,809;70,27
858,031;70,32
858,253;70,32
858,476;70,37
858,698;70,34
858,92;70,28
859,142;70,2
859,364;70,19
859,586;70,14
859,808;70,07
860,03;69,99
860,252;69,97
860,474;70,05
860,696;70,15
860,918;70,11
861,14;70,12
861,362;70,2
861,584;70,25
861,806;70,19
862,028;70,04
862,25;70,08
862,471;70,06
862,693;69,91
862,915;69,92
863,137;69,78
863,358;69,86
863,58;69,85
863,802;69,87
864,024;69,84
864,245;69,76
864,467;69,81
864,688;69,9
864,91;69,88
865,132;69,76
865,353;69,7
865,575;69,65
865,796;69,52
866,018;69,49
866,239;69,41
866,461;69,33
866,682;69,36
866,903;69,33
867,125;69,32
867,346;69,33
867,567;69,28
867,789;69,31
868,01;69,2
868,231;69,13
868,453;69,12
868,674;69,11
868,895;69,06
869,116;69,01
869,337;68,91
869,559;68,89
869,78;68,92
870,001;68,74
870,222;68,78
870,443;68,79
870,664;68,74
870,885;68,74
871,106;68,76
871,327;68,76
871,548;68,77
871,769;68,76
871,99;68,87
872,211;68,82
872,432;68,82
872,653;68,85
872,874;68,85
873,094;68,81
873,315;68,92
873,536;68,99
873,757;68,97
873,978;68,97
874,198;68,88
874,419;68,93
874,64;68,93
874,86;68,83
875,081;68,91
875,302;68,99
875,522;68,96
875,743;69,07
875,963;69,17
876,184;69,09
876,404;69,08
876,625;69,01
876,845;69,04
877,066;68,94
877,286;68,98
877,507;68,96
877,727;69
877,947;68,93
878,168;68,9
878,388;68,93
878,609;68,9
878,829;69
879,049;68,95
879,269;69,13
879,49;69,15
879,71;69,15
879,93;69,04
880,15;68,99
880,37;68,86
880,59;68,74
880,811;68,79
881,031;68,72
881,251;68,7
881,471;68,75
881,691;68,86
881,911;68,86
882,131;68,87
882,351;68,83
882,571;68,8
882,791;68,77
883,011;68,8
883,23;68,8
883,45;68,83
883,67;68,92
883,89;68,77
884,11;68,7
884,33;68,58
884,549;68,65
884,769;68,66
884,989;68,73
885,209;68,89
885,428;68,89
885,648;68,91
885,868;68,89
886,087;68,87
886,307;68,79
886,526;68,75
886,746;68,83
886,965;68,73
887,185;68,83
887,404;68,92
887,624;68,9
887,843;68,97
888,063;68,86
888,282;68,8
888,502;68,93
888,721;69,07
888,94;69,18
889,16;69,06
889,379;69,09
889,598;69,08
889,818;68,94
890,037;69,08
890,256;69,07
890,475;69,14
890,694;69,1
890,914;69,08
891,133;68,97
891,352;68,86
891,571;68,82
891,79;68,74
892,009;68,71
892,228;68,71
892,447;68,52
892,666;68,56
892,885;68,51
893,104;68,52
893,323;68,54
893,542;68,52
893,761;68,67
893,98;68,71
894,199;68,64
894,417;68,57
894,636;68,6
894,855;68,7
895,074;68,62
895,293;68,66
895,511;68,72
895,73;68,82
895,949;68,85
896,167;68,93
896,386;68,91
896,605;68,97
896,823;68,86
897,042;69,16
897,26;69,1
897,479;69,14
897,697;69,07
897,916;69,02
898,134;68,92
898,353;68,78
898,571;68,74
898,79;68,77
899,008;68,86
899,227;68,65
899,445;68,63
899,663;68,54
899,882;68,55
900,1;68,57
900,318;68,65
900,536;68,73
900,755;68,8
900,973;68,69
901,191;68,57
901,409;68,63
901,627;68,45
901,846;68,56
902,064;68,6
902,282;68,59
902,5;68,54
902,718;68,6
902,936;68,69
903,154;68,73
903,372;68,76
903,59;68,74
903,808;68,73
904,026;68,73
904,244;68,82
904,462;68,75
904,679;68,76
904,897;68,75
905,115;68,73
905,333;68,81
905,551;68,92
905,768;69
905,986;69,1
906,204;69,11
906,422;69,06
906,639;69,03
906,857;69,07
907,074;69,08
907,292;69,14
907,51;69,19
907,727;69,19
907,945;69,26
908,162;69,25
908,38;69,25
908,597;69,29
908,815;69,36
909,032;69,41
909,25;69,28
909,467;69,1
909,684;69,02
909,902;68,83
910,119;69
910,337;68,98
910,554;68,94
910,771;68,88
910,988;68,87
911,206;68,85
911,423;68,89
911,64;68,8
911,857;68,63
912,074;68,61
912,291;68,38
912,509;68,31
912,726;68,38
912,943;68,54
913,16;68,5
913,377;68,44
913,594;68,4
913,811;68,44
914,028;68,51
914,245;68,54
914,462;68,52
914,679;68,27
914,896;68,32
915,112;68,28
915,329;68,28
915,546;68,36
915,763;68,42
915,98;68,28
916,196;68,39
916,413;68,63
916,63;68,73
916,847;68,95
917,063;68,98
917,28;68,79
917,497;68,72
917,713;68,69
917,93;68,79
918,146;68,82
918,363;69,06
918,579;69,03
918,796;69,11
919,012;69,29
919,229;69,44
919,445;69,55
919,662;69,51
919,878;69,5
920,095;69,62
920,311;69,52
920,527;69,52
920,744;69,63
920,96;69,49
921,176;69,37
921,392;69,36
921,609;69,55
921,825;69,72
922,041;69,75
922,257;69,59
922,473;69,53
922,69;69,5
922,906;69,28
923,122;69,43
923,338;69,45
923,554;69,27
923,77;69,16
923,986;68,95
924,202;69,04
924,418;69,21
924,634;69,04
924,85;69,22
925,066;69,38
925,282;69,25
925,497;69,25
925,713;69,27
925,929;69,32
926,145;69,04
926,361;69,01
926,576;68,94
926,792;69,04
927,008;69,08
927,224;69,14
927,439;69,35
927,655;69,23
927,871;69,11
928,086;69,24
928,302;69,19
928,517;69,35
928,733;69,28
928,948;69,14
929,164;69,13
929,379;68,98
929,595;68,93
929,81;68,9
930,026;68,8
930,241;68,78
930,456;68,66
930,672;68,77
930,887;68,85
931,102;68,86
931,318;68,88
931,533;68,7
931,748;68,71
931,964;68,44
932,179;68,46
932,394;68,54
932,609;68,42
932,824;68,51
933,039;68,36
933,255;68,27
933,47;68,27
933,685;68,21
933,9;68,34
934,115;68,27
934,33;68,32
934,545;68,35
934,76;68,37
934,975;68,54
935,19;68,5
935,404;68,21
935,619;68,18
935,834;68,23
936,049;68,37
936,264;68,4
936,479;68,44
936,693;68,56
936,908;68,81
937,123;69
937,338;69,14
937,552;69,2
937,767;69,39
937,982;69,64
938,196;69,79
938,411;69,69
938,625;69,67
938,84;69,47
939,055;69,54
939,269;69,56
939,484;69,72
939,698;69,89
939,912;70,45
940,127;70,73
940,341;70,8
940,556;71,04
940,77;71,5
940,984;72,1
941,199;72,29
941,413;71,91
941,627;71,64
941,842;71,85
942,056;72,01
942,27;72,73
942,484;73,16
942,699;72,96
942,913;73,23
943,127;73,14
943,341;73,46
943,555;73,61
943,769;73,65
943,983;73,09
944,197;72,71
944,411;72,64
944,625;72,55
944,839;73,03
945,053;73,27
945,267;72,97
945,481;72,54
945,695;72,57
945,909;72,68
946,123;72,93
946,336;72,67
946,55;72,99
946,764;72,22
946,978;71,52
947,192;71,87
947,405;71,85
947,619;72,61
947,833;72,76
948,046;73,1
948,26;73,27
948,474;73,78
948,687;74,17
948,901;74,32
949,114;74,07
949,328;73,5
949,541;73,32
949,755;73,05
949,968;72,77
950,182;72,68
950,395;72,72
950,609;73,06
950,822;73,16
951,035;72,9
951,249;72,89
951,462;73,23
951,675;73,3
951,889;72,74
952,102;73,04
952,315;73,13
952,528;72,98
952,741;72,45
952,955;72,42
953,168;72,01
953,381;71,62
953,594;71,75
953,807;71,96
954,02;71,88
954,233;71,76
954,446;71,92
954,659;72,02
954,872;72,11
955,085;71,86
955,298;71,53
955,511;71,4
955,724;71,17
955,937;71,43
956,15;71,26
956,362;71,66
956,575;71,15
956,788;71,19
957,001;71,1
957,214;71,35
957,426;70,77
957,639;71,12
957,852;71,05
958,064;71,18
958,277;71,19
958,49;70,92
958,702;71,15
958,915;71,06
959,127;70,56
959,34;70,14
959,552;69,85
959,765;70,2
959,977;70,35
960,19;70,61
960,402;70,42
960,615;70,53
960,827;70,3
961,039;69,95
961,252;69,92
961,464;70,17
961,676;70,23
961,889;70,43
962,101;70,44
962,313;70,77
962,525;70,6
962,738;70,35
962,95;70,65
963,162;70,65
963,374;70,9
963,586;71,32
963,798;72,01
964,01;72,15
964,222;71,91
964,434;71,93
964,646;72,15
964,858;71,55
965,07;71,39
965,282;71,54
965,494;71,9
965,706;72,17
965,918;72,26
966,13;72,48
966,342;72,6
966,553;72,5
966,765;72,53
966,977;72,75
967,189;72,94
967,401;72,83
967,612;72,62
967,824;72,66
968,036;72,63
968,247;71,96
968,459;72,15
968,67;72,39
968,882;72,45
969,094;72,38
969,305;72,68
969,517;72,59
969,728;73,05
969,94;73,22
970,151;72,89
970,362;73,09
970,574;72,93
970,785;73,04
970,997;72,96
971,208;72,59
971,419;72,32
971,631;72,37
971,842;72,85
972,053;73,3
972,264;73,54
972,476;73,55
972,687;73,7
972,898;73,45
973,109;73,3
973,32;73,64
973,531;73,51
973,742;73,74
973,954;73,86
974,165;73,64
974,376;73,34
974,587;73,35
974,798;73,12
975,009;73,06
975,22;72,94
975,43;73,15
975,641;73,54
975,852;73,61
976,063;73,79
976,274;73,31
976,485;73,07
976,695;72,83
976,906;73,14
977,117;73,53
977,328;73,84
977,538;73,96
977,749;73,43
977,96;74,05
978,17;74,21
978,381;74,39
978,592;74,32
978,802;74,69
979,013;74,96
979,223;75,03
979,434;75,29
979,644;75,88
979,855;76
980,065;76,12
980,276;76,28
980,486;76,25
980,696;76,23
980,907;76,05
981,117;76,31
981,327;76,14
981,538;75,99
981,748;75,8
981,958;75,65
982,169;75,85
982,379;75,61
982,589;75,49
982,799;75,38
983,009;75,31
983,219;75,26
983,43;75,14
983,64;75,13
983,85;75,04
984,06;74,44
984,27;74,05
984,48;74,27
984,69;73,98
984,9;73,53
985,11;74,23
985,32;74,32
985,529;74,01
985,739;73,77
985,949;73,77
986,159;74
986,369;73,97
986,579;74,3
986,788;74,45
986,998;74,64
987,208;74,62
987,417;74,31
987,627;74,08
987,837;74,09
988,046;73,42
988,256;73,37
988,466;73,43
988,675;73,77
988,885;73,2
989,094;73,34
989,304;73,71
989,513;73,34
989,723;73,44
989,932;73,64
990,142;73,36
990,351;73,41
990,56;73,67
990,77;74,24
990,979;73,88
991,188;73,78
991,398;73,33
991,607;73,32
991,816;74,01
992,025;74,17
992,235;74,2
992,444;75,07
992,653;75,75
992,862;75,78
993,071;76,1
993,28;76,82
993,489;77,36
993,698;77,38
993,908;77,6
994,117;77,48
994,326;77,8
994,534;78,26
994,743;78,38
994,952;78,27
995,161;77,21
995,37;77,24
995,579;77,73
995,788;78,08
995,997;78,04
996,205;78,42
996,414;78,8
996,623;79,12
996,832;79,38
997,04;79,11
997,249;78,87
997,458;78,78
997,666;78,23
997,875;78,21
998,084;77,69
998,292;77,87
998,501;78,31
998,709;77,51
998,918;77,77
999,126;77,31
999,335;76,75
999,543;77,88
999,752;78,25
999,96;77,73
1000,169;77,05
1000,377;77,31
1000,585;76,35
1000,794;75,73
1001,002;74,89
1001,21;74,66
1001,418;74,5
1001,627;74,5
1001,835;74,47
1002,043;74,87
1002,251;74,54
1002,459;75,49
1002,668;74,84
1002,876;73,94
1003,084;74,39
1003,292;74,58
1003,5;74,81
1003,708;75,58
1003,916;75,32
1004,124;75,22
1004,332;74,22
1004,54;75,35
1004,748;74,85
1004,956;75,26
1005,163;75,03
1005,371;74,95
1005,579;74,96
1005,787;75,14
1005,995;76,03
1006,202;75,88
1006,41;75,97
1006,618;75,71
1006,826;75,28
1007,033;75,68
1007,241;76,52
1007,449;75,83
1007,656;75,81
1007,864;76,79
1008,071;76,53
1008,279;76,83
1008,486;76,82
1008,694;77,9
1008,901;77,84
1009,109;78,89
1009,316;78,87
1009,524;79,21
1009,731;80,43
1009,938;79,9
1010,146;79,33
1010,353;78,69
1010,56;78,46
1010,768;78,84
1010,975;80,46
1011,182;80,18
1011,389;79,61
1011,597;79,69
1011,804;80,42
1012,011;80,32
1012,218;78,94
1012,425;79,29
1012,632;78,83
1012,839;78,51
1013,046;77,88
1013,253;78
1013,46;77,61
1013,667;77,46
1013,874;77,35
1014,081;77,39
1014,288;77,89
1014,495;78,63
1014,702;78,66
1014,909;78,58
1015,116;77,58
1015,323;77,28
1015,529;77,57
1015,736;78,51
1015,943;77,85
1016,15;77,13
1016,356;76,7
1016,563;77,33
1016,77;77,44
1016,976;78,47
1017,183;79,79
1017,389;79,92
1017,596;80,76
1017,803;80,74
1018,009;80,42
1018,216;81,03
1018,422;80,34
1018,629;80,57
1018,835;79,96
1019,041;80,79
1019,248;81,33
1019,454;81,75
1019,661;81,36
1019,867;82,12
1020,073;81,73
1020,279;82,56
1020,486;83,01
1020,692;84,66
1020,898;84,86
1021,104;83,06
1021,311;81,38
1021,517;80,15
1021,723;80,79
1021,929;79,03
1022,135;80,54
1022,341;80,65
1022,547;81,35
1022,753;83,21
1022,959;82,08
1023,165;83,87
1023,371;85,19
1023,577;84,72
1023,783;83,86
1023,989;83,52
1024,195;82,7
1024,401;83,67
1024,607;82,75
1024,812;83,77
1025,018;81,87
1025,224;81,66
1025,43;82,53
1025,635;81,26
1025,841;81,49
1026,047;81,66
1026,252;83,55
1026,458;82,58
1026,664;84,26
1026,869;83,61
1027,075;83,21
1027,28;81,89
1027,486;80,1
1027,691;77,33
1027,897;78,64
1028,102;77,73
1028,308;76,98
1028,513;77,07
1028,719;76,31
1028,924;76,69
1029,129;77,19
1029,335;76,29
1029,54;76,62
1029,745;77
1029,95;78,11
1030,156;78,18
1030,361;78,32
1030,566;77,9
1030,771;78,18
1030,976;76,32
1031,182;77,03
1031,387;75,39
1031,592;77,86
1031,797;79,42
1032,002;78,86
1032,207;78,51
1032,412;82,02
1032,617;82,57
1032,822;82,69
1033,027;83,79
1033,232;84,87
1033,437;85,1
1033,642;86,53
1033,846;87,39
1034,051;89,18
1034,256;91,55
1034,461;90,77
1034,666;90,29
1034,87;88,75
1035,075;86,03
1035,28;87,56
1035,484;86,42
1035,689;84,99
1035,894;85,26
1036,098;81,34
1036,303;82,9
1036,507;85,28
1036,712;83,55
1036,917;83,62
1037,121;86,18
1037,325;85,75
1037,53;87,38
1037,734;84,64
1037,939;86,03
1038,143;84,97
1038,348;85,06
1038,552;85,18
1038,756;86,26
1038,961;86,82
1039,165;86,8
1039,369;89,85
1039,573;89,9
1039,778;88,27
1039,982;89,71
1040,186;87,29
1040,39;89,73
1040,594;90,67
1040,798;86,52
1041,002;85,51
1041,206;86,25
1041,41;83
1041,614;80,84
1041,818;78,37
1042,022;79,76
1042,226;78,47
1042,43;79,4
1042,634;75,08
1042,838;75,93
1043,042;75,76
1043,246;74,53
1043,45;74,97
1043,653;74,14
1043,857;75,41
1044,061;77,02
1044,265;77,13
1044,468;79,79
1044,672;79,31
1044,876;78,9
1045,079;79,3
1045,283;83,92
1045,487;81,38
1045,69;84,1
1045,894;83,76
1046,097;84,75
1046,301;85,03
1046,504;84,72
1046,708;86,01
1046,911;91,26
1047,115;87,38
1047,318;89,57
1047,522;94,16
1047,725;91,86
1047,928;92,88
1048,132;91,36
1048,335;92,04
1048,538;93,41
1048,741;93,45
1048,945;94,64
1049,148;96,02
1049,351;97,92
1049,554;95,24
1049,757;98,78
1049,96;96,03
1050,163;99,34
1050,367;99,27
1050,57;100,7
1050,773;102,39
1050,976;98,91
1051,179;97,28
1051,382;98,84
1051,585;100,46
1051,787;99,65
1051,99;104,18
1052,193;102,64
1052,396;105,65
1052,599;102,52
1052,802;103,16
1053,005;103,02
1053,207;101,91
1053,41;97,62
1053,613;94,2
1053,815;97,77
1054,018;97,56
1054,221;97,81
1054,423;97,84
1054,626;97,69
1054,829;96,19
1055,031;96,36
1055,234;98,57
1055,436;99,51
1055,639;100,97
1055,841;91,3
1056,044;87,49
1056,246;82,92
