Data from redochrewhite_Reflection__2__09.txt Node;
"Date: Wed Sep 10 11:33:49 CEST 2025 User: sycur Spectrometer: SR400348 Trigger mode: 0 Integration Time (sec): 1,000000E-2 Scans to average: 10 Electric dark correction enabled: true Nonlinearity correction enabled: false Boxcar width: 10 XAxis mode: Wavelengths Number of Pixels in Spectrum: 3648 >>>>>Begin Spectral Data<<<<<";
186,01;110,04
186,281;92,95
186,552;69,7
186,822;78,33
187,093;166,67
187,364;381,85
187,635;122,81
187,905;77,77
188,176;71,05
188,447;48,69
188,717;47,01
188,988;36,61
189,258;31,82
189,529;33,86
189,8;28,34
190,07;28,69
190,341;24,79
190,611;24,5
190,882;20,12
191,152;19,15
191,423;16,01
191,693;16,69
191,964;14,87
192,234;17,83
192,505;17,42
192,775;18,09
193,045;16,67
193,316;13,93
193,586;12,91
193,856;12,57
194,127;14,49
194,397;13,46
194,667;14,72
194,938;13,68
195,208;14,65
195,478;15,9
195,748;16,01
196,019;17,35
196,289;15,78
196,559;15,01
196,829;14,35
197,099;14,58
197,37;14,32
197,64;14,96
197,91;14,26
198,18;14,48
198,45;14,58
198,72;15,25
198,99;15,68
199,26;15,45
199,53;15,94
199,8;14,81
200,07;14,57
200,34;13,66
200,61;13,65
200,88;13,35
201,15;12,57
201,42;11,97
201,69;11,16
201,96;10,55
202,23;11,51
202,499;11,68
202,769;10,97
203,039;9,68
203,309;8,31
203,579;8,63
203,849;9,09
204,118;8,9
204,388;8,31
204,658;8,31
204,927;8,49
205,197;7,22
205,467;7,47
205,736;7,67
206,006;7,74
206,276;7,83
206,545;7,69
206,815;7,92
207,085;7,93
207,354;8,35
207,624;8,62
207,893;8,22
208,163;8,06
208,432;8,52
208,702;8,67
208,971;8,72
209,241;8,66
209,51;8,54
209,78;8,65
210,049;8,7
210,318;8,73
210,588;8,5
210,857;8,89
211,127;8,9
211,396;8,56
211,665;8,64
211,935;8,85
212,204;8,63
212,473;8,41
212,742;8,39
213,012;8,22
213,281;8,13
213,55;8,14
213,819;8,14
214,088;8,07
214,358;7,99
214,627;8,08
214,896;7,79
215,165;7,48
215,434;7,32
215,703;7,08
215,972;6,93
216,241;7,06
216,51;7,03
216,779;6,78
217,048;6,96
217,317;6,81
217,586;6,75
217,855;6,94
218,124;6,95
218,393;6,78
218,662;6,77
218,931;6,73
219,2;6,5
219,469;6,5
219,738;6,41
220,006;6,53
220,275;6,45
220,544;6,52
220,813;6,5
221,082;6,43
221,35;6,46
221,619;6,45
221,888;6,39
222,157;6,32
222,425;6,37
222,694;6,17
222,963;6,15
223,231;6,03
223,5;6,02
223,769;5,94
224,037;6,01
224,306;5,91
224,574;5,96
224,843;6
225,111;5,91
225,38;5,87
225,648;5,84
225,917;5,8
226,185;5,82
226,454;5,82
226,722;5,92
226,991;5,88
227,259;5,9
227,528;5,83
227,796;5,82
228,064;5,72
228,333;5,75
228,601;5,72
228,869;5,68
229,138;5,63
229,406;5,64
229,674;5,6
229,942;5,65
230,211;5,69
230,479;5,75
230,747;5,82
231,015;5,76
231,283;5,73
231,552;5,74
231,82;5,66
232,088;5,7
232,356;5,68
232,624;5,75
232,892;5,75
233,16;5,78
233,428;5,77
233,696;5,83
233,964;5,9
234,232;5,96
234,5;6
234,768;6,02
235,036;6,07
235,304;6,09
235,572;6,17
235,84;6,09
236,108;6,07
236,376;6,01
236,644;6,03
236,912;6,1
237,179;6,15
237,447;6,18
237,715;6,18
237,983;6,19
238,251;6,19
238,518;6,18
238,786;6,25
239,054;6,28
239,322;6,3
239,589;6,31
239,857;6,32
240,125;6,32
240,392;6,34
240,66;6,38
240,927;6,38
241,195;6,35
241,463;6,42
241,73;6,48
241,998;6,52
242,265;6,57
242,533;6,61
242,8;6,63
243,068;6,69
243,335;6,67
243,603;6,71
243,87;6,72
244,138;6,77
244,405;6,79
244,672;6,83
244,94;6,82
245,207;6,79
245,474;6,8
245,742;6,79
246,009;6,77
246,276;6,76
246,544;6,77
246,811;6,78
247,078;6,81
247,345;6,81
247,613;6,81
247,88;6,82
248,147;6,77
248,414;6,77
248,681;6,75
248,948;6,79
249,215;6,75
249,483;6,76
249,75;6,73
250,017;6,69
250,284;6,66
250,551;6,71
250,818;6,74
251,085;6,73
251,352;6,77
251,619;6,78
251,886;6,78
252,153;6,79
252,42;6,76
252,687;6,73
252,953;6,74
253,22;6,73
253,487;6,71
253,754;6,73
254,021;6,71
254,288;6,68
254,555;6,66
254,821;6,67
255,088;6,65
255,355;6,62
255,622;6,6
255,888;6,61
256,155;6,55
256,422;6,53
256,688;6,53
256,955;6,51
257,222;6,51
257,488;6,48
257,755;6,47
258,022;6,46
258,288;6,45
258,555;6,41
258,821;6,42
259,088;6,42
259,354;6,37
259,621;6,37
259,887;6,4
260,154;6,4
260,42;6,36
260,687;6,35
260,953;6,36
261,219;6,37
261,486;6,35
261,752;6,37
262,019;6,33
262,285;6,29
262,551;6,3
262,818;6,29
263,084;6,27
263,35;6,25
263,616;6,22
263,883;6,24
264,149;6,23
264,415;6,21
264,681;6,2
264,947;6,2
265,214;6,19
265,48;6,19
265,746;6,19
266,012;6,22
266,278;6,2
266,544;6,22
266,81;6,21
267,076;6,21
267,342;6,18
267,608;6,19
267,874;6,2
268,14;6,19
268,406;6,18
268,672;6,18
268,938;6,19
269,204;6,21
269,47;6,18
269,736;6,17
270,002;6,14
270,268;6,15
270,533;6,17
270,799;6,19
271,065;6,13
271,331;6,12
271,597;6,12
271,862;6,13
272,128;6,09
272,394;6,06
272,66;6,05
272,925;6,06
273,191;6,07
273,457;6,08
273,722;6,08
273,988;6,08
274,254;6,06
274,519;6,06
274,785;6,07
275,05;6,05
275,316;6,05
275,582;6,05
275,847;6,04
276,113;6,04
276,378;6,01
276,644;6,02
276,909;6,01
277,174;6,01
277,44;6,03
277,705;6,02
277,971;6,03
278,236;6,03
278,501;6,03
278,767;6,02
279,032;6,02
279,297;6
279,563;5,96
279,828;5,97
280,093;5,95
280,358;5,91
280,624;5,91
280,889;5,93
281,154;5,94
281,419;5,97
281,684;5,97
281,95;5,96
282,215;5,98
282,48;5,98
282,745;5,98
283,01;5,99
283,275;6,01
283,54;6
283,805;6,01
284,07;6,03
284,335;6,03
284,6;6,01
284,865;6,04
285,13;6,05
285,395;6,08
285,66;6,1
285,925;6,16
286,19;6,2
286,455;6,17
286,72;6,2
286,985;6,17
287,249;6,17
287,514;6,17
287,779;6,18
288,044;6,2
288,309;6,2
288,573;6,19
288,838;6,24
289,103;6,28
289,367;6,28
289,632;6,29
289,897;6,28
290,161;6,32
290,426;6,32
290,691;6,36
290,955;6,38
291,22;6,4
291,484;6,38
291,749;6,36
292,014;6,38
292,278;6,39
292,543;6,41
292,807;6,45
293,072;6,48
293,336;6,49
293,6;6,49
293,865;6,5
294,129;6,52
294,394;6,5
294,658;6,51
294,922;6,5
295,187;6,5
295,451;6,52
295,715;6,52
295,98;6,54
296,244;6,57
296,508;6,57
296,773;6,59
297,037;6,66
297,301;6,7
297,565;6,71
297,829;6,73
298,094;6,7
298,358;6,68
298,622;6,71
298,886;6,73
299,15;6,76
299,414;6,78
299,678;6,79
299,942;6,82
300,206;6,83
300,47;6,87
300,734;6,89
300,998;6,92
301,262;6,95
301,526;6,95
301,79;6,96
302,054;6,96
302,318;6,97
302,582;6,97
302,846;6,94
303,11;6,98
303,374;7,01
303,637;7,07
303,901;7,08
304,165;7,06
304,429;7,07
304,693;7,08
304,956;7,07
305,22;7,08
305,484;7,1
305,747;7,1
306,011;7,14
306,275;7,14
306,538;7,13
306,802;7,14
307,066;7,16
307,329;7,16
307,593;7,16
307,856;7,13
308,12;7,1
308,384;7,13
308,647;7,11
308,911;7,08
309,174;7,08
309,438;7,09
309,701;7,1
309,964;7,11
310,228;7,08
310,491;7,07
310,755;7,06
311,018;7,05
311,281;7,07
311,545;7,03
311,808;7
312,071;7,01
312,335;6,95
312,598;6,94
312,861;6,95
313,124;6,96
313,388;7,01
313,651;7,01
313,914;7,01
314,177;7
314,44;6,97
314,704;6,96
314,967;6,95
315,23;6,98
315,493;6,98
315,756;6,96
316,019;6,96
316,282;7
316,545;6,99
316,808;6,99
317,071;7
317,334;7,02
317,597;7,04
317,86;7,06
318,123;7,08
318,386;7,03
318,649;7
318,912;6,98
319,175;6,96
319,437;6,96
319,7;6,97
319,963;7,01
320,226;6,99
320,489;6,97
320,751;6,94
321,014;6,91
321,277;6,94
321,54;6,92
321,802;6,9
322,065;6,88
322,328;6,87
322,59;6,84
322,853;6,84
323,116;6,81
323,378;6,81
323,641;6,79
323,903;6,83
324,166;6,86
324,428;6,86
324,691;6,87
324,953;6,84
325,216;6,87
325,478;6,86
325,741;6,84
326,003;6,85
326,266;6,85
326,528;6,84
326,791;6,81
327,053;6,85
327,315;6,83
327,578;6,86
327,84;6,86
328,102;6,87
328,365;6,89
328,627;6,85
328,889;6,83
329,151;6,82
329,414;6,82
329,676;6,8
329,938;6,78
330,2;6,75
330,462;6,76
330,725;6,71
330,987;6,71
331,249;6,72
331,511;6,72
331,773;6,74
332,035;6,78
332,297;6,81
332,559;6,79
332,821;6,78
333,083;6,75
333,345;6,72
333,607;6,73
333,869;6,73
334,131;6,74
334,393;6,76
334,655;6,73
334,917;6,69
335,179;6,7
335,44;6,73
335,702;6,75
335,964;6,74
336,226;6,72
336,488;6,73
336,749;6,71
337,011;6,71
337,273;6,7
337,535;6,65
337,796;6,63
338,058;6,63
338,32;6,64
338,581;6,61
338,843;6,6
339,105;6,62
339,366;6,59
339,628;6,61
339,889;6,61
340,151;6,61
340,412;6,64
340,674;6,61
340,935;6,57
341,197;6,58
341,458;6,56
341,72;6,55
341,981;6,52
342,243;6,54
342,504;6,57
342,766;6,56
343,027;6,58
343,288;6,59
343,55;6,6
343,811;6,61
344,072;6,63
344,334;6,64
344,595;6,61
344,856;6,63
345,117;6,62
345,379;6,61
345,64;6,64
345,901;6,64
346,162;6,66
346,423;6,66
346,684;6,62
346,946;6,68
347,207;6,69
347,468;6,77
347,729;6,76
347,99;6,76
348,251;6,75
348,512;6,73
348,773;6,72
349,034;6,71
349,295;6,71
349,556;6,72
349,817;6,76
350,078;6,77
350,339;6,75
350,6;6,76
350,86;6,76
351,121;6,73
351,382;6,71
351,643;6,69
351,904;6,68
352,165;6,69
352,425;6,67
352,686;6,65
352,947;6,59
353,208;6,57
353,468;6,55
353,729;6,54
353,99;6,54
354,25;6,53
354,511;6,5
354,772;6,48
355,032;6,48
355,293;6,44
355,553;6,43
355,814;6,44
356,074;6,41
356,335;6,41
356,596;6,44
356,856;6,41
357,116;6,43
357,377;6,47
357,637;6,47
357,898;6,48
358,158;6,46
358,419;6,46
358,679;6,45
358,939;6,45
359,2;6,45
359,46;6,45
359,72;6,46
359,981;6,47
360,241;6,46
360,501;6,44
360,761;6,45
361,022;6,46
361,282;6,42
361,542;6,42
361,802;6,37
362,062;6,37
362,323;6,36
362,583;6,36
362,843;6,32
363,103;6,34
363,363;6,32
363,623;6,37
363,883;6,35
364,143;6,36
364,403;6,34
364,663;6,35
364,923;6,38
365,183;6,41
365,443;6,44
365,703;6,42
365,963;6,41
366,223;6,44
366,483;6,39
366,743;6,38
367,002;6,41
367,262;6,42
367,522;6,39
367,782;6,41
368,042;6,44
368,301;6,47
368,561;6,46
368,821;6,43
369,081;6,39
369,34;6,4
369,6;6,35
369,86;6,37
370,119;6,34
370,379;6,29
370,638;6,27
370,898;6,23
371,158;6,24
371,417;6,25
371,677;6,2
371,936;6,24
372,196;6,26
372,455;6,25
372,715;6,27
372,974;6,29
373,234;6,25
373,493;6,25
373,753;6,27
374,012;6,22
374,271;6,26
374,531;6,22
374,79;6,22
375,049;6,3
375,309;6,29
375,568;6,27
375,827;6,27
376,086;6,25
376,346;6,27
376,605;6,28
376,864;6,25
377,123;6,24
377,383;6,19
377,642;6,23
377,901;6,2
378,16;6,15
378,419;6,15
378,678;6,17
378,937;6,13
379,196;6,08
379,455;6,14
379,714;6,15
379,973;6,19
380,232;6,19
380,491;6,18
380,75;6,16
381,009;6,19
381,268;6,2
381,527;6,2
381,786;6,17
382,045;6,16
382,304;6,2
382,563;6,22
382,821;6,28
383,08;6,22
383,339;6,27
383,598;6,32
383,857;6,29
384,115;6,29
384,374;6,31
384,633;6,35
384,891;6,31
385,15;6,27
385,409;6,26
385,667;6,25
385,926;6,23
386,185;6,25
386,443;6,27
386,702;6,28
386,96;6,29
387,219;6,29
387,477;6,33
387,736;6,35
387,994;6,36
388,253;6,36
388,511;6,4
388,77;6,4
389,028;6,4
389,287;6,41
389,545;6,42
389,803;6,37
390,062;6,34
390,32;6,36
390,578;6,42
390,837;6,4
391,095;6,43
391,353;6,44
391,612;6,44
391,87;6,42
392,128;6,42
392,386;6,43
392,644;6,39
392,903;6,35
393,161;6,35
393,419;6,32
393,677;6,31
393,935;6,31
394,193;6,26
394,451;6,27
394,709;6,26
394,967;6,31
395,225;6,32
395,483;6,34
395,741;6,34
395,999;6,3
396,257;6,34
396,515;6,31
396,773;6,31
397,031;6,28
397,289;6,25
397,547;6,22
397,805;6,22
398,062;6,27
398,32;6,29
398,578;6,3
398,836;6,31
399,094;6,3
399,351;6,26
399,609;6,28
399,867;6,25
400,124;6,27
400,382;6,23
400,64;6,26
400,897;6,24
401,155;6,24
401,413;6,2
401,67;6,16
401,928;6,19
402,185;6,19
402,443;6,23
402,701;6,26
402,958;6,27
403,216;6,3
403,473;6,28
403,73;6,26
403,988;6,23
404,245;6,23
404,503;6,22
404,76;6,2
405,018;6,18
405,275;6,21
405,532;6,24
405,79;6,24
406,047;6,22
406,304;6,25
406,561;6,24
406,819;6,33
407,076;6,35
407,333;6,38
407,59;6,38
407,848;6,38
408,105;6,41
408,362;6,45
408,619;6,43
408,876;6,42
409,133;6,41
409,39;6,4
409,647;6,42
409,904;6,39
410,161;6,46
410,418;6,47
410,675;6,47
410,932;6,4
411,189;6,41
411,446;6,38
411,703;6,34
411,96;6,34
412,217;6,29
412,474;6,26
412,731;6,2
412,988;6,17
413,245;6,19
413,501;6,14
413,758;6,12
414,015;6,09
414,272;6,1
414,529;6,16
414,785;6,21
415,042;6,22
415,299;6,23
415,555;6,18
415,812;6,16
416,069;6,15
416,325;6,17
416,582;6,22
416,838;6,21
417,095;6,21
417,352;6,23
417,608;6,28
417,865;6,33
418,121;6,36
418,378;6,38
418,634;6,38
418,891;6,47
419,147;6,5
419,403;6,52
419,66;6,51
419,916;6,45
420,173;6,41
420,429;6,4
420,685;6,45
420,942;6,49
421,198;6,5
421,454;6,49
421,711;6,5
421,967;6,49
422,223;6,5
422,479;6,51
422,735;6,53
422,992;6,49
423,248;6,48
423,504;6,52
423,76;6,53
424,016;6,53
424,272;6,49
424,528;6,41
424,784;6,38
425,041;6,39
425,297;6,4
425,553;6,42
425,809;6,4
426,065;6,36
426,32;6,35
426,576;6,42
426,832;6,39
427,088;6,4
427,344;6,39
427,6;6,44
427,856;6,43
428,112;6,44
428,368;6,47
428,623;6,46
428,879;6,42
429,135;6,44
429,391;6,43
429,646;6,46
429,902;6,5
430,158;6,58
430,414;6,54
430,669;6,59
430,925;6,6
431,181;6,64
431,436;6,66
431,692;6,66
431,947;6,62
432,203;6,64
432,458;6,62
432,714;6,62
432,97;6,63
433,225;6,64
433,481;6,61
433,736;6,61
433,991;6,6
434,247;6,56
434,502;6,6
434,758;6,63
435,013;6,6
435,268;6,56
435,524;6,52
435,779;6,54
436,034;6,52
436,29;6,49
436,545;6,42
436,8;6,4
437,056;6,41
437,311;6,4
437,566;6,41
437,821;6,42
438,076;6,42
438,331;6,42
438,587;6,48
438,842;6,47
439,097;6,47
439,352;6,45
439,607;6,46
439,862;6,38
440,117;6,36
440,372;6,34
440,627;6,39
440,882;6,33
441,137;6,37
441,392;6,39
441,647;6,44
441,902;6,51
442,157;6,56
442,412;6,56
442,667;6,55
442,921;6,59
443,176;6,61
443,431;6,66
443,686;6,65
443,941;6,61
444,195;6,63
444,45;6,57
444,705;6,62
444,96;6,68
445,214;6,68
445,469;6,66
445,724;6,67
445,978;6,67
446,233;6,72
446,487;6,73
446,742;6,7
446,997;6,68
447,251;6,67
447,506;6,64
447,76;6,63
448,015;6,63
448,269;6,63
448,524;6,64
448,778;6,6
449,033;6,57
449,287;6,56
449,541;6,55
449,796;6,63
450,05;6,65
450,305;6,61
450,559;6,67
450,813;6,71
451,067;6,68
451,322;6,69
451,576;6,71
451,83;6,7
452,084;6,76
452,339;6,82
452,593;6,83
452,847;6,83
453,101;6,83
453,355;6,84
453,609;6,86
453,864;6,83
454,118;6,78
454,372;6,77
454,626;6,79
454,88;6,78
455,134;6,78
455,388;6,76
455,642;6,79
455,896;6,77
456,15;6,73
456,404;6,8
456,658;6,78
456,912;6,76
457,165;6,74
457,419;6,68
457,673;6,62
457,927;6,55
458,181;6,58
458,435;6,58
458,688;6,56
458,942;6,53
459,196;6,52
459,45;6,52
459,703;6,55
459,957;6,51
460,211;6,51
460,464;6,49
460,718;6,5
460,972;6,46
461,225;6,46
461,479;6,46
461,732;6,41
461,986;6,43
462,239;6,43
462,493;6,41
462,746;6,48
463;6,46
463,253;6,51
463,507;6,46
463,76;6,52
464,014;6,5
464,267;6,5
464,52;6,53
464,774;6,59
465,027;6,62
465,28;6,66
465,534;6,64
465,787;6,65
466,04;6,62
466,294;6,64
466,547;6,62
466,8;6,66
467,053;6,69
467,306;6,7
467,56;6,72
467,813;6,75
468,066;6,68
468,319;6,69
468,572;6,67
468,825;6,69
469,078;6,65
469,331;6,7
469,584;6,7
469,837;6,67
470,09;6,7
470,343;6,67
470,596;6,69
470,849;6,73
471,102;6,72
471,355;6,75
471,608;6,75
471,861;6,8
472,114;6,8
472,367;6,79
472,619;6,8
472,872;6,79
473,125;6,79
473,378;6,82
473,631;6,86
473,883;6,88
474,136;6,88
474,389;6,91
474,641;6,91
474,894;6,87
475,147;6,92
475,399;6,9
475,652;6,91
475,905;6,89
476,157;6,91
476,41;6,94
476,662;6,94
476,915;6,94
477,167;6,95
477,42;6,94
477,672;6,97
477,925;6,96
478,177;6,99
478,43;7,02
478,682;7,03
478,934;7,01
479,187;7,02
479,439;7,03
479,691;7,04
479,944;7,05
480,196;7,1
480,448;7,08
480,701;7,08
480,953;7,09
481,205;7,11
481,457;7,1
481,709;7,09
481,962;7,1
482,214;7,15
482,466;7,15
482,718;7,2
482,97;7,23
483,222;7,26
483,474;7,29
483,726;7,32
483,978;7,33
484,23;7,37
484,482;7,37
484,734;7,38
484,986;7,37
485,238;7,38
485,49;7,38
485,742;7,39
485,994;7,39
486,246;7,38
486,498;7,35
486,75;7,38
487,001;7,37
487,253;7,38
487,505;7,35
487,757;7,34
488,009;7,33
488,26;7,33
488,512;7,32
488,764;7,28
489,015;7,27
489,267;7,26
489,519;7,24
489,77;7,26
490,022;7,28
490,274;7,27
490,525;7,29
490,777;7,27
491,028;7,28
491,28;7,29
491,531;7,31
491,783;7,32
492,034;7,3
492,286;7,32
492,537;7,34
492,789;7,35
493,04;7,36
493,291;7,34
493,543;7,36
493,794;7,35
494,045;7,37
494,297;7,37
494,548;7,37
494,799;7,37
495,051;7,36
495,302;7,37
495,553;7,39
495,804;7,39
496,056;7,4
496,307;7,38
496,558;7,4
496,809;7,38
497,06;7,42
497,311;7,42
497,562;7,41
497,813;7,4
498,064;7,4
498,316;7,42
498,567;7,44
498,818;7,38
499,069;7,37
499,319;7,36
499,57;7,36
499,821;7,34
500,072;7,37
500,323;7,37
500,574;7,35
500,825;7,36
501,076;7,36
501,327;7,38
501,577;7,41
501,828;7,41
502,079;7,42
502,33;7,43
502,58;7,45
502,831;7,46
503,082;7,47
503,333;7,5
503,583;7,51
503,834;7,55
504,084;7,58
504,335;7,59
504,586;7,6
504,836;7,61
505,087;7,63
505,337;7,62
505,588;7,62
505,838;7,62
506,089;7,63
506,339;7,63
506,59;7,64
506,84;7,65
507,091;7,68
507,341;7,68
507,591;7,68
507,842;7,69
508,092;7,71
508,343;7,73
508,593;7,71
508,843;7,69
509,093;7,67
509,344;7,69
509,594;7,72
509,844;7,74
510,094;7,73
510,345;7,73
510,595;7,74
510,845;7,75
511,095;7,76
511,345;7,75
511,595;7,78
511,845;7,76
512,095;7,75
512,345;7,75
512,595;7,76
512,845;7,76
513,095;7,76
513,345;7,77
513,595;7,74
513,845;7,75
514,095;7,75
514,345;7,77
514,595;7,77
514,845;7,75
515,095;7,74
515,345;7,76
515,594;7,76
515,844;7,76
516,094;7,78
516,344;7,78
516,593;7,78
516,843;7,75
517,093;7,77
517,343;7,79
517,592;7,78
517,842;7,8
518,092;7,84
518,341;7,82
518,591;7,83
518,84;7,85
519,09;7,87
519,34;7,89
519,589;7,88
519,839;7,87
520,088;7,88
520,338;7,88
520,587;7,89
520,836;7,92
521,086;7,92
521,335;7,92
521,585;7,95
521,834;7,95
522,083;7,98
522,333;7,99
522,582;8
522,831;8
523,081;7,98
523,33;7,97
523,579;8
523,828;8,01
524,078;7,98
524,327;7,98
524,576;7,96
524,825;7,98
525,074;8,02
525,323;8,04
525,573;8,05
525,822;8,08
526,071;8,09
526,32;8,11
526,569;8,13
526,818;8,15
527,067;8,17
527,316;8,17
527,565;8,18
527,814;8,2
528,063;8,21
528,312;8,24
528,56;8,24
528,809;8,23
529,058;8,26
529,307;8,32
529,556;8,33
529,805;8,37
530,053;8,4
530,302;8,4
530,551;8,42
530,8;8,45
531,048;8,45
531,297;8,45
531,546;8,44
531,794;8,46
532,043;8,47
532,292;8,48
532,54;8,51
532,789;8,5
533,037;8,5
533,286;8,52
533,535;8,55
533,783;8,57
534,032;8,58
534,28;8,58
534,528;8,59
534,777;8,59
535,025;8,6
535,274;8,62
535,522;8,64
535,771;8,63
536,019;8,65
536,267;8,66
536,516;8,69
536,764;8,73
537,012;8,74
537,26;8,76
537,509;8,81
537,757;8,82
538,005;8,85
538,253;8,88
538,501;8,9
538,75;8,87
538,998;8,9
539,246;8,93
539,494;8,94
539,742;8,95
539,99;8,98
540,238;9
540,486;9,03
540,734;9,02
540,982;9,07
541,23;9,09
541,478;9,12
541,726;9,14
541,974;9,15
542,222;9,19
542,47;9,21
542,718;9,18
542,966;9,18
543,213;9,19
543,461;9,22
543,709;9,26
543,957;9,33
544,205;9,35
544,452;9,38
544,7;9,41
544,948;9,46
545,196;9,47
545,443;9,52
545,691;9,54
545,939;9,57
546,186;9,58
546,434;9,61
546,681;9,63
546,929;9,67
547,176;9,67
547,424;9,67
547,671;9,7
547,919;9,75
548,166;9,81
548,414;9,87
548,661;9,9
548,909;9,92
549,156;9,95
549,404;10
549,651;10,02
549,898;10,05
550,146;10,08
550,393;10,13
550,64;10,17
550,888;10,21
551,135;10,25
551,382;10,29
551,629;10,3
551,876;10,36
552,124;10,4
552,371;10,47
552,618;10,51
552,865;10,57
553,112;10,59
553,359;10,63
553,606;10,66
553,854;10,69
554,101;10,73
554,348;10,75
554,595;10,79
554,842;10,84
555,089;10,87
555,336;10,89
555,582;10,92
555,829;10,94
556,076;10,97
556,323;11,01
556,57;11,06
556,817;11,14
557,064;11,19
557,311;11,25
557,557;11,25
557,804;11,32
558,051;11,35
558,298;11,41
558,544;11,45
558,791;11,51
559,038;11,55
559,284;11,6
559,531;11,66
559,778;11,71
560,024;11,76
560,271;11,82
560,517;11,89
560,764;11,95
561,011;12,02
561,257;12,08
561,504;12,14
561,75;12,19
561,997;12,21
562,243;12,25
562,489;12,28
562,736;12,37
562,982;12,42
563,229;12,51
563,475;12,57
563,721;12,65
563,968;12,71
564,214;12,81
564,46;12,87
564,707;12,94
564,953;13,01
565,199;13,1
565,445;13,18
565,691;13,27
565,938;13,36
566,184;13,43
566,43;13,51
566,676;13,6
566,922;13,69
567,168;13,78
567,414;13,89
567,66;13,98
567,906;14,1
568,152;14,21
568,398;14,3
568,644;14,4
568,89;14,48
569,136;14,59
569,382;14,67
569,628;14,78
569,874;14,87
570,12;14,94
570,366;15,04
570,612;15,15
570,857;15,22
571,103;15,32
571,349;15,4
571,595;15,51
571,84;15,61
572,086;15,71
572,332;15,81
572,578;15,89
572,823;15,99
573,069;16,05
573,315;16,12
573,56;16,2
573,806;16,3
574,051;16,4
574,297;16,49
574,542;16,59
574,788;16,68
575,034;16,76
575,279;16,86
575,524;16,94
575,77;17,02
576,015;17,11
576,261;17,17
576,506;17,28
576,752;17,34
576,997;17,42
577,242;17,51
577,488;17,61
577,733;17,68
577,978;17,77
578,223;17,87
578,469;17,97
578,714;18,06
578,959;18,16
579,204;18,25
579,45;18,33
579,695;18,4
579,94;18,48
580,185;18,56
580,43;18,63
580,675;18,7
580,92;18,79
581,165;18,87
581,41;18,96
581,655;19,03
581,9;19,12
582,145;19,2
582,39;19,27
582,635;19,33
582,88;19,43
583,125;19,5
583,37;19,59
583,615;19,65
583,86;19,72
584,105;19,79
584,349;19,87
584,594;19,96
584,839;20,07
585,084;20,17
585,328;20,26
585,573;20,36
585,818;20,43
586,063;20,49
586,307;20,57
586,552;20,63
586,797;20,69
587,041;20,75
587,286;20,82
587,53;20,88
587,775;20,96
588,019;21
588,264;21,07
588,508;21,12
588,753;21,21
588,997;21,28
589,242;21,34
589,486;21,41
589,731;21,5
589,975;21,57
590,22;21,65
590,464;21,75
590,708;21,83
590,953;21,92
591,197;22,02
591,441;22,13
591,685;22,22
591,93;22,31
592,174;22,4
592,418;22,48
592,662;22,58
592,907;22,66
593,151;22,77
593,395;22,85
593,639;22,94
593,883;23,02
594,127;23,12
594,371;23,18
594,615;23,25
594,859;23,3
595,103;23,38
595,347;23,43
595,591;23,5
595,835;23,55
596,079;23,64
596,323;23,73
596,567;23,79
596,811;23,88
597,055;23,96
597,299;24,06
597,542;24,17
597,786;24,24
598,03;24,33
598,274;24,42
598,518;24,49
598,761;24,56
599,005;24,62
599,249;24,72
599,492;24,82
599,736;24,89
599,98;24,98
600,223;25,07
600,467;25,16
600,711;25,24
600,954;25,33
601,198;25,4
601,441;25,47
601,685;25,53
601,928;25,59
602,172;25,66
602,415;25,74
602,659;25,8
602,902;25,88
603,145;25,94
603,389;26,01
603,632;26,08
603,876;26,18
604,119;26,26
604,362;26,32
604,606;26,39
604,849;26,49
605,092;26,55
605,335;26,63
605,579;26,68
605,822;26,75
606,065;26,81
606,308;26,91
606,551;26,97
606,794;27,05
607,037;27,14
607,281;27,22
607,524;27,3
607,767;27,36
608,01;27,43
608,253;27,49
608,496;27,54
608,739;27,61
608,982;27,67
609,225;27,74
609,468;27,79
609,711;27,84
609,953;27,87
610,196;27,95
610,439;28,01
610,682;28,09
610,925;28,15
611,168;28,21
611,41;28,27
611,653;28,32
611,896;28,38
612,139;28,44
612,381;28,48
612,624;28,55
612,867;28,6
613,109;28,66
613,352;28,72
613,595;28,82
613,837;28,87
614,08;28,93
614,322;28,98
614,565;29,07
614,807;29,14
615,05;29,21
615,292;29,24
615,535;29,29
615,777;29,34
616,02;29,41
616,262;29,47
616,505;29,54
616,747;29,61
616,989;29,7
617,232;29,76
617,474;29,86
617,716;29,89
617,959;29,97
618,201;30,04
618,443;30,11
618,685;30,14
618,927;30,21
619,17;30,28
619,412;30,33
619,654;30,38
619,896;30,44
620,138;30,5
620,38;30,56
620,622;30,62
620,864;30,67
621,107;30,71
621,349;30,78
621,591;30,82
621,833;30,9
622,075;30,94
622,316;31
622,558;31,06
622,8;31,11
623,042;31,18
623,284;31,26
623,526;31,31
623,768;31,37
624,01;31,42
624,251;31,49
624,493;31,55
624,735;31,58
624,977;31,63
625,218;31,7
625,46;31,75
625,702;31,81
625,943;31,87
626,185;31,92
626,427;31,97
626,668;32,03
626,91;32,06
627,152;32,11
627,393;32,14
627,635;32,15
627,876;32,19
628,118;32,2
628,359;32,23
628,601;32,25
628,842;32,29
629,084;32,34
629,325;32,33
629,566;32,38
629,808;32,46
630,049;32,5
630,29;32,52
630,532;32,57
630,773;32,61
631,014;32,65
631,256;32,71
631,497;32,75
631,738;32,78
631,979;32,8
632,22;32,82
632,462;32,86
632,703;32,94
632,944;33
633,185;33,04
633,426;33,11
633,667;33,18
633,908;33,2
634,149;33,24
634,39;33,34
634,631;33,4
634,872;33,42
635,113;33,47
635,354;33,52
635,595;33,55
635,836;33,56
636,077;33,6
636,318;33,65
636,559;33,7
636,8;33,75
637,04;33,81
637,281;33,83
637,522;33,88
637,763;33,91
638,003;33,95
638,244;33,97
638,485;33,99
638,726;34,01
638,966;34,06
639,207;34,09
639,448;34,13
639,688;34,16
639,929;34,2
640,169;34,23
640,41;34,25
640,65;34,31
640,891;34,36
641,131;34,4
641,372;34,43
641,612;34,47
641,853;34,53
642,093;34,58
642,334;34,64
642,574;34,67
642,814;34,69
643,055;34,73
643,295;34,8
643,535;34,85
643,776;34,88
644,016;34,93
644,256;34,97
644,496;34,99
644,737;35,03
644,977;35,08
645,217;35,13
645,457;35,2
645,697;35,23
645,938;35,3
646,178;35,36
646,418;35,41
646,658;35,45
646,898;35,47
647,138;35,5
647,378;35,57
647,618;35,64
647,858;35,69
648,098;35,73
648,338;35,78
648,578;35,82
648,818;35,88
649,057;35,92
649,297;35,97
649,537;36
649,777;36,05
650,017;36,08
650,257;36,14
650,496;36,16
650,736;36,2
650,976;36,24
651,216;36,26
651,455;36,29
651,695;36,34
651,935;36,42
652,174;36,52
652,414;36,71
652,653;36,88
652,893;37,07
653,133;37,24
653,372;37,37
653,612;37,48
653,851;37,56
654,091;37,6
654,33;37,66
654,57;37,7
654,809;37,73
655,048;37,75
655,288;37,78
655,527;37,8
655,767;37,81
656,006;37,81
656,245;37,83
656,485;37,85
656,724;37,85
656,963;37,85
657,202;37,85
657,442;37,82
657,681;37,81
657,92;37,8
658,159;37,78
658,398;37,75
658,637;37,72
658,877;37,71
659,116;37,73
659,355;37,72
659,594;37,75
659,833;37,74
660,072;37,77
660,311;37,79
660,55;37,81
660,789;37,88
661,028;37,95
661,267;37,97
661,506;38,01
661,744;38,06
661,983;38,1
662,222;38,14
662,461;38,18
662,7;38,2
662,939;38,2
663,177;38,23
663,416;38,27
663,655;38,3
663,894;38,32
664,132;38,36
664,371;38,39
664,61;38,37
664,848;38,47
665,087;38,5
665,326;38,53
665,564;38,6
665,803;38,6
666,041;38,63
666,28;38,7
666,518;38,75
666,757;38,79
666,995;38,83
667,234;38,87
667,472;38,92
667,711;38,96
667,949;39
668,187;39,02
668,426;39,08
668,664;39,16
668,902;39,18
669,141;39,21
669,379;39,25
669,617;39,32
669,856;39,35
670,094;39,41
670,332;39,45
670,57;39,46
670,808;39,52
671,046;39,56
671,285;39,59
671,523;39,64
671,761;39,7
671,999;39,7
672,237;39,78
672,475;39,83
672,713;39,85
672,951;39,93
673,189;39,97
673,427;40,01
673,665;40
673,903;40,04
674,141;40,13
674,379;40,19
674,617;40,23
674,854;40,26
675,092;40,29
675,33;40,34
675,568;40,4
675,806;40,47
676,043;40,5
676,281;40,56
676,519;40,63
676,756;40,65
676,994;40,71
677,232;40,72
677,469;40,76
677,707;40,83
677,945;40,86
678,182;40,92
678,42;41
678,657;41,06
678,895;41,13
679,132;41,14
679,37;41,15
679,607;41,18
679,845;41,22
680,082;41,27
680,32;41,3
680,557;41,35
680,794;41,36
681,032;41,4
681,269;41,44
681,507;41,47
681,744;41,51
681,981;41,61
682,218;41,64
682,456;41,64
682,693;41,7
682,93;41,77
683,167;41,8
683,404;41,8
683,642;41,84
683,879;41,87
684,116;41,96
684,353;42
684,59;42,05
684,827;42,06
685,064;42,05
685,301;42,08
685,538;42,1
685,775;42,15
686,012;42,19
686,249;42,21
686,486;42,23
686,723;42,27
686,96;42,27
687,197;42,31
687,433;42,4
687,67;42,45
687,907;42,46
688,144;42,51
688,381;42,58
688,617;42,6
688,854;42,66
689,091;42,68
689,327;42,75
689,564;42,78
689,801;42,83
690,037;42,91
690,274;42,96
690,511;43,02
690,747;43,05
690,984;43,11
691,22;43,15
691,457;43,17
691,693;43,2
691,93;43,25
692,166;43,29
692,403;43,34
692,639;43,35
692,876;43,37
693,112;43,42
693,348;43,44
693,585;43,48
693,821;43,51
694,057;43,54
694,294;43,58
694,53;43,64
694,766;43,7
695,002;43,76
695,239;43,83
695,475;43,86
695,711;43,89
695,947;43,91
696,183;43,97
696,419;44,05
696,656;44,11
696,892;44,16
697,128;44,21
697,364;44,22
697,6;44,22
697,836;44,26
698,072;44,28
698,308;44,34
698,544;44,4
698,78;44,4
699,016;44,41
699,251;44,43
699,487;44,46
699,723;44,51
699,959;44,57
700,195;44,59
700,431;44,63
700,666;44,68
700,902;44,73
701,138;44,78
701,374;44,8
701,609;44,84
701,845;44,85
702,081;44,89
702,316;44,92
702,552;44,96
702,788;45,02
703,023;45,07
703,259;45,08
703,494;45,14
703,73;45,21
703,965;45,28
704,201;45,34
704,436;45,37
704,672;45,4
704,907;45,42
705,143;45,47
705,378;45,55
705,613;45,61
705,849;45,64
706,084;45,66
706,319;45,71
706,555;45,75
706,79;45,82
707,025;45,86
707,26;45,96
707,496;46,04
707,731;46,06
707,966;46,12
708,201;46,17
708,436;46,21
708,671;46,26
708,907;46,31
709,142;46,35
709,377;46,39
709,612;46,46
709,847;46,51
710,082;46,52
710,317;46,52
710,552;46,56
710,787;46,62
711,022;46,66
711,257;46,68
711,492;46,71
711,726;46,73
711,961;46,76
712,196;46,76
712,431;46,79
712,666;46,84
712,901;46,88
713,135;46,89
713,37;46,95
713,605;46,96
713,839;47,01
714,074;47,04
714,309;47,07
714,543;47,09
714,778;47,09
715,013;47,15
715,247;47,19
715,482;47,2
715,716;47,21
715,951;47,24
716,185;47,31
716,42;47,36
716,654;47,43
716,889;47,45
717,123;47,47
717,358;47,49
717,592;47,52
717,827;47,53
718,061;47,56
718,295;47,56
718,53;47,58
718,764;47,59
718,998;47,64
719,232;47,66
719,467;47,69
719,701;47,71
719,935;47,74
720,169;47,8
720,403;47,8
720,638;47,86
720,872;47,89
721,106;47,86
721,34;47,87
721,574;47,87
721,808;47,89
722,042;47,93
722,276;47,96
722,51;47,99
722,744;48,06
722,978;48,07
723,212;48,09
723,446;48,13
723,68;48,16
723,914;48,19
724,147;48,26
724,381;48,27
724,615;48,36
724,849;48,37
725,083;48,38
725,316;48,43
725,55;48,45
725,784;48,52
726,018;48,56
726,251;48,61
726,485;48,65
726,719;48,68
726,952;48,72
727,186;48,76
727,419;48,79
727,653;48,78
727,887;48,86
728,12;48,92
728,354;48,94
728,587;48,97
728,821;48,98
729,054;49
729,287;49,01
729,521;49,01
729,754;49,04
729,988;49,05
730,221;49,11
730,454;49,13
730,688;49,09
730,921;49,11
731,154;49,15
731,387;49,17
731,621;49,21
731,854;49,19
732,087;49,2
732,32;49,22
732,553;49,25
732,787;49,26
733,02;49,29
733,253;49,32
733,486;49,31
733,719;49,33
733,952;49,35
734,185;49,39
734,418;49,38
734,651;49,4
734,884;49,43
735,117;49,42
735,35;49,4
735,583;49,43
735,816;49,47
736,049;49,47
736,281;49,5
736,514;49,51
736,747;49,54
736,98;49,6
737,213;49,6
737,445;49,62
737,678;49,63
737,911;49,6
738,144;49,6
738,376;49,64
738,609;49,68
738,842;49,65
739,074;49,63
739,307;49,67
739,539;49,67
739,772;49,68
740,004;49,71
740,237;49,75
740,469;49,75
740,702;49,74
740,934;49,77
741,167;49,75
741,399;49,74
741,632;49,76
741,864;49,74
742,096;49,77
742,329;49,76
742,561;49,77
742,793;49,76
743,026;49,76
743,258;49,77
743,49;49,71
743,723;49,71
743,955;49,67
744,187;49,67
744,419;49,67
744,651;49,64
744,883;49,66
745,115;49,63
745,348;49,66
745,58;49,65
745,812;49,6
746,044;49,64
746,276;49,63
746,508;49,62
746,74;49,6
746,972;49,6
747,204;49,59
747,436;49,55
747,667;49,58
747,899;49,56
748,131;49,56
748,363;49,59
748,595;49,61
748,827;49,64
749,058;49,65
749,29;49,62
749,522;49,58
749,754;49,56
749,985;49,56
750,217;49,52
750,449;49,5
750,68;49,49
750,912;49,5
751,144;49,54
751,375;49,54
751,607;49,53
751,838;49,5
752,07;49,49
752,301;49,48
752,533;49,47
752,764;49,5
752,996;49,47
753,227;49,46
753,459;49,42
753,69;49,43
753,921;49,43
754,153;49,43
754,384;49,45
754,615;49,44
754,847;49,44
755,078;49,47
755,309;49,5
755,54;49,46
755,772;49,42
756,003;49,39
756,234;49,38
756,465;49,4
756,696;49,39
756,927;49,41
757,159;49,41
757,39;49,42
757,621;49,4
757,852;49,39
758,083;49,39
758,314;49,4
758,545;49,39
758,776;49,38
759,007;49,37
759,238;49,42
759,469;49,41
759,699;49,4
759,93;49,37
760,161;49,36
760,392;49,35
760,623;49,3
760,854;49,26
761,084;49,21
761,315;49,16
761,546;49,12
761,776;49,08
762,007;49,04
762,238;49,03
762,468;48,95
762,699;48,95
762,93;48,94
763,16;48,9
763,391;48,88
763,621;48,84
763,852;48,84
764,083;48,78
764,313;48,74
764,543;48,72
764,774;48,68
765,004;48,61
765,235;48,6
765,465;48,62
765,696;48,6
765,926;48,62
766,156;48,58
766,387;48,6
766,617;48,58
766,847;48,6
767,077;48,51
767,308;48,55
767,538;48,53
767,768;48,47
767,998;48,47
768,228;48,43
768,459;48,43
768,689;48,43
768,919;48,42
769,149;48,4
769,379;48,36
769,609;48,33
769,839;48,4
770,069;48,42
770,299;48,39
770,529;48,36
770,759;48,33
770,989;48,34
771,219;48,3
771,449;48,28
771,678;48,23
771,908;48,24
772,138;48,22
772,368;48,17
772,598;48,14
772,827;48,14
773,057;48,1
773,287;48,07
773,517;47,99
773,746;47,97
773,976;47,96
774,206;47,95
774,435;47,92
774,665;47,84
774,894;47,77
775,124;47,71
775,354;47,68
775,583;47,68
775,813;47,66
776,042;47,62
776,272;47,57
776,501;47,53
776,73;47,49
776,96;47,47
777,189;47,44
777,419;47,47
777,648;47,4
777,877;47,36
778,107;47,31
778,336;47,31
778,565;47,27
778,794;47,27
779,024;47,28
779,253;47,31
779,482;47,3
779,711;47,28
779,94;47,28
780,17;47,27
780,399;47,22
780,628;47,18
780,857;47,16
781,086;47,16
781,315;47,21
781,544;47,24
781,773;47,19
782,002;47,2
782,231;47,17
782,46;47,19
782,689;47,19
782,918;47,13
783,147;47,09
783,375;47,06
783,604;47,02
783,833;46,97
784,062;46,85
784,291;46,8
784,519;46,78
784,748;46,77
784,977;46,76
785,206;46,74
785,434;46,69
785,663;46,67
785,892;46,65
786,12;46,61
786,349;46,55
786,577;46,53
786,806;46,49
787,034;46,44
787,263;46,38
787,492;46,33
787,72;46,37
787,948;46,31
788,177;46,29
788,405;46,18
788,634;46,16
788,862;46,18
789,09;46,12
789,319;46,07
789,547;46,02
789,775;45,92
790,004;45,91
790,232;45,91
790,46;45,86
790,688;45,78
790,917;45,7
791,145;45,67
791,373;45,64
791,601;45,65
791,829;45,61
792,057;45,55
792,286;45,51
792,514;45,46
792,742;45,42
792,97;45,42
793,198;45,42
793,426;45,31
793,654;45,29
793,882;45,3
794,109;45,32
794,337;45,3
794,565;45,28
794,793;45,22
795,021;45,19
795,249;45,15
795,477;45,17
795,704;45,13
795,932;45,04
796,16;45
796,388;44,89
796,615;44,83
796,843;44,8
797,071;44,81
797,298;44,78
797,526;44,76
797,754;44,66
797,981;44,66
798,209;44,66
798,436;44,55
798,664;44,57
798,891;44,5
799,119;44,42
799,346;44,39
799,574;44,35
799,801;44,33
800,029;44,24
800,256;44,21
800,483;44,18
800,711;44,18
800,938;44,07
801,165;44,09
801,393;44,05
801,62;44,01
801,847;43,98
802,074;43,87
802,302;43,88
802,529;43,85
802,756;43,81
802,983;43,81
803,21;43,87
803,437;43,8
803,665;43,81
803,892;43,81
804,119;43,74
804,346;43,75
804,573;43,75
804,8;43,73
805,027;43,64
805,254;43,6
805,481;43,56
805,708;43,58
805,934;43,51
806,161;43,51
806,388;43,5
806,615;43,4
806,842;43,45
807,069;43,42
807,295;43,43
807,522;43,42
807,749;43,42
807,976;43,3
808,202;43,26
808,429;43,17
808,656;43,16
808,882;43,15
809,109;43,05
809,335;42,97
809,562;42,96
809,789;42,96
810,015;42,97
810,242;42,97
810,468;42,9
810,695;42,9
810,921;42,89
811,147;42,85
811,374;42,83
811,6;42,82
811,827;42,78
812,053;42,7
812,279;42,62
812,506;42,54
812,732;42,57
812,958;42,55
813,185;42,52
813,411;42,4
813,637;42,43
813,863;42,43
814,089;42,43
814,315;42,42
814,542;42,41
814,768;42,32
814,994;42,23
815,22;42,25
815,446;42,25
815,672;42,18
815,898;42,21
816,124;42,18
816,35;42,11
816,576;42,05
816,802;42,06
817,028;42,02
817,254;42,03
817,48;41,96
817,705;41,96
817,931;41,97
818,157;41,98
818,383;41,91
818,609;41,86
818,834;41,85
819,06;41,79
819,286;41,78
819,512;41,83
819,737;41,83
819,963;41,76
820,189;41,67
820,414;41,7
820,64;41,6
820,865;41,61
821,091;41,56
821,316;41,52
821,542;41,5
821,767;41,52
821,993;41,48
822,218;41,42
822,444;41,31
822,669;41,24
822,895;41,25
823,12;41,23
823,345;41,17
823,571;41,05
823,796;41,05
824,021;40,93
824,247;40,89
824,472;40,85
824,697;40,86
824,922;40,85
825,147;40,82
825,373;40,8
825,598;40,78
825,823;40,79
826,048;40,76
826,273;40,74
826,498;40,78
826,723;40,75
826,948;40,8
827,173;40,84
827,398;40,82
827,623;40,8
827,848;40,78
828,073;40,81
828,298;40,83
828,523;40,76
828,748;40,77
828,973;40,65
829,197;40,62
829,422;40,56
829,647;40,51
829,872;40,45
830,097;40,42
830,321;40,43
830,546;40,36
830,771;40,35
830,995;40,34
831,22;40,26
831,445;40,17
831,669;40,19
831,894;40,18
832,118;40,15
832,343;40,13
832,567;40,06
832,792;40,04
833,016;40,03
833,241;40,06
833,465;40,05
833,69;40,07
833,914;40,09
834,139;40,09
834,363;40,05
834,587;40,08
834,812;40,04
835,036;39,97
835,26;39,96
835,485;39,95
835,709;39,92
835,933;39,92
836,157;39,92
836,381;39,87
836,606;39,82
836,83;39,79
837,054;39,79
837,278;39,8
837,502;39,77
837,726;39,74
837,95;39,69
838,174;39,7
838,398;39,7
838,622;39,67
838,846;39,61
839,07;39,58
839,294;39,51
839,518;39,54
839,742;39,53
839,966;39,52
840,189;39,54
840,413;39,53
840,637;39,5
840,861;39,54
841,085;39,45
841,308;39,39
841,532;39,33
841,756;39,29
841,979;39,28
842,203;39,27
842,427;39,25
842,65;39,21
842,874;39,19
843,098;39,14
843,321;39,15
843,545;39,22
843,768;39,21
843,992;39,15
844,215;39,13
844,439;39,07
844,662;39,03
844,886;38,95
845,109;38,92
845,332;38,85
845,556;38,81
845,779;38,78
846,002;38,82
846,226;38,87
846,449;38,78
846,672;38,74
846,895;38,73
847,119;38,67
847,342;38,68
847,565;38,59
847,788;38,65
848,011;38,61
848,234;38,59
848,457;38,57
848,681;38,62
848,904;38,59
849,127;38,61
849,35;38,68
849,573;38,75
849,796;38,7
850,019;38,7
850,241;38,73
850,464;38,72
850,687;38,74
850,91;38,71
851,133;38,72
851,356;38,78
851,579;38,77
851,801;38,77
852,024;38,76
852,247;38,82
852,47;38,7
852,692;38,69
852,915;38,62
853,138;38,68
853,36;38,69
853,583;38,62
853,806;38,63
854,028;38,51
854,251;38,45
854,473;38,52
854,696;38,51
854,918;38,47
855,141;38,51
855,363;38,48
855,586;38,51
855,808;38,43
856,031;38,33
856,253;38,36
856,475;38,39
856,698;38,35
856,92;38,25
857,142;38,33
857,365;38,31
857,587;38,3
857,809;38,25
858,031;38,18
858,253;38,15
858,476;38,09
858,698;38,12
858,92;38,11
859,142;38,11
859,364;38,1
859,586;38,13
859,808;38,09
860,03;38,02
860,252;37,98
860,474;38,11
860,696;38,21
860,918;38,13
861,14;38,15
861,362;38,13
861,584;38,23
861,806;38,24
862,028;38,26
862,25;38,32
862,471;38,34
862,693;38,35
862,915;38,41
863,137;38,4
863,358;38,43
863,58;38,43
863,802;38,34
864,024;38,34
864,245;38,25
864,467;38,29
864,688;38,3
864,91;38,29
865,132;38,18
865,353;38,07
865,575;38,05
865,796;38,02
866,018;38,01
866,239;37,96
866,461;37,95
866,682;37,97
866,903;37,85
867,125;37,77
867,346;37,69
867,567;37,67
867,789;37,65
868,01;37,65
868,231;37,6
868,453;37,6
868,674;37,58
868,895;37,57
869,116;37,47
869,337;37,52
869,559;37,47
869,78;37,57
870,001;37,57
870,222;37,63
870,443;37,63
870,664;37,7
870,885;37,71
871,106;37,64
871,327;37,61
871,548;37,7
871,769;37,78
871,99;37,93
872,211;37,94
872,432;37,97
872,653;37,98
872,874;37,98
873,094;38,03
873,315;38,06
873,536;38,1
873,757;38,16
873,978;38,17
874,198;38,19
874,419;38,15
874,64;38,13
874,86;38,07
875,081;38,06
875,302;38,06
875,522;38,14
875,743;38,14
875,963;38,12
876,184;38,08
876,404;37,99
876,625;37,92
876,845;38
877,066;38,01
877,286;37,99
877,507;38,05
877,727;38
877,947;37,97
878,168;37,91
878,388;37,92
878,609;37,88
878,829;37,94
879,049;37,92
879,269;37,94
879,49;38,01
879,71;38,03
879,93;37,99
880,15;37,95
880,37;37,97
880,59;37,87
880,811;37,97
881,031;37,97
881,251;37,97
881,471;37,88
881,691;37,86
881,911;37,84
882,131;37,79
882,351;37,74
882,571;37,76
882,791;37,9
883,011;37,86
883,23;37,89
883,45;37,87
883,67;37,9
883,89;37,9
884,11;37,81
884,33;37,8
884,549;37,82
884,769;37,76
884,989;37,78
885,209;37,88
885,428;37,82
885,648;37,81
885,868;37,85
886,087;37,83
886,307;37,83
886,526;37,86
886,746;37,87
886,965;37,92
887,185;37,92
887,404;37,87
887,624;37,91
887,843;37,86
888,063;37,88
888,282;37,95
888,502;38,02
888,721;38,14
888,94;38,26
889,16;38,21
889,379;38,25
889,598;38,27
889,818;38,24
890,037;38,22
890,256;38,34
890,475;38,36
890,694;38,39
890,914;38,41
891,133;38,39
891,352;38,4
891,571;38,35
891,79;38,36
892,009;38,3
892,228;38,3
892,447;38,28
892,666;38,25
892,885;38,16
893,104;38,13
893,323;38,09
893,542;38,06
893,761;38,02
893,98;38,01
894,199;37,98
894,417;38,05
894,636;38,02
894,855;38,05
895,074;38,05
895,293;38,1
895,511;38,06
895,73;38,02
895,949;38,03
896,167;38,03
896,386;38,06
896,605;38,09
896,823;38
897,042;38,09
897,26;38,08
897,479;38,16
897,697;38,1
897,916;38,11
898,134;37,96
898,353;38,09
898,571;38,13
898,79;38,08
899,008;38,07
899,227;38,09
899,445;38,11
899,663;38,03
899,882;38,09
900,1;38,15
900,318;38,31
900,536;38,34
900,755;38,44
900,973;38,31
901,191;38,31
901,409;38,48
901,627;38,43
901,846;38,56
902,064;38,49
902,282;38,56
902,5;38,5
902,718;38,58
902,936;38,55
903,154;38,49
903,372;38,54
903,59;38,57
903,808;38,53
904,026;38,52
904,244;38,59
904,462;38,47
904,679;38,49
904,897;38,49
905,115;38,48
905,333;38,5
905,551;38,56
905,768;38,6
905,986;38,55
906,204;38,67
906,422;38,64
906,639;38,7
906,857;38,77
907,074;38,81
907,292;38,82
907,51;38,96
907,727;38,98
907,945;39,02
908,162;39,02
908,38;39,11
908,597;39,11
908,815;39,16
909,032;39,19
909,25;39,21
909,467;39,09
909,684;38,99
909,902;38,94
910,119;39,1
910,337;39,21
910,554;39,17
910,771;39,08
910,988;39,15
911,206;39,18
911,423;39,16
911,64;39,27
911,857;39,23
912,074;39,2
912,291;39,29
912,509;39,37
912,726;39,39
912,943;39,4
913,16;39,47
913,377;39,51
913,594;39,59
913,811;39,58
914,028;39,61
914,245;39,69
914,462;39,7
914,679;39,72
914,896;39,72
915,112;39,7
915,329;39,84
915,546;39,7
915,763;39,73
915,98;39,65
916,196;39,52
916,413;39,62
916,63;39,65
916,847;39,59
917,063;39,6
917,28;39,58
917,497;39,64
917,713;39,56
917,93;39,69
918,146;39,64
918,363;39,83
918,579;39,87
918,796;40
919,012;40,03
919,229;39,91
919,445;40,03
919,662;40,2
919,878;40,16
920,095;40,26
920,311;40,3
920,527;40,47
920,744;40,6
920,96;40,64
921,176;40,66
921,392;40,73
921,609;40,73
921,825;40,76
922,041;40,72
922,257;40,64
922,473;40,63
922,69;40,8
922,906;40,69
923,122;40,81
923,338;40,78
923,554;40,67
923,77;40,69
923,986;40,59
924,202;40,51
924,418;40,62
924,634;40,62
924,85;40,63
925,066;40,67
925,282;40,72
925,497;40,71
925,713;40,7
925,929;40,72
926,145;40,71
926,361;40,74
926,576;40,86
926,792;40,88
927,008;40,76
927,224;40,69
927,439;40,72
927,655;40,69
927,871;40,66
928,086;40,73
928,302;40,77
928,517;40,77
928,733;40,8
928,948;40,81
929,164;40,76
929,379;40,74
929,595;40,64
929,81;40,73
930,026;40,75
930,241;40,78
930,456;40,72
930,672;40,75
930,887;40,84
931,102;40,8
931,318;40,85
931,533;40,87
931,748;40,78
931,964;40,73
932,179;40,64
932,394;40,72
932,609;40,71
932,824;40,78
933,039;40,77
933,255;40,71
933,47;40,56
933,685;40,63
933,9;40,67
934,115;40,72
934,33;40,72
934,545;40,8
934,76;40,79
934,975;41,05
935,19;41,17
935,404;41,17
935,619;41,47
935,834;41,67
936,049;41,73
936,264;42
936,479;42,13
936,693;42,32
936,908;42,52
937,123;42,73
937,338;42,91
937,552;43,11
937,767;43,37
937,982;43,81
938,196;44,18
938,411;44,22
938,625;44,38
938,84;44,43
939,055;44,31
939,269;44,23
939,484;44,32
939,698;44,16
939,912;44,32
940,127;44,15
940,341;43,84
940,556;43,76
940,77;43,89
940,984;43,72
941,199;44,04
941,413;44,13
941,627;44,21
941,842;44,45
942,056;44,33
942,27;44,68
942,484;44,63
942,699;44,6
942,913;44,5
943,127;44,39
943,341;44,31
943,555;44,58
943,769;45,53
943,983;45,63
944,197;45,94
944,411;45,85
944,625;45,62
944,839;46,68
945,053;47,18
945,267;47,28
945,481;47,26
945,695;47,06
945,909;46,69
946,123;46,73
946,336;46,26
946,55;46,8
946,764;47,19
946,978;47
947,192;46,62
947,405;46,85
947,619;47,27
947,833;47,08
948,046;47,24
948,26;46,97
948,474;46,46
948,687;46,61
948,901;46,64
949,114;46,78
949,328;46,5
949,541;46,17
949,755;46,38
949,968;46,73
950,182;47,14
950,395;47,41
950,609;47,35
950,822;47,41
951,035;47,39
951,249;46,66
951,462;46,84
951,675;46,51
951,889;46,28
952,102;46,22
952,315;46,9
952,528;46,86
952,741;46,53
952,955;46,72
953,168;46,39
953,381;46,08
953,594;46,08
953,807;46,28
954,02;46,53
954,233;45,87
954,446;45,82
954,659;46,03
954,872;45,78
955,085;46,05
955,298;46,31
955,511;46,06
955,724;46,22
955,937;46,58
956,15;46,54
956,362;46,92
956,575;46,64
956,788;46,25
957,001;45,97
957,214;45,98
957,426;46,07
957,639;46,56
957,852;46,75
958,064;46,72
958,277;46,46
958,49;46,37
958,702;46,83
958,915;46,86
959,127;46,42
959,34;46,62
959,552;46,6
959,765;46,4
959,977;46,65
960,19;46,57
960,402;45,99
960,615;46,49
960,827;46,49
961,039;46,14
961,252;45,98
961,464;46,45
961,676;46,81
961,889;46,66
962,101;46,49
962,313;46,54
962,525;46,47
962,738;46,5
962,95;46,67
963,162;46,82
963,374;46,9
963,586;46,74
963,798;46,82
964,01;46,83
964,222;47,09
964,434;47,2
964,646;47,28
964,858;47,16
965,07;47,18
965,282;47,36
965,494;48,05
965,706;48,58
965,918;48,79
966,13;48,71
966,342;48,8
966,553;48,72
966,765;48,84
966,977;49,06
967,189;49,37
967,401;49,59
967,612;49,15
967,824;49,53
968,036;49,89
968,247;49,57
968,459;49,4
968,67;49,09
968,882;48,61
969,094;48,54
969,305;48,97
969,517;49,06
969,728;49
969,94;49,06
970,151;48,69
970,362;48,39
970,574;48,51
970,785;48,75
970,997;48,74
971,208;48,61
971,419;48,31
971,631;48,25
971,842;48,51
972,053;48,7
972,264;48,69
972,476;48,73
972,687;48,84
972,898;48,95
973,109;49,43
973,32;49,73
973,531;49,98
973,742;50
973,954;49,91
974,165;50,19
974,376;50,07
974,587;50,33
974,798;50,34
975,009;50,18
975,22;50,04
975,43;50,41
975,641;50,65
975,852;51,12
976,063;51,04
976,274;50,77
976,485;50,78
976,695;50,45
976,906;50,57
977,117;50,67
977,328;50,8
977,538;50,35
977,749;50,37
977,96;50,33
978,17;50,57
978,381;50,59
978,592;50,34
978,802;50,82
979,013;50,91
979,223;51,22
979,434;51,43
979,644;51,52
979,855;51,37
980,065;51,75
980,276;51,65
980,486;51,5
980,696;51,35
980,907;51,48
981,117;51,85
981,327;52,06
981,538;52,14
981,748;52,31
981,958;52,61
982,169;52,56
982,379;52,88
982,589;52,77
982,799;52,69
983,009;52,82
983,219;52,55
983,43;52,36
983,64;51,85
983,85;51,85
984,06;52,1
984,27;51,79
984,48;51,86
984,69;51,86
984,9;51,89
985,11;52,33
985,32;52,78
985,529;52,65
985,739;52,12
985,949;52,73
986,159;52,82
986,369;52,86
986,579;53,09
986,788;52,74
986,998;53,23
987,208;53,38
987,417;53,48
987,627;53,58
987,837;53,93
988,046;53,78
988,256;53,77
988,466;53,52
988,675;53,75
988,885;53,51
989,094;53,82
989,304;53,87
989,513;53,75
989,723;53,45
989,932;53,44
990,142;53,44
990,351;52,9
990,56;52,72
990,77;52,67
990,979;52,76
991,188;53,48
991,398;52,89
991,607;52,73
991,816;53
992,025;52,88
992,235;52,89
992,444;53,97
992,653;54,57
992,862;54,74
993,071;55,04
993,28;55,27
993,489;54,93
993,698;55,17
993,908;55,5
994,117;55,22
994,326;55,79
994,534;56,12
994,743;56,69
994,952;57,21
995,161;56,41
995,37;56,31
995,579;56,23
995,788;56,92
995,997;57,27
996,205;57,19
996,414;57,13
996,623;57,25
996,832;56,51
997,04;55,94
997,249;55,45
997,458;55,49
997,666;55,33
997,875;55,82
998,084;55,29
998,292;54,42
998,501;55,04
998,709;54,31
998,918;53,88
999,126;53,59
999,335;53,67
999,543;54,28
999,752;54,58
999,96;54,13
1000,169;53,84
1000,377;53,49
1000,585;53,36
1000,794;54,09
1001,002;54,05
1001,21;54,91
1001,418;54,7
1001,627;55,41
1001,835;55,34
1002,043;55,47
1002,251;55,45
1002,459;55,96
1002,668;56,24
1002,876;56,08
1003,084;56,49
1003,292;57,49
1003,5;56,76
1003,708;56,71
1003,916;56,97
1004,124;56,73
1004,332;57,34
1004,54;57,35
1004,748;57,63
1004,956;57,73
1005,163;56,74
1005,371;56,58
1005,579;55,76
1005,787;56,13
1005,995;56,16
1006,202;56,19
1006,41;56,2
1006,618;55,61
1006,826;56,1
1007,033;55,92
1007,241;55,75
1007,449;55,48
1007,656;55,5
1007,864;56,78
1008,071;56,73
1008,279;58,43
1008,486;59,35
1008,694;59,78
1008,901;60,21
1009,109;60,63
1009,316;60,45
1009,524;60,62
1009,731;60,95
1009,938;61,77
1010,146;62,26
1010,353;62,27
1010,56;61,96
1010,768;62,26
1010,975;63,29
1011,182;63,16
1011,389;63,52
1011,597;63,6
1011,804;64,08
1012,011;64,05
1012,218;63,27
1012,425;63,12
1012,632;61,4
1012,839;61,13
1013,046;59,39
1013,253;59,32
1013,46;59,55
1013,667;59,53
1013,874;59,94
1014,081;60,03
1014,288;59,97
1014,495;59,56
1014,702;58,97
1014,909;60,26
1015,116;59,41
1015,323;59,61
1015,529;60,4
1015,736;60,61
1015,943;61,2
1016,15;61,31
1016,356;61,15
1016,563;62,63
1016,77;63,1
1016,976;64,05
1017,183;64,03
1017,389;66,01
1017,596;65,42
1017,803;64,62
1018,009;65,96
1018,216;65,57
1018,422;64,46
1018,629;65,24
1018,835;65,64
1019,041;66,46
1019,248;65,36
1019,454;66,88
1019,661;65,76
1019,867;65,27
1020,073;65,67
1020,279;65,48
1020,486;65,3
1020,692;66,12
1020,898;64,93
1021,104;64,49
1021,311;62,67
1021,517;62,36
1021,723;62,28
1021,929;62,99
1022,135;64,75
1022,341;63,66
1022,547;64,25
1022,753;65,68
1022,959;63,91
1023,165;63,27
1023,371;63,48
1023,577;63,86
1023,783;62,54
1023,989;62,56
1024,195;62,36
1024,401;62,63
1024,607;62,07
1024,812;62,11
1025,018;61,3
1025,224;61,56
1025,43;62,39
1025,635;63,83
1025,841;64,99
1026,047;65,51
1026,252;66,32
1026,458;65,7
1026,664;66,15
1026,869;67,3
1027,075;68,18
1027,28;68,4
1027,486;69,11
1027,691;68,6
1027,897;69,5
1028,102;67,88
1028,308;68,46
1028,513;68,99
1028,719;67,07
1028,924;68,84
1029,129;69,42
1029,335;68,86
1029,54;68,78
1029,745;67,4
1029,95;67,24
1030,156;66,88
1030,361;65,31
1030,566;64,38
1030,771;63,22
1030,976;62,1
1031,182;62,03
1031,387;59,62
1031,592;60,54
1031,797;59,55
1032,002;59,83
1032,207;60,05
1032,412;62,6
1032,617;63,7
1032,822;61,8
1033,027;63,47
1033,232;62,16
1033,437;61,96
1033,642;64,51
1033,846;65,86
1034,051;67,33
1034,256;68,15
1034,461;68,26
1034,666;68,14
1034,87;67,59
1035,075;65,01
1035,28;66,96
1035,484;66,08
1035,689;67,76
1035,894;68,09
1036,098;68,04
1036,303;67,11
1036,507;66,35
1036,712;65,98
1036,917;67,42
1037,121;70,54
1037,325;71,46
1037,53;71,77
1037,734;70,32
1037,939;69,54
1038,143;69,45
1038,348;70,79
1038,552;72,59
1038,756;71,28
1038,961;70,69
1039,165;71,37
1039,369;75,45
1039,573;74,96
1039,778;74,45
1039,982;74,5
1040,186;73,33
1040,39;74,76
1040,594;76,98
1040,798;76,64
1041,002;76,13
1041,206;75,49
1041,41;74,48
1041,614;72,91
1041,818;72,74
1042,022;72,91
1042,226;68,74
1042,43;67,92
1042,634;63,96
1042,838;61,44
1043,042;59,28
1043,246;58,75
1043,45;58,64
1043,653;58,3
1043,857;58,86
1044,061;59,09
1044,265;58,14
1044,468;60,29
1044,672;61,25
1044,876;59,32
1045,079;58,81
1045,283;59,6
1045,487;55,75
1045,69;53,73
1045,894;53,21
1046,097;53,25
1046,301;54,01
1046,504;59,41
1046,708;60,05
1046,911;64,62
1047,115;65,32
1047,318;68,54
1047,522;72,39
1047,725;71,37
1047,928;72,29
1048,132;71,08
1048,335;70,29
1048,538;71,54
1048,741;67,94
1048,945;67,7
1049,148;71,02
1049,351;69,88
1049,554;71,74
1049,757;73,44
1049,96;74,68
1050,163;78,37
1050,367;79,12
1050,57;78,95
1050,773;76,02
1050,976;76,81
1051,179;72,93
1051,382;71,47
1051,585;74,1
1051,787;72,36
1051,99;72,34
1052,193;70,75
1052,396;73,2
1052,599;72,29
1052,802;73,87
1053,005;75,25
1053,207;74,41
1053,41;71,63
1053,613;69,81
1053,815;67,15
1054,018;67,35
1054,221;69,73
1054,423;69
1054,626;67,18
1054,829;67,65
1055,031;68,33
1055,234;65,96
1055,436;67,68
1055,639;69,65
1055,841;64,2
1056,044;65,06
1056,246;66,9
