Data from redochrewhite_Reflection__3__10.txt Node;
"Date: Wed Sep 10 11:35:01 CEST 2025 User: sycur Spectrometer: SR400348 Trigger mode: 0 Integration Time (sec): 1,000000E-2 Scans to average: 10 Electric dark correction enabled: true Nonlinearity correction enabled: false Boxcar width: 10 XAxis mode: Wavelengths Number of Pixels in Spectrum: 3648 >>>>>Begin Spectral Data<<<<<";
186,01;170,78
186,281;87,32
186,552;56,89
186,822;113,61
187,093;100
187,364;208,08
187,635;81,3
187,905;88,51
188,176;58,46
188,447;30,68
188,717;26,49
188,988;23,2
189,258;11,44
189,529;25,38
189,8;20,8
190,07;23,89
190,341;19,7
190,611;17,26
190,882;13,11
191,152;10
191,423;9,4
191,693;10,44
191,964;10,4
192,234;14,2
192,505;12,45
192,775;16,59
193,045;16,8
193,316;14,16
193,586;12,05
193,856;13,04
194,127;14,42
194,397;14,26
194,667;16
194,938;15,24
195,208;13,52
195,478;13,98
195,748;13,62
196,019;14,68
196,289;13,8
196,559;12,97
196,829;11,34
197,099;12,96
197,37;12,62
197,64;13,83
197,91;13,64
198,18;14,05
198,45;12,67
198,72;11,3
198,99;11,78
199,26;11,38
199,53;11,63
199,8;11,22
200,07;11,45
200,34;10,02
200,61;10,84
200,88;10,61
201,15;10,64
201,42;10,34
201,69;9,26
201,96;8,94
202,23;9,36
202,499;10,21
202,769;9,09
203,039;8,49
203,309;7,06
203,579;6,94
203,849;6,86
204,118;6,98
204,388;7,7
204,658;7,47
204,927;8,05
205,197;7,38
205,467;7,37
205,736;7,54
206,006;7,55
206,276;7,38
206,545;7,49
206,815;7,47
207,085;7,33
207,354;7,88
207,624;7,91
207,893;7,91
208,163;7,75
208,432;8,14
208,702;7,87
208,971;8,03
209,241;7,93
209,51;7,84
209,78;7,84
210,049;7,69
210,318;7,76
210,588;7,46
210,857;7,63
211,127;7,66
211,396;7,32
211,665;7,46
211,935;7,48
212,204;7,44
212,473;7,42
212,742;7,31
213,012;7,28
213,281;7,51
213,55;7,73
213,819;7,67
214,088;7,31
214,358;7,44
214,627;7,65
214,896;7,51
215,165;7,33
215,434;7,24
215,703;7,01
215,972;6,85
216,241;6,9
216,51;6,8
216,779;6,72
217,048;6,68
217,317;6,58
217,586;6,58
217,855;6,58
218,124;6,61
218,393;6,51
218,662;6,41
218,931;6,23
219,2;6,04
219,469;6,14
219,738;6,24
220,006;6,25
220,275;6,14
220,544;6,16
220,813;6,17
221,082;6,14
221,35;6,22
221,619;6,38
221,888;6,19
222,157;6,15
222,425;6,2
222,694;6,19
222,963;6,22
223,231;6,18
223,5;6,13
223,769;6,05
224,037;6,02
224,306;5,91
224,574;5,96
224,843;5,99
225,111;5,84
225,38;5,72
225,648;5,58
225,917;5,57
226,185;5,52
226,454;5,52
226,722;5,48
226,991;5,39
227,259;5,39
227,528;5,43
227,796;5,43
228,064;5,3
228,333;5,33
228,601;5,21
228,869;5,14
229,138;5,11
229,406;5,12
229,674;5,17
229,942;5,18
230,211;5,15
230,479;5,1
230,747;5,13
231,015;5,14
231,283;5,17
231,552;5,08
231,82;5,07
232,088;5,04
232,356;5,04
232,624;5,03
232,892;4,97
233,16;4,93
233,428;4,89
233,696;4,89
233,964;4,87
234,232;4,92
234,5;4,88
234,768;4,88
235,036;4,85
235,304;4,87
235,572;4,89
235,84;4,81
236,108;4,81
236,376;4,76
236,644;4,74
236,912;4,72
237,179;4,73
237,447;4,73
237,715;4,71
237,983;4,71
238,251;4,75
238,518;4,71
238,786;4,71
239,054;4,71
239,322;4,71
239,589;4,65
239,857;4,58
240,125;4,62
240,392;4,6
240,66;4,61
240,927;4,51
241,195;4,5
241,463;4,55
241,73;4,55
241,998;4,58
242,265;4,58
242,533;4,6
242,8;4,6
243,068;4,6
243,335;4,57
243,603;4,55
243,87;4,51
244,138;4,55
244,405;4,55
244,672;4,56
244,94;4,53
245,207;4,54
245,474;4,57
245,742;4,54
246,009;4,52
246,276;4,49
246,544;4,5
246,811;4,46
247,078;4,46
247,345;4,43
247,613;4,42
247,88;4,41
248,147;4,36
248,414;4,37
248,681;4,34
248,948;4,35
249,215;4,35
249,483;4,34
249,75;4,31
250,017;4,29
250,284;4,28
250,551;4,29
250,818;4,31
251,085;4,29
251,352;4,29
251,619;4,29
251,886;4,31
252,153;4,33
252,42;4,3
252,687;4,27
252,953;4,27
253,22;4,25
253,487;4,23
253,754;4,26
254,021;4,24
254,288;4,25
254,555;4,26
254,821;4,28
255,088;4,26
255,355;4,26
255,622;4,24
255,888;4,24
256,155;4,23
256,422;4,22
256,688;4,22
256,955;4,22
257,222;4,24
257,488;4,23
257,755;4,23
258,022;4,25
258,288;4,23
258,555;4,25
258,821;4,24
259,088;4,23
259,354;4,2
259,621;4,19
259,887;4,2
260,154;4,23
260,42;4,17
260,687;4,17
260,953;4,18
261,219;4,19
261,486;4,17
261,752;4,19
262,019;4,18
262,285;4,16
262,551;4,16
262,818;4,15
263,084;4,12
263,35;4,11
263,616;4,09
263,883;4,13
264,149;4,12
264,415;4,15
264,681;4,16
264,947;4,18
265,214;4,18
265,48;4,19
265,746;4,17
266,012;4,22
266,278;4,22
266,544;4,23
266,81;4,23
267,076;4,26
267,342;4,24
267,608;4,22
267,874;4,23
268,14;4,24
268,406;4,25
268,672;4,27
268,938;4,27
269,204;4,28
269,47;4,26
269,736;4,24
270,002;4,2
270,268;4,19
270,533;4,2
270,799;4,22
271,065;4,19
271,331;4,2
271,597;4,2
271,862;4,21
272,128;4,2
272,394;4,21
272,66;4,2
272,925;4,2
273,191;4,21
273,457;4,23
273,722;4,23
273,988;4,21
274,254;4,21
274,519;4,23
274,785;4,25
275,05;4,23
275,316;4,24
275,582;4,25
275,847;4,27
276,113;4,26
276,378;4,25
276,644;4,26
276,909;4,23
277,174;4,23
277,44;4,24
277,705;4,22
277,971;4,18
278,236;4,2
278,501;4,21
278,767;4,23
279,032;4,23
279,297;4,24
279,563;4,22
279,828;4,23
280,093;4,19
280,358;4,17
280,624;4,18
280,889;4,17
281,154;4,18
281,419;4,18
281,684;4,19
281,95;4,2
282,215;4,2
282,48;4,2
282,745;4,2
283,01;4,2
283,275;4,2
283,54;4,18
283,805;4,17
284,07;4,15
284,335;4,15
284,6;4,11
284,865;4,09
285,13;4,07
285,395;4,06
285,66;4,09
285,925;4,09
286,19;4,12
286,455;4,11
286,72;4,11
286,985;4,1
287,249;4,07
287,514;4,04
287,779;4,04
288,044;4,05
288,309;4,02
288,573;4,01
288,838;4,04
289,103;4,08
289,367;4,06
289,632;4,09
289,897;4,09
290,161;4,11
290,426;4,11
290,691;4,15
290,955;4,14
291,22;4,12
291,484;4,1
291,749;4,07
292,014;4,09
292,278;4,09
292,543;4,11
292,807;4,11
293,072;4,13
293,336;4,12
293,6;4,12
293,865;4,1
294,129;4,08
294,394;4,06
294,658;4,06
294,922;4,07
295,187;4,06
295,451;4,05
295,715;4,05
295,98;4,04
296,244;4,04
296,508;4,05
296,773;4,07
297,037;4,1
297,301;4,11
297,565;4,12
297,829;4,09
298,094;4,07
298,358;4,06
298,622;4,05
298,886;4,07
299,15;4,09
299,414;4,11
299,678;4,13
299,942;4,12
300,206;4,12
300,47;4,11
300,734;4,1
300,998;4,1
301,262;4,1
301,526;4,09
301,79;4,06
302,054;4,08
302,318;4,09
302,582;4,11
302,846;4,09
303,11;4,09
303,374;4,09
303,637;4,11
303,901;4,1
304,165;4,11
304,429;4,09
304,693;4,07
304,956;4,08
305,22;4,1
305,484;4,12
305,747;4,12
306,011;4,13
306,275;4,11
306,538;4,11
306,802;4,11
307,066;4,13
307,329;4,12
307,593;4,11
307,856;4,09
308,12;4,05
308,384;4,07
308,647;4,08
308,911;4,06
309,174;4,09
309,438;4,1
309,701;4,1
309,964;4,09
310,228;4,08
310,491;4,04
310,755;4,03
311,018;4,01
311,281;4,03
311,545;4,01
311,808;4,02
312,071;4,02
312,335;4
312,598;4
312,861;4,05
313,124;4,05
313,388;4,04
313,651;4,05
313,914;4,03
314,177;3,99
314,44;4
314,704;3,98
314,967;3,99
315,23;3,99
315,493;4,02
315,756;4,02
316,019;4,04
316,282;4,07
316,545;4,08
316,808;4,08
317,071;4,08
317,334;4,09
317,597;4,1
317,86;4,1
318,123;4,12
318,386;4,07
318,649;4,07
318,912;4,09
319,175;4,07
319,437;4,07
319,7;4,1
319,963;4,12
320,226;4,11
320,489;4,11
320,751;4,1
321,014;4,07
321,277;4,1
321,54;4,07
321,802;4,06
322,065;4,05
322,328;4
322,59;4
322,853;4,01
323,116;4,02
323,378;4,04
323,641;3,99
323,903;4,03
324,166;4
324,428;4
324,691;4,04
324,953;4,05
325,216;4,05
325,478;4,05
325,741;4,02
326,003;4,02
326,266;4,04
326,528;4,02
326,791;4,01
327,053;4,05
327,315;4,01
327,578;4,02
327,84;4,04
328,102;4
328,365;4,02
328,627;3,95
328,889;3,95
329,151;3,98
329,414;3,98
329,676;3,99
329,938;3,98
330,2;3,96
330,462;3,95
330,725;3,93
330,987;3,93
331,249;3,94
331,511;3,91
331,773;3,91
332,035;3,94
332,297;3,94
332,559;3,92
332,821;3,94
333,083;3,94
333,345;3,93
333,607;3,98
333,869;3,98
334,131;4,03
334,393;4,05
334,655;4,03
334,917;4
335,179;4
335,44;3,99
335,702;4,01
335,964;4
336,226;4,01
336,488;3,96
336,749;3,95
337,011;3,98
337,273;3,93
337,535;3,92
337,796;3,91
338,058;3,91
338,32;3,9
338,581;3,91
338,843;3,89
339,105;3,91
339,366;3,91
339,628;3,93
339,889;3,9
340,151;3,86
340,412;3,86
340,674;3,83
340,935;3,83
341,197;3,81
341,458;3,81
341,72;3,79
341,981;3,81
342,243;3,84
342,504;3,84
342,766;3,87
343,027;3,87
343,288;3,89
343,55;3,91
343,811;3,93
344,072;3,86
344,334;3,87
344,595;3,84
344,856;3,84
345,117;3,84
345,379;3,84
345,64;3,89
345,901;3,91
346,162;3,96
346,423;3,95
346,684;3,94
346,946;3,97
347,207;3,95
347,468;4,02
347,729;3,97
347,99;3,98
348,251;4
348,512;3,98
348,773;3,96
349,034;3,94
349,295;3,93
349,556;4,03
349,817;4,06
350,078;4,08
350,339;4,01
350,6;4,01
350,86;4
351,121;3,97
351,382;3,99
351,643;3,95
351,904;3,93
352,165;3,91
352,425;3,9
352,686;3,91
352,947;3,86
353,208;3,86
353,468;3,86
353,729;3,83
353,99;3,86
354,25;3,88
354,511;3,87
354,772;3,87
355,032;3,88
355,293;3,86
355,553;3,84
355,814;3,9
356,074;3,85
356,335;3,86
356,596;3,93
356,856;3,89
357,116;3,9
357,377;3,92
357,637;3,96
357,898;3,96
358,158;3,97
358,419;3,97
358,679;4
358,939;3,97
359,2;3,95
359,46;3,95
359,72;3,91
359,981;3,89
360,241;3,88
360,501;3,82
360,761;3,8
361,022;3,77
361,282;3,78
361,542;3,82
361,802;3,82
362,062;3,79
362,323;3,79
362,583;3,81
362,843;3,78
363,103;3,82
363,363;3,8
363,623;3,79
363,883;3,82
364,143;3,82
364,403;3,82
364,663;3,85
364,923;3,86
365,183;3,87
365,443;3,9
365,703;3,91
365,963;3,95
366,223;3,99
366,483;3,99
366,743;3,96
367,002;3,95
367,262;3,9
367,522;3,92
367,782;3,95
368,042;3,91
368,301;3,93
368,561;3,89
368,821;3,89
369,081;3,9
369,34;3,86
369,6;3,84
369,86;3,85
370,119;3,84
370,379;3,81
370,638;3,84
370,898;3,84
371,158;3,82
371,417;3,77
371,677;3,71
371,936;3,76
372,196;3,78
372,455;3,75
372,715;3,78
372,974;3,78
373,234;3,73
373,493;3,75
373,753;3,76
374,012;3,76
374,271;3,79
374,531;3,78
374,79;3,81
375,049;3,81
375,309;3,81
375,568;3,83
375,827;3,82
376,086;3,78
376,346;3,77
376,605;3,8
376,864;3,78
377,123;3,82
377,383;3,79
377,642;3,82
377,901;3,83
378,16;3,84
378,419;3,82
378,678;3,77
378,937;3,76
379,196;3,72
379,455;3,74
379,714;3,73
379,973;3,77
380,232;3,73
380,491;3,7
380,75;3,71
381,009;3,68
381,268;3,69
381,527;3,72
381,786;3,7
382,045;3,71
382,304;3,76
382,563;3,75
382,821;3,77
383,08;3,73
383,339;3,75
383,598;3,79
383,857;3,78
384,115;3,83
384,374;3,82
384,633;3,85
384,891;3,84
385,15;3,79
385,409;3,79
385,667;3,8
385,926;3,85
386,185;3,81
386,443;3,84
386,702;3,83
386,96;3,78
387,219;3,84
387,477;3,85
387,736;3,81
387,994;3,86
388,253;3,82
388,511;3,84
388,77;3,85
389,028;3,85
389,287;3,85
389,545;3,89
389,803;3,87
390,062;3,85
390,32;3,86
390,578;3,92
390,837;3,9
391,095;3,92
391,353;3,93
391,612;3,95
391,87;3,92
392,128;3,94
392,386;3,95
392,644;3,93
392,903;3,93
393,161;3,94
393,419;3,9
393,677;3,96
393,935;3,93
394,193;3,9
394,451;3,86
394,709;3,8
394,967;3,79
395,225;3,84
395,483;3,85
395,741;3,87
395,999;3,86
396,257;3,89
396,515;3,85
396,773;3,83
397,031;3,8
397,289;3,84
397,547;3,83
397,805;3,84
398,062;3,84
398,32;3,81
398,578;3,84
398,836;3,8
399,094;3,78
399,351;3,74
399,609;3,74
399,867;3,79
400,124;3,86
400,382;3,85
400,64;3,85
400,897;3,86
401,155;3,83
401,413;3,8
401,67;3,76
401,928;3,79
402,185;3,79
402,443;3,86
402,701;3,85
402,958;3,86
403,216;3,84
403,473;3,86
403,73;3,88
403,988;3,88
404,245;3,93
404,503;3,91
404,76;3,92
405,018;3,92
405,275;3,93
405,532;3,97
405,79;3,98
406,047;3,95
406,304;3,97
406,561;3,99
406,819;4,08
407,076;4,06
407,333;4,07
407,59;4,11
407,848;4,08
408,105;4,06
408,362;4,1
408,619;4,15
408,876;4,1
409,133;4,06
409,39;4,04
409,647;4,06
409,904;4,07
410,161;4,14
410,418;4,14
410,675;4,07
410,932;4,01
411,189;4,01
411,446;4,03
411,703;3,96
411,96;3,95
412,217;3,94
412,474;3,97
412,731;3,97
412,988;3,95
413,245;3,95
413,501;3,95
413,758;3,91
414,015;3,86
414,272;3,87
414,529;3,94
414,785;3,94
415,042;3,94
415,299;3,96
415,555;3,93
415,812;3,88
416,069;3,93
416,325;3,94
416,582;3,96
416,838;3,99
417,095;3,99
417,352;3,97
417,608;3,96
417,865;3,95
418,121;3,96
418,378;3,96
418,634;3,96
418,891;4,04
419,147;4,03
419,403;4,07
419,66;4,07
419,916;4,07
420,173;4,06
420,429;4
420,685;4
420,942;3,99
421,198;4,02
421,454;4,03
421,711;4,02
421,967;4,01
422,223;3,98
422,479;4,03
422,735;4,09
422,992;4,08
423,248;4,05
423,504;4,07
423,76;4,07
424,016;4,06
424,272;4
424,528;3,98
424,784;3,98
425,041;3,97
425,297;3,94
425,553;4
425,809;4,03
426,065;4,01
426,32;4,02
426,576;4,02
426,832;3,97
427,088;3,98
427,344;3,96
427,6;4,04
427,856;3,98
428,112;3,93
428,368;3,94
428,623;3,99
428,879;3,97
429,135;3,99
429,391;4
429,646;4,03
429,902;4,05
430,158;4,07
430,414;4,07
430,669;4,11
430,925;4,1
431,181;4,11
431,436;4,16
431,692;4,18
431,947;4,16
432,203;4,19
432,458;4,22
432,714;4,26
432,97;4,23
433,225;4,25
433,481;4,25
433,736;4,26
433,991;4,27
434,247;4,24
434,502;4,23
434,758;4,27
435,013;4,23
435,268;4,19
435,524;4,19
435,779;4,18
436,034;4,16
436,29;4,12
436,545;4,1
436,8;4,08
437,056;4,07
437,311;4,07
437,566;4,04
437,821;3,99
438,076;3,94
438,331;3,91
438,587;3,92
438,842;3,96
439,097;3,98
439,352;3,97
439,607;3,97
439,862;3,92
440,117;3,95
440,372;3,93
440,627;3,98
440,882;3,95
441,137;3,99
441,392;4
441,647;4,02
441,902;4,03
442,157;4,03
442,412;4,03
442,667;4,05
442,921;4,08
443,176;4,12
443,431;4,16
443,686;4,19
443,941;4,18
444,195;4,15
444,45;4,07
444,705;4,05
444,96;4,09
445,214;4,12
445,469;4,05
445,724;4,08
445,978;4,15
446,233;4,17
446,487;4,16
446,742;4,12
446,997;4,11
447,251;4,11
447,506;4,11
447,76;4,1
448,015;4,09
448,269;4,13
448,524;4,12
448,778;4,1
449,033;4,06
449,287;4,05
449,541;4,04
449,796;4,1
450,05;4,16
450,305;4,14
450,559;4,15
450,813;4,19
451,067;4,2
451,322;4,12
451,576;4,12
451,83;4,13
452,084;4,18
452,339;4,22
452,593;4,23
452,847;4,23
453,101;4,23
453,355;4,27
453,609;4,23
453,864;4,24
454,118;4,21
454,372;4,25
454,626;4,28
454,88;4,32
455,134;4,31
455,388;4,26
455,642;4,26
455,896;4,25
456,15;4,24
456,404;4,25
456,658;4,2
456,912;4,18
457,165;4,19
457,419;4,17
457,673;4,12
457,927;4,11
458,181;4,08
458,435;4,07
458,688;4,06
458,942;4,07
459,196;4,05
459,45;4,11
459,703;4,09
459,957;4,09
460,211;4,07
460,464;4,1
460,718;4,1
460,972;4,11
461,225;4,07
461,479;4,07
461,732;4,05
461,986;4,06
462,239;4,1
462,493;4,09
462,746;4,09
463;4,11
463,253;4,1
463,507;4,1
463,76;4,12
464,014;4,1
464,267;4,11
464,52;4,11
464,774;4,1
465,027;4,1
465,28;4,14
465,534;4,13
465,787;4,12
466,04;4,11
466,294;4,1
466,547;4,16
466,8;4,2
467,053;4,17
467,306;4,19
467,56;4,19
467,813;4,19
468,066;4,2
468,319;4,18
468,572;4,19
468,825;4,22
469,078;4,22
469,331;4,22
469,584;4,23
469,837;4,23
470,09;4,23
470,343;4,19
470,596;4,15
470,849;4,15
471,102;4,1
471,355;4,14
471,608;4,16
471,861;4,19
472,114;4,17
472,367;4,19
472,619;4,21
472,872;4,17
473,125;4,19
473,378;4,2
473,631;4,21
473,883;4,19
474,136;4,17
474,389;4,24
474,641;4,26
474,894;4,23
475,147;4,26
475,399;4,26
475,652;4,3
475,905;4,3
476,157;4,32
476,41;4,37
476,662;4,35
476,915;4,35
477,167;4,32
477,42;4,3
477,672;4,34
477,925;4,34
478,177;4,36
478,43;4,37
478,682;4,36
478,934;4,36
479,187;4,4
479,439;4,42
479,691;4,4
479,944;4,42
480,196;4,42
480,448;4,44
480,701;4,42
480,953;4,41
481,205;4,42
481,457;4,42
481,709;4,4
481,962;4,41
482,214;4,43
482,466;4,43
482,718;4,46
482,97;4,46
483,222;4,47
483,474;4,5
483,726;4,5
483,978;4,5
484,23;4,51
484,482;4,52
484,734;4,5
484,986;4,47
485,238;4,47
485,49;4,47
485,742;4,45
485,994;4,47
486,246;4,47
486,498;4,47
486,75;4,47
487,001;4,49
487,253;4,5
487,505;4,49
487,757;4,51
488,009;4,49
488,26;4,47
488,512;4,49
488,764;4,46
489,015;4,45
489,267;4,46
489,519;4,46
489,77;4,45
490,022;4,47
490,274;4,46
490,525;4,47
490,777;4,46
491,028;4,46
491,28;4,45
491,531;4,49
491,783;4,48
492,034;4,5
492,286;4,48
492,537;4,48
492,789;4,49
493,04;4,49
493,291;4,48
493,543;4,54
493,794;4,5
494,045;4,52
494,297;4,52
494,548;4,52
494,799;4,5
495,051;4,5
495,302;4,53
495,553;4,54
495,804;4,52
496,056;4,53
496,307;4,52
496,558;4,55
496,809;4,53
497,06;4,54
497,311;4,51
497,562;4,54
497,813;4,54
498,064;4,55
498,316;4,57
498,567;4,56
498,818;4,51
499,069;4,51
499,319;4,52
499,57;4,51
499,821;4,52
500,072;4,54
500,323;4,54
500,574;4,53
500,825;4,56
501,076;4,56
501,327;4,58
501,577;4,61
501,828;4,59
502,079;4,57
502,33;4,58
502,58;4,6
502,831;4,61
503,082;4,6
503,333;4,61
503,583;4,6
503,834;4,66
504,084;4,68
504,335;4,69
504,586;4,69
504,836;4,72
505,087;4,73
505,337;4,73
505,588;4,72
505,838;4,74
506,089;4,74
506,339;4,74
506,59;4,76
506,84;4,75
507,091;4,8
507,341;4,82
507,591;4,83
507,842;4,84
508,092;4,83
508,343;4,84
508,593;4,83
508,843;4,82
509,093;4,77
509,344;4,77
509,594;4,79
509,844;4,79
510,094;4,79
510,345;4,79
510,595;4,79
510,845;4,8
511,095;4,79
511,345;4,79
511,595;4,8
511,845;4,79
512,095;4,79
512,345;4,78
512,595;4,78
512,845;4,79
513,095;4,79
513,345;4,82
513,595;4,83
513,845;4,83
514,095;4,85
514,345;4,88
514,595;4,89
514,845;4,88
515,095;4,88
515,345;4,87
515,594;4,88
515,844;4,89
516,094;4,91
516,344;4,93
516,593;4,91
516,843;4,91
517,093;4,92
517,343;4,92
517,592;4,93
517,842;4,94
518,092;4,96
518,341;4,91
518,591;4,92
518,84;4,91
519,09;4,91
519,34;4,92
519,589;4,93
519,839;4,94
520,088;4,96
520,338;4,97
520,587;4,98
520,836;4,98
521,086;4,99
521,335;5
521,585;4,98
521,834;5
522,083;5,02
522,333;5,02
522,582;5,05
522,831;5,06
523,081;5,04
523,33;5,03
523,579;5,08
523,828;5,08
524,078;5,07
524,327;5,07
524,576;5,06
524,825;5,04
525,074;5,05
525,323;5,06
525,573;5,07
525,822;5,09
526,071;5,07
526,32;5,08
526,569;5,08
526,818;5,1
527,067;5,12
527,316;5,13
527,565;5,14
527,814;5,14
528,063;5,14
528,312;5,16
528,56;5,16
528,809;5,16
529,058;5,2
529,307;5,24
529,556;5,25
529,805;5,28
530,053;5,3
530,302;5,29
530,551;5,29
530,8;5,3
531,048;5,33
531,297;5,35
531,546;5,35
531,794;5,38
532,043;5,39
532,292;5,39
532,54;5,4
532,789;5,41
533,037;5,41
533,286;5,38
533,535;5,4
533,783;5,43
534,032;5,45
534,28;5,44
534,528;5,45
534,777;5,46
535,025;5,49
535,274;5,51
535,522;5,55
535,771;5,56
536,019;5,58
536,267;5,56
536,516;5,58
536,764;5,61
537,012;5,61
537,26;5,64
537,509;5,67
537,757;5,69
538,005;5,69
538,253;5,72
538,501;5,78
538,75;5,78
538,998;5,78
539,246;5,78
539,494;5,78
539,742;5,77
539,99;5,78
540,238;5,78
540,486;5,78
540,734;5,77
540,982;5,79
541,23;5,81
541,478;5,82
541,726;5,82
541,974;5,82
542,222;5,86
542,47;5,85
542,718;5,84
542,966;5,86
543,213;5,87
543,461;5,89
543,709;5,92
543,957;5,95
544,205;5,98
544,452;6
544,7;6,03
544,948;6,08
545,196;6,09
545,443;6,13
545,691;6,17
545,939;6,21
546,186;6,24
546,434;6,25
546,681;6,27
546,929;6,31
547,176;6,32
547,424;6,34
547,671;6,36
547,919;6,42
548,166;6,43
548,414;6,47
548,661;6,52
548,909;6,53
549,156;6,54
549,404;6,55
549,651;6,57
549,898;6,62
550,146;6,65
550,393;6,7
550,64;6,72
550,888;6,73
551,135;6,76
551,382;6,79
551,629;6,8
551,876;6,86
552,124;6,93
552,371;6,96
552,618;6,99
552,865;7,03
553,112;7,03
553,359;7,07
553,606;7,11
553,854;7,11
554,101;7,14
554,348;7,18
554,595;7,23
554,842;7,28
555,089;7,32
555,336;7,35
555,582;7,36
555,829;7,4
556,076;7,43
556,323;7,46
556,57;7,49
556,817;7,55
557,064;7,59
557,311;7,6
557,557;7,64
557,804;7,7
558,051;7,74
558,298;7,81
558,544;7,86
558,791;7,9
559,038;7,93
559,284;7,97
559,531;8,03
559,778;8,05
560,024;8,09
560,271;8,11
560,517;8,15
560,764;8,2
561,011;8,24
561,257;8,29
561,504;8,36
561,75;8,41
561,997;8,44
562,243;8,47
562,489;8,51
562,736;8,57
562,982;8,61
563,229;8,68
563,475;8,72
563,721;8,77
563,968;8,84
564,214;8,91
564,46;8,97
564,707;9,03
564,953;9,08
565,199;9,16
565,445;9,26
565,691;9,31
565,938;9,39
566,184;9,47
566,43;9,56
566,676;9,63
566,922;9,7
567,168;9,79
567,414;9,88
567,66;9,95
567,906;10,03
568,152;10,1
568,398;10,18
568,644;10,25
568,89;10,31
569,136;10,4
569,382;10,48
569,628;10,55
569,874;10,62
570,12;10,71
570,366;10,77
570,612;10,85
570,857;10,93
571,103;11,02
571,349;11,09
571,595;11,16
571,84;11,23
572,086;11,32
572,332;11,4
572,578;11,48
572,823;11,56
573,069;11,64
573,315;11,71
573,56;11,78
573,806;11,86
574,051;11,95
574,297;12,03
574,542;12,12
574,788;12,21
575,034;12,3
575,279;12,39
575,524;12,47
575,77;12,54
576,015;12,63
576,261;12,7
576,506;12,8
576,752;12,88
576,997;12,96
577,242;13,03
577,488;13,11
577,733;13,18
577,978;13,27
578,223;13,36
578,469;13,45
578,714;13,54
578,959;13,64
579,204;13,74
579,45;13,83
579,695;13,89
579,94;13,99
580,185;14,05
580,43;14,13
580,675;14,21
580,92;14,27
581,165;14,34
581,41;14,42
581,655;14,49
581,9;14,56
582,145;14,63
582,39;14,73
582,635;14,82
582,88;14,91
583,125;14,98
583,37;15,05
583,615;15,13
583,86;15,22
584,105;15,29
584,349;15,37
584,594;15,43
584,839;15,54
585,084;15,63
585,328;15,72
585,573;15,82
585,818;15,89
586,063;15,98
586,307;16,05
586,552;16,11
586,797;16,2
587,041;16,25
587,286;16,33
587,53;16,39
587,775;16,47
588,019;16,55
588,264;16,62
588,508;16,68
588,753;16,77
588,997;16,82
589,242;16,91
589,486;17
589,731;17,1
589,975;17,17
590,22;17,24
590,464;17,34
590,708;17,43
590,953;17,53
591,197;17,62
591,441;17,7
591,685;17,81
591,93;17,89
592,174;18,01
592,418;18,1
592,662;18,19
592,907;18,25
593,151;18,33
593,395;18,41
593,639;18,49
593,883;18,57
594,127;18,65
594,371;18,72
594,615;18,79
594,859;18,86
595,103;18,95
595,347;19,03
595,591;19,12
595,835;19,19
596,079;19,27
596,323;19,37
596,567;19,49
596,811;19,55
597,055;19,63
597,299;19,71
597,542;19,79
597,786;19,88
598,03;19,98
598,274;20,06
598,518;20,15
598,761;20,24
599,005;20,31
599,249;20,41
599,492;20,52
599,736;20,61
599,98;20,7
600,223;20,77
600,467;20,87
600,711;20,94
600,954;21,01
601,198;21,09
601,441;21,18
601,685;21,24
601,928;21,32
602,172;21,39
602,415;21,47
602,659;21,55
602,902;21,63
603,145;21,69
603,389;21,79
603,632;21,87
603,876;21,96
604,119;22,04
604,362;22,12
604,606;22,18
604,849;22,26
605,092;22,32
605,335;22,4
605,579;22,48
605,822;22,57
606,065;22,63
606,308;22,71
606,551;22,79
606,794;22,88
607,037;22,96
607,281;23,05
607,524;23,13
607,767;23,22
608,01;23,28
608,253;23,39
608,496;23,45
608,739;23,56
608,982;23,63
609,225;23,69
609,468;23,76
609,711;23,83
609,953;23,9
610,196;24
610,439;24,06
610,682;24,13
610,925;24,19
611,168;24,28
611,41;24,34
611,653;24,4
611,896;24,45
612,139;24,52
612,381;24,59
612,624;24,67
612,867;24,72
613,109;24,79
613,352;24,86
613,595;24,94
613,837;24,99
614,08;25,07
614,322;25,13
614,565;25,21
614,807;25,29
615,05;25,37
615,292;25,4
615,535;25,5
615,777;25,56
616,02;25,62
616,262;25,69
616,505;25,77
616,747;25,84
616,989;25,94
617,232;26,01
617,474;26,09
617,716;26,15
617,959;26,23
618,201;26,3
618,443;26,35
618,685;26,39
618,927;26,46
619,17;26,5
619,412;26,6
619,654;26,67
619,896;26,74
620,138;26,8
620,38;26,87
620,622;26,93
620,864;27,01
621,107;27,09
621,349;27,14
621,591;27,19
621,833;27,27
622,075;27,31
622,316;27,38
622,558;27,45
622,8;27,53
623,042;27,61
623,284;27,69
623,526;27,77
623,768;27,86
624,01;27,93
624,251;28
624,493;28,05
624,735;28,11
624,977;28,17
625,218;28,25
625,46;28,3
625,702;28,36
625,943;28,41
626,185;28,44
626,427;28,49
626,668;28,57
626,91;28,61
627,152;28,69
627,393;28,75
627,635;28,78
627,876;28,81
628,118;28,86
628,359;28,88
628,601;28,95
628,842;29
629,084;29,04
629,325;29,08
629,566;29,13
629,808;29,19
630,049;29,24
630,29;29,27
630,532;29,33
630,773;29,38
631,014;29,42
631,256;29,5
631,497;29,58
631,738;29,62
631,979;29,66
632,22;29,69
632,462;29,74
632,703;29,8
632,944;29,86
633,185;29,9
633,426;29,96
633,667;30,02
633,908;30,04
634,149;30,08
634,39;30,17
634,631;30,23
634,872;30,28
635,113;30,31
635,354;30,35
635,595;30,4
635,836;30,47
636,077;30,51
636,318;30,55
636,559;30,59
636,8;30,65
637,04;30,68
637,281;30,72
637,522;30,81
637,763;30,85
638,003;30,9
638,244;30,93
638,485;30,97
638,726;31
638,966;31,08
639,207;31,13
639,448;31,16
639,688;31,2
639,929;31,26
640,169;31,34
640,41;31,41
640,65;31,45
640,891;31,47
641,131;31,57
641,372;31,61
641,612;31,67
641,853;31,73
642,093;31,8
642,334;31,89
642,574;31,92
642,814;31,97
643,055;32
643,295;32,07
643,535;32,14
643,776;32,19
644,016;32,25
644,256;32,3
644,496;32,32
644,737;32,37
644,977;32,39
645,217;32,46
645,457;32,51
645,697;32,56
645,938;32,62
646,178;32,65
646,418;32,73
646,658;32,79
646,898;32,81
647,138;32,88
647,378;32,93
647,618;32,97
647,858;33
648,098;33,07
648,338;33,13
648,578;33,18
648,818;33,22
649,057;33,25
649,297;33,32
649,537;33,37
649,777;33,44
650,017;33,51
650,257;33,55
650,496;33,6
650,736;33,68
650,976;33,71
651,216;33,75
651,455;33,76
651,695;33,79
651,935;33,87
652,174;33,95
652,414;34,07
652,653;34,21
652,893;34,35
653,133;34,45
653,372;34,54
653,612;34,59
653,851;34,64
654,091;34,7
654,33;34,74
654,57;34,77
654,809;34,79
655,048;34,79
655,288;34,81
655,527;34,82
655,767;34,83
656,006;34,84
656,245;34,86
656,485;34,89
656,724;34,91
656,963;34,91
657,202;34,93
657,442;34,92
657,681;34,92
657,92;34,94
658,159;34,96
658,398;34,99
658,637;35,03
658,877;35,09
659,116;35,13
659,355;35,16
659,594;35,22
659,833;35,29
660,072;35,39
660,311;35,49
660,55;35,56
660,789;35,64
661,028;35,74
661,267;35,82
661,506;35,86
661,744;35,94
661,983;36,03
662,222;36,06
662,461;36,12
662,7;36,16
662,939;36,2
663,177;36,22
663,416;36,26
663,655;36,27
663,894;36,3
664,132;36,34
664,371;36,36
664,61;36,4
664,848;36,45
665,087;36,49
665,326;36,52
665,564;36,59
665,803;36,64
666,041;36,7
666,28;36,74
666,518;36,8
666,757;36,83
666,995;36,85
667,234;36,91
667,472;36,97
667,711;37,01
667,949;37,08
668,187;37,13
668,426;37,18
668,664;37,25
668,902;37,28
669,141;37,3
669,379;37,36
669,617;37,42
669,856;37,44
670,094;37,51
670,332;37,53
670,57;37,56
670,808;37,6
671,046;37,63
671,285;37,68
671,523;37,74
671,761;37,82
671,999;37,84
672,237;37,91
672,475;37,97
672,713;38,01
672,951;38,05
673,189;38,09
673,427;38,13
673,665;38,18
673,903;38,26
674,141;38,37
674,379;38,45
674,617;38,51
674,854;38,58
675,092;38,65
675,33;38,72
675,568;38,77
675,806;38,84
676,043;38,91
676,281;38,96
676,519;39
676,756;39,03
676,994;39,11
677,232;39,15
677,469;39,18
677,707;39,28
677,945;39,33
678,182;39,42
678,42;39,47
678,657;39,53
678,895;39,58
679,132;39,61
679,37;39,62
679,607;39,65
679,845;39,69
680,082;39,72
680,32;39,76
680,557;39,83
680,794;39,88
681,032;39,91
681,269;39,98
681,507;40,05
681,744;40,12
681,981;40,21
682,218;40,26
682,456;40,31
682,693;40,35
682,93;40,42
683,167;40,46
683,404;40,52
683,642;40,58
683,879;40,64
684,116;40,72
684,353;40,79
684,59;40,86
684,827;40,92
685,064;40,96
685,301;41,03
685,538;41,06
685,775;41,11
686,012;41,18
686,249;41,22
686,486;41,27
686,723;41,31
686,96;41,34
687,197;41,37
687,433;41,45
687,67;41,54
687,907;41,56
688,144;41,59
688,381;41,65
688,617;41,69
688,854;41,75
689,091;41,79
689,327;41,84
689,564;41,89
689,801;41,92
690,037;42
690,274;42,04
690,511;42,15
690,747;42,23
690,984;42,27
691,22;42,33
691,457;42,39
691,693;42,46
691,93;42,5
692,166;42,58
692,403;42,66
692,639;42,65
692,876;42,69
693,112;42,74
693,348;42,77
693,585;42,83
693,821;42,84
694,057;42,89
694,294;42,95
694,53;43
694,766;43,07
695,002;43,1
695,239;43,17
695,475;43,16
695,711;43,17
695,947;43,23
696,183;43,28
696,419;43,3
696,656;43,36
696,892;43,39
697,128;43,44
697,364;43,46
697,6;43,53
697,836;43,58
698,072;43,67
698,308;43,75
698,544;43,79
698,78;43,85
699,016;43,88
699,251;43,93
699,487;44
699,723;44,07
699,959;44,12
700,195;44,15
700,431;44,24
700,666;44,26
700,902;44,33
701,138;44,36
701,374;44,45
701,609;44,48
701,845;44,54
702,081;44,62
702,316;44,67
702,552;44,72
702,788;44,77
703,023;44,82
703,259;44,86
703,494;44,92
703,73;45
703,965;45,07
704,201;45,12
704,436;45,15
704,672;45,22
704,907;45,29
705,143;45,35
705,378;45,39
705,613;45,5
705,849;45,51
706,084;45,59
706,319;45,61
706,555;45,64
706,79;45,69
707,025;45,72
707,26;45,75
707,496;45,84
707,731;45,93
707,966;45,98
708,201;46,02
708,436;46,08
708,671;46,11
708,907;46,19
709,142;46,23
709,377;46,29
709,612;46,34
709,847;46,4
710,082;46,49
710,317;46,51
710,552;46,57
710,787;46,65
711,022;46,68
711,257;46,75
711,492;46,83
711,726;46,87
711,961;46,92
712,196;46,99
712,431;47,01
712,666;47,02
712,901;47,03
713,135;47,1
713,37;47,19
713,605;47,26
713,839;47,27
714,074;47,3
714,309;47,33
714,543;47,36
714,778;47,38
715,013;47,4
715,247;47,48
715,482;47,5
715,716;47,56
715,951;47,6
716,185;47,63
716,42;47,67
716,654;47,75
716,889;47,77
717,123;47,8
717,358;47,82
717,592;47,86
717,827;47,9
718,061;47,95
718,295;47,93
718,53;47,93
718,764;47,97
718,998;48,03
719,232;48,06
719,467;48,06
719,701;48,08
719,935;48,13
720,169;48,15
720,403;48,16
720,638;48,21
720,872;48,26
721,106;48,32
721,34;48,36
721,574;48,35
721,808;48,37
722,042;48,4
722,276;48,43
722,51;48,48
722,744;48,55
722,978;48,59
723,212;48,63
723,446;48,69
723,68;48,73
723,914;48,76
724,147;48,83
724,381;48,88
724,615;48,93
724,849;48,95
725,083;48,98
725,316;49,06
725,55;49,09
725,784;49,13
726,018;49,13
726,251;49,19
726,485;49,27
726,719;49,32
726,952;49,33
727,186;49,42
727,419;49,44
727,653;49,47
727,887;49,53
728,12;49,58
728,354;49,61
728,587;49,66
728,821;49,7
729,054;49,74
729,287;49,77
729,521;49,8
729,754;49,85
729,988;49,87
730,221;49,92
730,454;49,93
730,688;49,95
730,921;50
731,154;50,02
731,387;50,05
731,621;50,1
731,854;50,16
732,087;50,17
732,32;50,18
732,553;50,19
732,787;50,2
733,02;50,24
733,253;50,25
733,486;50,21
733,719;50,25
733,952;50,28
734,185;50,32
734,418;50,36
734,651;50,37
734,884;50,41
735,117;50,38
735,35;50,37
735,583;50,39
735,816;50,4
736,049;50,4
736,281;50,43
736,514;50,44
736,747;50,45
736,98;50,46
737,213;50,5
737,445;50,52
737,678;50,51
737,911;50,5
738,144;50,52
738,376;50,56
738,609;50,59
738,842;50,6
739,074;50,61
739,307;50,65
739,539;50,65
739,772;50,67
740,004;50,69
740,237;50,74
740,469;50,78
740,702;50,81
740,934;50,82
741,167;50,81
741,399;50,82
741,632;50,8
741,864;50,82
742,096;50,81
742,329;50,82
742,561;50,82
742,793;50,81
743,026;50,85
743,258;50,88
743,49;50,84
743,723;50,84
743,955;50,8
744,187;50,78
744,419;50,76
744,651;50,74
744,883;50,77
745,115;50,75
745,348;50,71
745,58;50,68
745,812;50,68
746,044;50,69
746,276;50,67
746,508;50,69
746,74;50,69
746,972;50,73
747,204;50,72
747,436;50,72
747,667;50,74
747,899;50,68
748,131;50,65
748,363;50,68
748,595;50,69
748,827;50,72
749,058;50,74
749,29;50,72
749,522;50,68
749,754;50,66
749,985;50,68
750,217;50,65
750,449;50,65
750,68;50,65
750,912;50,66
751,144;50,71
751,375;50,7
751,607;50,71
751,838;50,69
752,07;50,71
752,301;50,74
752,533;50,7
752,764;50,77
752,996;50,77
753,227;50,75
753,459;50,72
753,69;50,72
753,921;50,68
754,153;50,71
754,384;50,75
754,615;50,75
754,847;50,75
755,078;50,8
755,309;50,8
755,54;50,8
755,772;50,78
756,003;50,74
756,234;50,75
756,465;50,74
756,696;50,71
756,927;50,69
757,159;50,66
757,39;50,67
757,621;50,67
757,852;50,63
758,083;50,65
758,314;50,66
758,545;50,64
758,776;50,62
759,007;50,57
759,238;50,57
759,469;50,52
759,699;50,49
759,93;50,44
760,161;50,41
760,392;50,34
760,623;50,28
760,854;50,25
761,084;50,23
761,315;50,17
761,546;50,12
761,776;50,11
762,007;50,08
762,238;50,06
762,468;49,99
762,699;50,01
762,93;49,99
763,16;49,93
763,391;49,88
763,621;49,87
763,852;49,87
764,083;49,83
764,313;49,82
764,543;49,76
764,774;49,77
765,004;49,74
765,235;49,77
765,465;49,77
765,696;49,75
765,926;49,72
766,156;49,7
766,387;49,71
766,617;49,67
766,847;49,69
767,077;49,67
767,308;49,66
767,538;49,62
767,768;49,52
767,998;49,51
768,228;49,49
768,459;49,44
768,689;49,42
768,919;49,39
769,149;49,4
769,379;49,42
769,609;49,38
769,839;49,36
770,069;49,32
770,299;49,27
770,529;49,24
770,759;49,21
770,989;49,19
771,219;49,13
771,449;49,09
771,678;49,06
771,908;49,02
772,138;49,03
772,368;48,96
772,598;48,98
772,827;48,98
773,057;48,95
773,287;48,97
773,517;48,96
773,746;48,93
773,976;48,91
774,206;48,87
774,435;48,87
774,665;48,86
774,894;48,82
775,124;48,81
775,354;48,78
775,583;48,78
775,813;48,75
776,042;48,77
776,272;48,75
776,501;48,71
776,73;48,7
776,96;48,62
777,189;48,62
777,419;48,6
777,648;48,56
777,877;48,52
778,107;48,42
778,336;48,37
778,565;48,33
778,794;48,28
779,024;48,22
779,253;48,16
779,482;48,11
779,711;48,07
779,94;48,07
780,17;48,04
780,399;47,94
780,628;47,92
780,857;47,86
781,086;47,85
781,315;47,81
781,544;47,77
781,773;47,75
782,002;47,73
782,231;47,71
782,46;47,68
782,689;47,68
782,918;47,71
783,147;47,68
783,375;47,65
783,604;47,61
783,833;47,61
784,062;47,6
784,291;47,6
784,519;47,58
784,748;47,52
784,977;47,55
785,206;47,54
785,434;47,5
785,663;47,43
785,892;47,4
786,12;47,34
786,349;47,36
786,577;47,35
786,806;47,28
787,034;47,27
787,263;47,22
787,492;47,18
787,72;47,13
787,948;47,05
788,177;47,03
788,405;47,01
788,634;46,97
788,862;46,93
789,09;46,86
789,319;46,79
789,547;46,76
789,775;46,66
790,004;46,66
790,232;46,65
790,46;46,62
790,688;46,55
790,917;46,54
791,145;46,44
791,373;46,35
791,601;46,37
791,829;46,29
792,057;46,26
792,286;46,23
792,514;46,24
792,742;46,23
792,97;46,22
793,198;46,13
793,426;46,08
793,654;46,09
793,882;46,04
794,109;46,06
794,337;46,01
794,565;45,99
794,793;45,94
795,021;45,91
795,249;45,87
795,477;45,84
795,704;45,81
795,932;45,76
796,16;45,76
796,388;45,71
796,615;45,68
796,843;45,66
797,071;45,6
797,298;45,52
797,526;45,53
797,754;45,43
797,981;45,42
798,209;45,45
798,436;45,36
798,664;45,33
798,891;45,26
799,119;45,2
799,346;45,12
799,574;45,12
799,801;45,09
800,029;45,06
800,256;45,1
800,483;45,05
800,711;45,01
800,938;44,94
801,165;44,88
801,393;44,83
801,62;44,77
801,847;44,75
802,074;44,7
802,302;44,61
802,529;44,59
802,756;44,55
802,983;44,47
803,21;44,42
803,437;44,37
803,665;44,38
803,892;44,35
804,119;44,32
804,346;44,24
804,573;44,2
804,8;44,14
805,027;44,06
805,254;43,99
805,481;43,99
805,708;43,98
805,934;43,94
806,161;43,9
806,388;43,85
806,615;43,74
806,842;43,73
807,069;43,72
807,295;43,7
807,522;43,69
807,749;43,64
807,976;43,57
808,202;43,55
808,429;43,5
808,656;43,46
808,882;43,45
809,109;43,39
809,335;43,34
809,562;43,38
809,789;43,3
810,015;43,27
810,242;43,25
810,468;43,23
810,695;43,19
810,921;43,16
811,147;43,13
811,374;43,14
811,6;43,1
811,827;43,14
812,053;43,08
812,279;43,04
812,506;43,01
812,732;43,04
812,958;43,02
813,185;42,97
813,411;42,94
813,637;42,91
813,863;42,92
814,089;42,89
814,315;42,82
814,542;42,84
814,768;42,81
814,994;42,73
815,22;42,68
815,446;42,7
815,672;42,63
815,898;42,57
816,124;42,54
816,35;42,47
816,576;42,38
816,802;42,34
817,028;42,28
817,254;42,28
817,48;42,16
817,705;42,14
817,931;42,11
818,157;42,11
818,383;42,07
818,609;42,01
818,834;41,95
819,06;41,93
819,286;41,86
819,512;41,86
819,737;41,79
819,963;41,7
820,189;41,57
820,414;41,63
820,64;41,61
820,865;41,62
821,091;41,58
821,316;41,51
821,542;41,5
821,767;41,51
821,993;41,5
822,218;41,51
822,444;41,44
822,669;41,39
822,895;41,3
823,12;41,27
823,345;41,22
823,571;41,15
823,796;41,06
824,021;40,98
824,247;40,94
824,472;40,96
824,697;41
824,922;41,06
825,147;40,99
825,373;41,02
825,598;40,94
825,823;40,95
826,048;40,93
826,273;40,87
826,498;40,83
826,723;40,74
826,948;40,78
827,173;40,77
827,398;40,76
827,623;40,81
827,848;40,8
828,073;40,8
828,298;40,78
828,523;40,81
828,748;40,83
828,973;40,74
829,197;40,71
829,422;40,66
829,647;40,6
829,872;40,57
830,097;40,54
830,321;40,56
830,546;40,51
830,771;40,5
830,995;40,51
831,22;40,51
831,445;40,46
831,669;40,39
831,894;40,34
832,118;40,31
832,343;40,25
832,567;40,25
832,792;40,29
833,016;40,24
833,241;40,24
833,465;40,25
833,69;40,24
833,914;40,23
834,139;40,22
834,363;40,21
834,587;40,14
834,812;40,06
835,036;40,05
835,26;40,04
835,485;40,05
835,709;40,02
835,933;39,97
836,157;39,98
836,381;39,99
836,606;39,96
836,83;39,9
837,054;39,86
837,278;39,79
837,502;39,69
837,726;39,71
837,95;39,64
838,174;39,63
838,398;39,64
838,622;39,61
838,846;39,59
839,07;39,5
839,294;39,53
839,518;39,49
839,742;39,42
839,966;39,45
840,189;39,36
840,413;39,33
840,637;39,3
840,861;39,27
841,085;39,18
841,308;39,14
841,532;39,16
841,756;39,17
841,979;39,14
842,203;39,15
842,427;39,14
842,65;39,16
842,874;39,1
843,098;39,06
843,321;39,04
843,545;39,05
843,768;39,06
843,992;38,98
844,215;39
844,439;39,03
844,662;38,96
844,886;38,95
845,109;39
845,332;38,97
845,556;38,92
845,779;38,89
846,002;38,9
846,226;38,91
846,449;38,84
846,672;38,88
846,895;38,88
847,119;38,86
847,342;38,79
847,565;38,75
847,788;38,69
848,011;38,67
848,234;38,66
848,457;38,67
848,681;38,66
848,904;38,64
849,127;38,58
849,35;38,62
849,573;38,69
849,796;38,65
850,019;38,68
850,241;38,69
850,464;38,73
850,687;38,8
850,91;38,78
851,133;38,8
851,356;38,81
851,579;38,82
851,801;38,79
852,024;38,86
852,247;38,87
852,47;38,9
852,692;38,83
852,915;38,82
853,138;38,77
853,36;38,81
853,583;38,77
853,806;38,8
854,028;38,73
854,251;38,6
854,473;38,56
854,696;38,51
854,918;38,53
855,141;38,52
855,363;38,52
855,586;38,51
855,808;38,46
856,031;38,37
856,253;38,35
856,475;38,37
856,698;38,24
856,92;38,25
857,142;38,2
857,365;38,36
857,587;38,29
857,809;38,33
858,031;38,37
858,253;38,31
858,476;38,26
858,698;38,25
858,92;38,14
859,142;38,17
859,364;38,17
859,586;38,19
859,808;38,14
860,03;38,03
860,252;38,04
860,474;38,1
860,696;38,13
860,918;38,05
861,14;38,07
861,362;38,19
861,584;38,19
861,806;38,19
862,028;38,06
862,25;38,05
862,471;38,03
862,693;37,98
862,915;38,06
863,137;38,03
863,358;38,1
863,58;38,24
863,802;38,17
864,024;38,2
864,245;38,11
864,467;38,16
864,688;38,15
864,91;38,11
865,132;38,06
865,353;38,04
865,575;38,08
865,796;38,03
866,018;37,97
866,239;37,89
866,461;37,9
866,682;37,93
866,903;37,84
867,125;37,86
867,346;37,82
867,567;37,78
867,789;37,78
868,01;37,7
868,231;37,62
868,453;37,61
868,674;37,57
868,895;37,58
869,116;37,49
869,337;37,59
869,559;37,57
869,78;37,52
870,001;37,54
870,222;37,58
870,443;37,57
870,664;37,57
870,885;37,66
871,106;37,66
871,327;37,71
871,548;37,81
871,769;37,73
871,99;37,89
872,211;37,89
872,432;37,87
872,653;37,85
872,874;37,95
873,094;37,9
873,315;37,91
873,536;37,9
873,757;37,91
873,978;37,81
874,198;37,77
874,419;37,77
874,64;37,77
874,86;37,76
875,081;37,78
875,302;37,9
875,522;37,91
875,743;38
875,963;38,01
876,184;37,96
876,404;37,9
876,625;37,67
876,845;37,76
877,066;37,8
877,286;37,79
877,507;37,78
877,727;37,88
877,947;37,86
878,168;37,85
878,388;37,91
878,609;37,95
878,829;37,94
879,049;37,97
879,269;38
879,49;37,96
879,71;37,96
879,93;37,78
880,15;37,74
880,37;37,65
880,59;37,58
880,811;37,57
881,031;37,6
881,251;37,69
881,471;37,65
881,691;37,7
881,911;37,8
882,131;37,77
882,351;37,72
882,571;37,71
882,791;37,72
883,011;37,69
883,23;37,72
883,45;37,84
883,67;37,91
883,89;37,8
884,11;37,78
884,33;37,72
884,549;37,81
884,769;37,83
884,989;37,88
885,209;37,91
885,428;38,09
885,648;38,06
885,868;38,07
886,087;37,99
886,307;37,87
886,526;37,84
886,746;37,9
886,965;37,96
887,185;37,99
887,404;38,01
887,624;38,07
887,843;38,07
888,063;37,95
888,282;37,92
888,502;38,01
888,721;38,12
888,94;38,2
889,16;38,2
889,379;38,12
889,598;38,17
889,818;38,21
890,037;38,1
890,256;38,19
890,475;38,22
890,694;38,23
890,914;38,26
891,133;38,22
891,352;38,25
891,571;38,19
891,79;38,17
892,009;38,18
892,228;38,3
892,447;38,31
892,666;38,43
892,885;38,41
893,104;38,4
893,323;38,41
893,542;38,46
893,761;38,46
893,98;38,58
894,199;38,49
894,417;38,36
894,636;38,4
894,855;38,49
895,074;38,43
895,293;38,47
895,511;38,57
895,73;38,62
895,949;38,54
896,167;38,56
896,386;38,63
896,605;38,7
896,823;38,51
897,042;38,48
897,26;38,36
897,479;38,38
897,697;38,44
897,916;38,41
898,134;38,43
898,353;38,51
898,571;38,42
898,79;38,44
899,008;38,54
899,227;38,55
899,445;38,55
899,663;38,56
899,882;38,6
900,1;38,61
900,318;38,6
900,536;38,7
900,755;38,84
900,973;38,87
901,191;38,86
901,409;38,96
901,627;38,92
901,846;39,1
902,064;39,08
902,282;39,16
902,5;39,24
902,718;39,13
902,936;39,14
903,154;39,17
903,372;39,25
903,59;39,23
903,808;39,29
904,026;39,37
904,244;39,4
904,462;39,42
904,679;39,4
904,897;39,44
905,115;39,35
905,333;39,27
905,551;39,21
905,768;39,16
905,986;39,12
906,204;39,22
906,422;39,17
906,639;39,22
906,857;39,18
907,074;39,03
907,292;39,07
907,51;39,04
907,727;39,09
907,945;39,11
908,162;39,24
908,38;39,16
908,597;39,03
908,815;39,05
909,032;39,02
909,25;39,01
909,467;38,99
909,684;39,05
909,902;39,12
910,119;39,21
910,337;39,26
910,554;39,33
910,771;39,37
910,988;39,43
911,206;39,52
911,423;39,53
911,64;39,72
911,857;39,81
912,074;39,8
912,291;39,73
912,509;39,74
912,726;39,74
912,943;39,78
913,16;39,85
913,377;39,91
913,594;40,01
913,811;40,13
914,028;40,12
914,245;40,25
914,462;40,23
914,679;40,3
914,896;40,41
915,112;40,47
915,329;40,51
915,546;40,59
915,763;40,65
915,98;40,61
916,196;40,59
916,413;40,64
916,63;40,68
916,847;40,85
917,063;40,8
917,28;40,68
917,497;40,85
917,713;40,99
917,93;41,12
918,146;41,04
918,363;41,17
918,579;41,1
918,796;41,1
919,012;41,23
919,229;41,13
919,445;41,11
919,662;41,04
919,878;40,94
920,095;40,83
920,311;40,73
920,527;40,73
920,744;40,78
920,96;40,75
921,176;40,76
921,392;40,61
921,609;40,73
921,825;40,92
922,041;40,93
922,257;40,75
922,473;40,74
922,69;40,82
922,906;40,57
923,122;40,83
923,338;40,84
923,554;40,68
923,77;40,81
923,986;40,83
924,202;40,95
924,418;41,1
924,634;41,11
924,85;41,16
925,066;41,37
925,282;41,35
925,497;41,27
925,713;41,37
925,929;41,51
926,145;41,39
926,361;41,39
926,576;41,38
926,792;41,32
927,008;41,24
927,224;41,24
927,439;41,35
927,655;41,23
927,871;41,3
928,086;41,54
928,302;41,51
928,517;41,52
928,733;41,51
928,948;41,43
929,164;41,45
929,379;41,51
929,595;41,45
929,81;41,47
930,026;41,56
930,241;41,62
930,456;41,43
930,672;41,58
930,887;41,45
931,102;41,39
931,318;41,6
931,533;41,62
931,748;41,66
931,964;41,63
932,179;41,63
932,394;41,61
932,609;41,51
932,824;41,51
933,039;41,53
933,255;41,51
933,47;41,56
933,685;41,65
933,9;41,7
934,115;41,66
934,33;41,61
934,545;41,68
934,76;41,59
934,975;41,93
935,19;41,94
935,404;42,19
935,619;42,25
935,834;42,39
936,049;42,51
936,264;42,79
936,479;43,02
936,693;43,15
936,908;43,47
937,123;43,65
937,338;43,97
937,552;43,92
937,767;44,06
937,982;44,31
938,196;44,58
938,411;44,55
938,625;44,78
938,84;45,1
939,055;45,19
939,269;45,44
939,484;45,75
939,698;46,08
939,912;45,73
940,127;46,28
940,341;46,23
940,556;46,15
940,77;46,05
940,984;46,29
941,199;46,5
941,413;45,83
941,627;45,98
941,842;45,73
942,056;46,31
942,27;46,36
942,484;46,69
942,699;46,69
942,913;46,92
943,127;46,84
943,341;46,88
943,555;47,08
943,769;47,78
943,983;47,71
944,197;47,45
944,411;47,91
944,625;47,67
944,839;48,02
945,053;48,44
945,267;48,18
945,481;47,63
945,695;47,74
945,909;47,91
946,123;47,86
946,336;48,5
946,55;48,19
946,764;48,46
946,978;48,24
947,192;48,15
947,405;48,24
947,619;48,84
947,833;48,61
948,046;48,84
948,26;48,25
948,474;48,29
948,687;48,23
948,901;48,81
949,114;48,7
949,328;48,81
949,541;48,39
949,755;48,71
949,968;49,12
950,182;48,86
950,395;49,04
950,609;48,79
950,822;48,6
951,035;49,09
951,249;49,09
951,462;49,11
951,675;48,84
951,889;48,48
952,102;48,03
952,315;48,36
952,528;48,06
952,741;47,98
952,955;47,81
953,168;47,84
953,381;47,72
953,594;47,39
953,807;47,26
954,02;47,37
954,233;46,99
954,446;47,08
954,659;47,57
954,872;47,22
955,085;47,34
955,298;47,24
955,511;47,11
955,724;46,64
955,937;46,43
956,15;46,36
956,362;46,38
956,575;46,76
956,788;46,68
957,001;46,56
957,214;46,62
957,426;46,48
957,639;46,84
957,852;46,55
958,064;46,71
958,277;46,42
958,49;46,72
958,702;46,94
958,915;46,72
959,127;46,65
959,34;46,79
959,552;46,75
959,765;46,64
959,977;46,64
960,19;47,03
960,402;47,27
960,615;47,38
960,827;47,52
961,039;47,04
961,252;47,11
961,464;47,16
961,676;47,57
961,889;48,06
962,101;47,89
962,313;48,53
962,525;48,55
962,738;48,91
962,95;49
963,162;49,13
963,374;49,49
963,586;49,27
963,798;49,75
964,01;50,05
964,222;50,19
964,434;50,2
964,646;50,04
964,858;49,9
965,07;50,31
965,282;50,44
965,494;50,69
965,706;50,73
965,918;51,34
966,13;51,18
966,342;50,78
966,553;50,85
966,765;50,39
966,977;50,66
967,189;50,41
967,401;50,36
967,612;50,06
967,824;49,98
968,036;50,21
968,247;50,1
968,459;50,08
968,67;50,29
968,882;50,29
969,094;50,38
969,305;50,61
969,517;50,3
969,728;50,74
969,94;51,2
970,151;51,52
970,362;51,37
970,574;51,24
970,785;51,53
970,997;51,38
971,208;51,4
971,419;51,21
971,631;51,56
971,842;51,79
972,053;52,29
972,264;52,57
972,476;52,65
972,687;52,31
972,898;51,97
973,109;51,81
973,32;52,32
973,531;52,67
973,742;52,76
973,954;52,94
974,165;52,56
974,376;52,56
974,587;52,31
974,798;52,32
975,009;52,3
975,22;52,42
975,43;52,9
975,641;53,18
975,852;53,2
976,063;53,21
976,274;53,14
976,485;53,24
976,695;52,79
976,906;52,95
977,117;53,89
977,328;54,4
977,538;54,29
977,749;53,78
977,96;53,98
978,17;53,76
978,381;53,6
978,592;54,06
978,802;53,84
979,013;54,08
979,223;54,24
979,434;54,37
979,644;54,34
979,855;54,25
980,065;54,62
980,276;55,05
980,486;55,11
980,696;54,91
980,907;54,88
981,117;55,61
981,327;55,73
981,538;55,36
981,748;54,77
981,958;55,11
982,169;55,27
982,379;55,03
982,589;55,61
982,799;55,86
983,009;55,42
983,219;55,85
983,43;55,33
983,64;54,86
983,85;55,07
984,06;55,12
984,27;54,78
984,48;54,24
984,69;53,82
984,9;53,62
985,11;54,28
985,32;54,15
985,529;53,7
985,739;53,48
985,949;53,59
986,159;54,37
986,369;54,75
986,579;55,3
986,788;55,73
986,998;55,66
987,208;55,6
987,417;55,38
987,627;54,89
987,837;55,27
988,046;55,37
988,256;55,5
988,466;55,45
988,675;55,64
988,885;55,66
989,094;56,48
989,304;56,8
989,513;56,68
989,723;57,19
989,932;57,17
990,142;57,08
990,351;56,68
990,56;56,09
990,77;55,97
990,979;55,28
991,188;54,86
991,398;54,77
991,607;55,14
991,816;55,39
992,025;55,71
992,235;55,79
992,444;56,67
992,653;57,13
992,862;56,51
993,071;56,82
993,28;56,79
993,489;56,94
993,698;56,72
993,908;56,05
994,117;55,32
994,326;55,86
994,534;56,18
994,743;56,26
994,952;57,18
995,161;56,68
995,37;57,3
995,579;57,9
995,788;57,95
995,997;57,48
996,205;57,9
996,414;58,19
996,623;58,61
996,832;57,98
997,04;57,66
997,249;58,13
997,458;57,81
997,666;58,65
997,875;58,55
998,084;58,63
998,292;58,95
998,501;59,47
998,709;59,39
998,918;59,27
999,126;59,17
999,335;58,52
999,543;58,52
999,752;58,08
999,96;57,94
1000,169;57,49
1000,377;57,9
1000,585;57,88
1000,794;57,51
1001,002;57,23
1001,21;57,68
1001,418;57,5
1001,627;57,74
1001,835;58,85
1002,043;58,58
1002,251;57,33
1002,459;57,81
1002,668;57,5
1002,876;57,09
1003,084;56,98
1003,292;56,78
1003,5;57,07
1003,708;57,39
1003,916;57,39
1004,124;57,62
1004,332;57,15
1004,54;57,4
1004,748;57,98
1004,956;57,88
1005,163;57,23
1005,371;57,3
1005,579;57,3
1005,787;57,47
1005,995;57,9
1006,202;57,75
1006,41;58,54
1006,618;58,76
1006,826;58,62
1007,033;59,55
1007,241;59,89
1007,449;59,49
1007,656;59,85
1007,864;59,19
1008,071;60,13
1008,279;60,89
1008,486;61,1
1008,694;60,99
1008,901;61,53
1009,109;60,76
1009,316;60,78
1009,524;61,6
1009,731;61,29
1009,938;61,49
1010,146;61,68
1010,353;62,12
1010,56;61,69
1010,768;61,53
1010,975;62,57
1011,182;62,14
1011,389;61,47
1011,597;62,07
1011,804;62,68
1012,011;62,82
1012,218;63,71
1012,425;63,26
1012,632;62,91
1012,839;63,63
1013,046;64,53
1013,253;65,54
1013,46;65,3
1013,667;65,62
1013,874;66,39
1014,081;66,97
1014,288;66,2
1014,495;65,61
1014,702;64,5
1014,909;64,25
1015,116;63,33
1015,323;63,55
1015,529;63,91
1015,736;64,91
1015,943;64,45
1016,15;64,06
1016,356;64,56
1016,563;64,66
1016,77;64,12
1016,976;65,15
1017,183;64,09
1017,389;63,52
1017,596;62,87
1017,803;64,12
1018,009;65,18
1018,216;64,29
1018,422;62,64
1018,629;63,65
1018,835;64,26
1019,041;65,45
1019,248;65,27
1019,454;65,02
1019,661;65,75
1019,867;66,68
1020,073;67
1020,279;67,75
1020,486;66,82
1020,692;66,9
1020,898;65,36
1021,104;65,07
1021,311;64,48
1021,517;63,18
1021,723;63,9
1021,929;63,89
1022,135;63,46
1022,341;62,23
1022,547;63,82
1022,753;65,75
1022,959;64,76
1023,165;65,35
1023,371;66,53
1023,577;66,51
1023,783;65,82
1023,989;65
1024,195;64,84
1024,401;62,68
1024,607;63,07
1024,812;64,48
1025,018;65,27
1025,224;66,1
1025,43;67,21
1025,635;66,68
1025,841;69,39
1026,047;68,88
1026,252;68,6
1026,458;69,1
1026,664;68,27
1026,869;67,66
1027,075;67,48
1027,28;66,7
1027,486;65,09
1027,691;63,66
1027,897;64,6
1028,102;64,38
1028,308;63,67
1028,513;63,22
1028,719;64
1028,924;64,17
1029,129;64,65
1029,335;63,52
1029,54;65,51
1029,745;64,22
1029,95;64,93
1030,156;64,82
1030,361;64,62
1030,566;66,38
1030,771;65,97
1030,976;65,2
1031,182;64,23
1031,387;64,12
1031,592;65,4
1031,797;66,81
1032,002;66,14
1032,207;66,11
1032,412;68,27
1032,617;70,48
1032,822;67,91
1033,027;70,76
1033,232;69,97
1033,437;69,57
1033,642;69,21
1033,846;68,65
1034,051;70,16
1034,256;71,06
1034,461;69,4
1034,666;70,34
1034,87;68,93
1035,075;66,39
1035,28;67,97
1035,484;66,54
1035,689;65,93
1035,894;66,24
1036,098;63,46
1036,303;63,9
1036,507;62,73
1036,712;60,81
1036,917;58,98
1037,121;64,04
1037,325;60,67
1037,53;61,89
1037,734;60,59
1037,939;60,77
1038,143;60,92
1038,348;61,34
1038,552;60,5
1038,756;60,02
1038,961;58,57
1039,165;57,08
1039,369;58,9
1039,573;58,52
1039,778;59,59
1039,982;61,08
1040,186;56,69
1040,39;60,53
1040,594;62,06
1040,798;62,11
1041,002;64,13
1041,206;65,31
1041,41;64,19
1041,614;64,36
1041,818;62,4
1042,022;63,41
1042,226;64,09
1042,43;64,78
1042,634;62,65
1042,838;62,37
1043,042;63,59
1043,246;62,3
1043,45;61,97
1043,653;63,11
1043,857;64,73
1044,061;65,62
1044,265;66,46
1044,468;74,7
1044,672;74,54
1044,876;71,4
1045,079;70,57
1045,283;72,72
1045,487;72,55
1045,69;70,07
1045,894;68,75
1046,097;73,7
1046,301;73,74
1046,504;74,1
1046,708;74,3
1046,911;78,85
1047,115;78,33
1047,318;81,11
1047,522;85,58
1047,725;84,5
1047,928;82,02
1048,132;80,79
1048,335;84,16
1048,538;81,85
1048,741;80,11
1048,945;78,81
1049,148;82,49
1049,351;81,58
1049,554;82,51
1049,757;82,8
1049,96;83,53
1050,163;86
1050,367;83,53
1050,57;85,06
1050,773;85,49
1050,976;85,08
1051,179;80,01
1051,382;77,78
1051,585;75,48
1051,787;75,86
1051,99;78,18
1052,193;79,45
1052,396;80,92
1052,599;77,19
1052,802;81,37
1053,005;80,98
1053,207;79,44
1053,41;75,28
1053,613;78,31
1053,815;74,34
1054,018;70,39
1054,221;71
1054,423;71,68
1054,626;69,02
1054,829;67,04
1055,031;65,57
1055,234;63,43
1055,436;66,49
1055,639;71,07
1055,841;69,44
1056,044;66,6
1056,246;65,17
