Data from redochrewhite_Reflection__4__11.txt Node;
"Date: Wed Sep 10 11:37:29 CEST 2025 User: sycur Spectrometer: SR400348 Trigger mode: 0 Integration Time (sec): 1,000000E-2 Scans to average: 10 Electric dark correction enabled: true Nonlinearity correction enabled: false Boxcar width: 10 XAxis mode: Wavelengths Number of Pixels in Spectrum: 3648 >>>>>Begin Spectral Data<<<<<";
186,01;31,51
186,281;48,6
186,552;36,17
186,822;91,17
187,093;333,33
187,364;87,04
187,635;29,04
187,905;36,43
188,176;33,72
188,447;8,92
188,717;16,43
188,988;18,69
189,258;16,19
189,529;16,49
189,8;12,61
190,07;16,28
190,341;16,29
190,611;15,14
190,882;13,71
191,152;15,11
191,423;13,55
191,693;14,78
191,964;14,91
192,234;18,22
192,505;17,59
192,775;21,45
193,045;22,09
193,316;21,05
193,586;20,29
193,856;20,79
194,127;22,2
194,397;21,71
194,667;22,57
194,938;23,26
195,208;22,65
195,478;23,76
195,748;22,61
196,019;22,52
196,289;21,23
196,559;19,99
196,829;18,78
197,099;19,62
197,37;18,88
197,64;19
197,91;18,09
198,18;17,71
198,45;17,44
198,72;16,54
198,99;15,89
199,26;15,47
199,53;15,04
199,8;15,48
200,07;15,03
200,34;14,08
200,61;13,52
200,88;13,8
201,15;13,09
201,42;12,83
201,69;12,36
201,96;12,73
202,23;13,71
202,499;13,82
202,769;13,37
203,039;12,78
203,309;11,34
203,579;11,53
203,849;11,2
204,118;10,24
204,388;10,23
204,658;10,21
204,927;10,11
205,197;9,32
205,467;8,93
205,736;9,26
206,006;9,29
206,276;9,44
206,545;9,37
206,815;9,33
207,085;9,38
207,354;9,78
207,624;9,47
207,893;8,9
208,163;8,83
208,432;9,07
208,702;8,97
208,971;9,2
209,241;8,87
209,51;9,07
209,78;9,19
210,049;8,97
210,318;8,95
210,588;9,02
210,857;9,23
211,127;9,24
211,396;8,65
211,665;8,68
211,935;8,49
212,204;8,32
212,473;8,34
212,742;8,29
213,012;8,19
213,281;8,47
213,55;8,81
213,819;8,85
214,088;8,63
214,358;8,58
214,627;8,48
214,896;8,43
215,165;8,15
215,434;7,92
215,703;7,93
215,972;8,01
216,241;8,1
216,51;8,03
216,779;7,98
217,048;8,17
217,317;8,03
217,586;8,01
217,855;8,01
218,124;8,08
218,393;8,05
218,662;8,02
218,931;7,79
219,2;7,37
219,469;7,33
219,738;7,38
220,006;7,38
220,275;7,5
220,544;7,52
220,813;7,49
221,082;7,53
221,35;7,44
221,619;7,42
221,888;7,37
222,157;7,36
222,425;7,2
222,694;7,1
222,963;7,07
223,231;7,03
223,5;6,95
223,769;6,71
224,037;6,64
224,306;6,56
224,574;6,62
224,843;6,67
225,111;6,5
225,38;6,39
225,648;6,37
225,917;6,28
226,185;6,22
226,454;6,21
226,722;6,26
226,991;6,19
227,259;6,13
227,528;6
227,796;5,97
228,064;5,93
228,333;5,88
228,601;5,82
228,869;5,74
229,138;5,62
229,406;5,66
229,674;5,7
229,942;5,71
230,211;5,73
230,479;5,68
230,747;5,72
231,015;5,66
231,283;5,66
231,552;5,58
231,82;5,47
232,088;5,48
232,356;5,42
232,624;5,43
232,892;5,41
233,16;5,39
233,428;5,38
233,696;5,38
233,964;5,35
234,232;5,34
234,5;5,35
234,768;5,39
235,036;5,41
235,304;5,37
235,572;5,37
235,84;5,3
236,108;5,33
236,376;5,29
236,644;5,27
236,912;5,26
237,179;5,3
237,447;5,33
237,715;5,23
237,983;5,23
238,251;5,22
238,518;5,2
238,786;5,21
239,054;5,18
239,322;5,21
239,589;5,26
239,857;5,26
240,125;5,28
240,392;5,28
240,66;5,27
240,927;5,25
241,195;5,24
241,463;5,25
241,73;5,25
241,998;5,29
242,265;5,28
242,533;5,27
242,8;5,27
243,068;5,28
243,335;5,34
243,603;5,35
243,87;5,35
244,138;5,35
244,405;5,34
244,672;5,34
244,94;5,29
245,207;5,27
245,474;5,3
245,742;5,29
246,009;5,27
246,276;5,29
246,544;5,28
246,811;5,25
247,078;5,24
247,345;5,26
247,613;5,25
247,88;5,24
248,147;5,24
248,414;5,2
248,681;5,19
248,948;5,18
249,215;5,14
249,483;5,12
249,75;5,11
250,017;5,1
250,284;5,11
250,551;5,12
250,818;5,12
251,085;5,06
251,352;5,04
251,619;5,04
251,886;4,98
252,153;5
252,42;4,99
252,687;4,98
252,953;4,96
253,22;4,91
253,487;4,92
253,754;4,92
254,021;4,91
254,288;4,89
254,555;4,86
254,821;4,88
255,088;4,87
255,355;4,87
255,622;4,86
255,888;4,84
256,155;4,81
256,422;4,8
256,688;4,8
256,955;4,8
257,222;4,79
257,488;4,79
257,755;4,76
258,022;4,73
258,288;4,71
258,555;4,67
258,821;4,68
259,088;4,68
259,354;4,64
259,621;4,61
259,887;4,62
260,154;4,62
260,42;4,57
260,687;4,58
260,953;4,58
261,219;4,58
261,486;4,56
261,752;4,55
262,019;4,52
262,285;4,49
262,551;4,47
262,818;4,47
263,084;4,46
263,35;4,44
263,616;4,42
263,883;4,41
264,149;4,39
264,415;4,38
264,681;4,34
264,947;4,35
265,214;4,37
265,48;4,34
265,746;4,36
266,012;4,37
266,278;4,34
266,544;4,34
266,81;4,33
267,076;4,33
267,342;4,33
267,608;4,35
267,874;4,35
268,14;4,37
268,406;4,35
268,672;4,35
268,938;4,34
269,204;4,33
269,47;4,33
269,736;4,33
270,002;4,29
270,268;4,31
270,533;4,31
270,799;4,3
271,065;4,29
271,331;4,23
271,597;4,25
271,862;4,23
272,128;4,21
272,394;4,21
272,66;4,19
272,925;4,21
273,191;4,18
273,457;4,19
273,722;4,15
273,988;4,16
274,254;4,15
274,519;4,15
274,785;4,17
275,05;4,14
275,316;4,14
275,582;4,16
275,847;4,17
276,113;4,14
276,378;4,14
276,644;4,15
276,909;4,15
277,174;4,13
277,44;4,14
277,705;4,11
277,971;4,09
278,236;4,1
278,501;4,08
278,767;4,09
279,032;4,08
279,297;4,09
279,563;4,04
279,828;4,02
280,093;3,98
280,358;3,97
280,624;3,96
280,889;3,96
281,154;3,97
281,419;3,96
281,684;3,98
281,95;3,98
282,215;3,97
282,48;3,97
282,745;3,96
283,01;3,96
283,275;3,93
283,54;3,93
283,805;3,93
284,07;3,95
284,335;3,92
284,6;3,9
284,865;3,88
285,13;3,89
285,395;3,92
285,66;3,95
285,925;3,98
286,19;4,03
286,455;4,01
286,72;4,04
286,985;4
287,249;3,99
287,514;4
287,779;4,02
288,044;4,01
288,309;4,02
288,573;4,02
288,838;4,09
289,103;4,12
289,367;4,13
289,632;4,13
289,897;4,16
290,161;4,19
290,426;4,22
290,691;4,27
290,955;4,25
291,22;4,25
291,484;4,24
291,749;4,21
292,014;4,21
292,278;4,22
292,543;4,26
292,807;4,31
293,072;4,3
293,336;4,3
293,6;4,31
293,865;4,34
294,129;4,32
294,394;4,31
294,658;4,32
294,922;4,33
295,187;4,32
295,451;4,3
295,715;4,31
295,98;4,34
296,244;4,33
296,508;4,35
296,773;4,39
297,037;4,42
297,301;4,45
297,565;4,49
297,829;4,47
298,094;4,46
298,358;4,44
298,622;4,46
298,886;4,48
299,15;4,52
299,414;4,52
299,678;4,55
299,942;4,54
300,206;4,56
300,47;4,58
300,734;4,6
300,998;4,64
301,262;4,64
301,526;4,61
301,79;4,64
302,054;4,66
302,318;4,64
302,582;4,67
302,846;4,67
303,11;4,68
303,374;4,7
303,637;4,73
303,901;4,74
304,165;4,74
304,429;4,76
304,693;4,75
304,956;4,77
305,22;4,79
305,484;4,83
305,747;4,86
306,011;4,85
306,275;4,84
306,538;4,86
306,802;4,88
307,066;4,9
307,329;4,88
307,593;4,88
307,856;4,88
308,12;4,85
308,384;4,89
308,647;4,9
308,911;4,91
309,174;4,92
309,438;4,93
309,701;4,93
309,964;4,92
310,228;4,93
310,491;4,92
310,755;4,93
311,018;4,92
311,281;4,93
311,545;4,93
311,808;4,94
312,071;4,92
312,335;4,89
312,598;4,91
312,861;4,95
313,124;4,98
313,388;5,03
313,651;5,02
313,914;4,99
314,177;4,96
314,44;4,94
314,704;4,92
314,967;4,9
315,23;4,92
315,493;4,93
315,756;4,91
316,019;4,91
316,282;4,91
316,545;4,9
316,808;4,92
317,071;4,92
317,334;4,95
317,597;4,96
317,86;4,96
318,123;4,97
318,386;4,94
318,649;4,9
318,912;4,88
319,175;4,92
319,437;4,92
319,7;4,95
319,963;5,01
320,226;5,02
320,489;5,03
320,751;5,01
321,014;5,01
321,277;5,03
321,54;5,01
321,802;5,02
322,065;5,02
322,328;4,98
322,59;5
322,853;4,98
323,116;5
323,378;4,99
323,641;4,96
323,903;4,96
324,166;4,99
324,428;4,97
324,691;4,93
324,953;4,94
325,216;4,92
325,478;4,88
325,741;4,86
326,003;4,87
326,266;4,86
326,528;4,8
326,791;4,78
327,053;4,79
327,315;4,76
327,578;4,75
327,84;4,76
328,102;4,71
328,365;4,71
328,627;4,69
328,889;4,68
329,151;4,69
329,414;4,7
329,676;4,66
329,938;4,68
330,2;4,64
330,462;4,64
330,725;4,6
330,987;4,61
331,249;4,59
331,511;4,55
331,773;4,56
332,035;4,62
332,297;4,63
332,559;4,6
332,821;4,6
333,083;4,57
333,345;4,56
333,607;4,58
333,869;4,61
334,131;4,61
334,393;4,66
334,655;4,64
334,917;4,63
335,179;4,61
335,44;4,57
335,702;4,6
335,964;4,61
336,226;4,65
336,488;4,63
336,749;4,66
337,011;4,68
337,273;4,7
337,535;4,67
337,796;4,65
338,058;4,68
338,32;4,64
338,581;4,66
338,843;4,65
339,105;4,65
339,366;4,65
339,628;4,65
339,889;4,61
340,151;4,6
340,412;4,57
340,674;4,58
340,935;4,6
341,197;4,61
341,458;4,59
341,72;4,57
341,981;4,55
342,243;4,53
342,504;4,54
342,766;4,54
343,027;4,52
343,288;4,54
343,55;4,58
343,811;4,61
344,072;4,56
344,334;4,54
344,595;4,5
344,856;4,46
345,117;4,47
345,379;4,48
345,64;4,48
345,901;4,52
346,162;4,54
346,423;4,56
346,684;4,52
346,946;4,54
347,207;4,52
347,468;4,58
347,729;4,57
347,99;4,53
348,251;4,53
348,512;4,54
348,773;4,51
349,034;4,42
349,295;4,46
349,556;4,53
349,817;4,56
350,078;4,6
350,339;4,6
350,6;4,64
350,86;4,67
351,121;4,67
351,382;4,62
351,643;4,57
351,904;4,55
352,165;4,54
352,425;4,5
352,686;4,54
352,947;4,44
353,208;4,46
353,468;4,47
353,729;4,44
353,99;4,44
354,25;4,48
354,511;4,51
354,772;4,48
355,032;4,47
355,293;4,45
355,553;4,45
355,814;4,43
356,074;4,37
356,335;4,38
356,596;4,37
356,856;4,38
357,116;4,36
357,377;4,4
357,637;4,39
357,898;4,41
358,158;4,38
358,419;4,45
358,679;4,43
358,939;4,43
359,2;4,45
359,46;4,45
359,72;4,39
359,981;4,42
360,241;4,38
360,501;4,36
360,761;4,37
361,022;4,36
361,282;4,37
361,542;4,36
361,802;4,29
362,062;4,28
362,323;4,28
362,583;4,36
362,843;4,32
363,103;4,34
363,363;4,34
363,623;4,34
363,883;4,35
364,143;4,36
364,403;4,37
364,663;4,37
364,923;4,38
365,183;4,41
365,443;4,41
365,703;4,39
365,963;4,4
366,223;4,4
366,483;4,38
366,743;4,4
367,002;4,41
367,262;4,41
367,522;4,43
367,782;4,39
368,042;4,37
368,301;4,33
368,561;4,33
368,821;4,28
369,081;4,29
369,34;4,26
369,6;4,24
369,86;4,23
370,119;4,24
370,379;4,23
370,638;4,22
370,898;4,2
371,158;4,2
371,417;4,18
371,677;4,16
371,936;4,15
372,196;4,1
372,455;4,11
372,715;4,1
372,974;4,12
373,234;4,12
373,493;4,09
373,753;4,12
374,012;4,1
374,271;4,12
374,531;4,11
374,79;4,1
375,049;4,15
375,309;4,15
375,568;4,09
375,827;4,05
376,086;4,02
376,346;4,04
376,605;4,05
376,864;4,04
377,123;4,06
377,383;4,04
377,642;4,08
377,901;4,06
378,16;4,04
378,419;4,04
378,678;4,06
378,937;4,08
379,196;4,07
379,455;4,1
379,714;4,13
379,973;4,17
380,232;4,16
380,491;4,12
380,75;4,1
381,009;4,08
381,268;4,12
381,527;4,11
381,786;4,09
382,045;4,08
382,304;4,11
382,563;4,13
382,821;4,17
383,08;4,12
383,339;4,18
383,598;4,22
383,857;4,2
384,115;4,18
384,374;4,19
384,633;4,2
384,891;4,16
385,15;4,1
385,409;4,1
385,667;4,09
385,926;4,09
386,185;4,05
386,443;4,1
386,702;4,04
386,96;4,04
387,219;4,05
387,477;4,07
387,736;4,03
387,994;4
388,253;3,99
388,511;3,96
388,77;3,93
389,028;3,91
389,287;3,87
389,545;3,89
389,803;3,85
390,062;3,84
390,32;3,87
390,578;3,94
390,837;3,89
391,095;3,91
391,353;3,93
391,612;3,99
391,87;3,97
392,128;4,02
392,386;4,03
392,644;3,99
392,903;3,98
393,161;3,97
393,419;3,95
393,677;3,99
393,935;4,01
394,193;3,97
394,451;4
394,709;3,97
394,967;3,95
395,225;3,95
395,483;3,95
395,741;3,92
395,999;3,88
396,257;3,92
396,515;3,9
396,773;3,89
397,031;3,85
397,289;3,89
397,547;3,85
397,805;3,85
398,062;3,85
398,32;3,84
398,578;3,87
398,836;3,85
399,094;3,8
399,351;3,8
399,609;3,83
399,867;3,8
400,124;3,84
400,382;3,88
400,64;3,93
400,897;3,9
401,155;3,93
401,413;3,95
401,67;3,92
401,928;3,93
402,185;3,95
402,443;3,95
402,701;3,9
402,958;3,88
403,216;3,85
403,473;3,88
403,73;3,89
403,988;3,9
404,245;3,91
404,503;3,91
404,76;3,85
405,018;3,82
405,275;3,87
405,532;3,9
405,79;3,87
406,047;3,79
406,304;3,81
406,561;3,79
406,819;3,83
407,076;3,8
407,333;3,82
407,59;3,84
407,848;3,86
408,105;3,88
408,362;3,93
408,619;3,96
408,876;3,95
409,133;3,93
409,39;3,93
409,647;3,96
409,904;3,93
410,161;3,97
410,418;3,94
410,675;3,92
410,932;3,85
411,189;3,89
411,446;3,91
411,703;3,86
411,96;3,81
412,217;3,79
412,474;3,8
412,731;3,73
412,988;3,71
413,245;3,72
413,501;3,68
413,758;3,68
414,015;3,63
414,272;3,63
414,529;3,67
414,785;3,68
415,042;3,71
415,299;3,76
415,555;3,75
415,812;3,76
416,069;3,76
416,325;3,78
416,582;3,77
416,838;3,81
417,095;3,82
417,352;3,84
417,608;3,88
417,865;3,89
418,121;3,91
418,378;3,91
418,634;3,9
418,891;4
419,147;4,02
419,403;4,06
419,66;4,04
419,916;4,01
420,173;3,96
420,429;3,94
420,685;4
420,942;4
421,198;4,01
421,454;3,98
421,711;3,97
421,967;3,92
422,223;3,91
422,479;3,94
422,735;3,95
422,992;3,87
423,248;3,81
423,504;3,85
423,76;3,85
424,016;3,82
424,272;3,77
424,528;3,75
424,784;3,75
425,041;3,73
425,297;3,72
425,553;3,79
425,809;3,77
426,065;3,69
426,32;3,73
426,576;3,72
426,832;3,72
427,088;3,76
427,344;3,75
427,6;3,81
427,856;3,81
428,112;3,79
428,368;3,84
428,623;3,92
428,879;3,91
429,135;3,91
429,391;3,92
429,646;3,97
429,902;3,96
430,158;4,02
430,414;4,07
430,669;4,12
430,925;4,08
431,181;4,09
431,436;4,12
431,692;4,1
431,947;4,14
432,203;4,15
432,458;4,13
432,714;4,2
432,97;4,15
433,225;4,12
433,481;4,15
433,736;4,14
433,991;4,14
434,247;4,12
434,502;4,13
434,758;4,17
435,013;4,11
435,268;4,12
435,524;4,06
435,779;4,01
436,034;3,96
436,29;3,97
436,545;3,94
436,8;3,92
437,056;3,92
437,311;3,9
437,566;3,89
437,821;3,86
438,076;3,79
438,331;3,78
438,587;3,86
438,842;3,87
439,097;3,93
439,352;3,94
439,607;3,94
439,862;3,91
440,117;3,87
440,372;3,84
440,627;3,84
440,882;3,84
441,137;3,87
441,392;3,91
441,647;3,91
441,902;3,95
442,157;3,97
442,412;3,98
442,667;3,98
442,921;3,99
443,176;4,01
443,431;4,03
443,686;4,08
443,941;4,06
444,195;4,04
444,45;3,94
444,705;3,92
444,96;3,95
445,214;4
445,469;3,98
445,724;4
445,978;4,05
446,233;4,06
446,487;4,11
446,742;4,05
446,997;4,03
447,251;4
447,506;3,99
447,76;3,99
448,015;4
448,269;4,03
448,524;4,03
448,778;4,03
449,033;3,96
449,287;3,95
449,541;3,94
449,796;3,98
450,05;4,01
450,305;4,02
450,559;4
450,813;4,04
451,067;4,06
451,322;4
451,576;4
451,83;3,95
452,084;4,01
452,339;4,05
452,593;4,03
452,847;4,04
453,101;4,03
453,355;4,03
453,609;4,02
453,864;4,04
454,118;4,01
454,372;4,02
454,626;4,05
454,88;4,07
455,134;4,08
455,388;4,07
455,642;4,06
455,896;4,07
456,15;4,06
456,404;4,08
456,658;4,05
456,912;4,06
457,165;4,05
457,419;4,04
457,673;4
457,927;3,98
458,181;3,98
458,435;3,99
458,688;3,95
458,942;3,94
459,196;3,95
459,45;3,98
459,703;4,01
459,957;3,97
460,211;3,94
460,464;3,93
460,718;3,9
460,972;3,88
461,225;3,87
461,479;3,9
461,732;3,87
461,986;3,89
462,239;3,88
462,493;3,92
462,746;3,93
463;3,87
463,253;3,95
463,507;3,91
463,76;3,93
464,014;3,98
464,267;4,02
464,52;4,04
464,774;4,05
465,027;4,05
465,28;4,1
465,534;4,08
465,787;4,11
466,04;4,1
466,294;4,09
466,547;4,06
466,8;4,08
467,053;4,1
467,306;4,12
467,56;4,16
467,813;4,15
468,066;4,15
468,319;4,21
468,572;4,2
468,825;4,23
469,078;4,24
469,331;4,21
469,584;4,19
469,837;4,14
470,09;4,13
470,343;4,09
470,596;4,05
470,849;4,1
471,102;4,08
471,355;4,12
471,608;4,16
471,861;4,19
472,114;4,17
472,367;4,16
472,619;4,17
472,872;4,16
473,125;4,17
473,378;4,16
473,631;4,17
473,883;4,15
474,136;4,15
474,389;4,17
474,641;4,18
474,894;4,16
475,147;4,18
475,399;4,19
475,652;4,22
475,905;4,22
476,157;4,21
476,41;4,23
476,662;4,21
476,915;4,2
477,167;4,19
477,42;4,22
477,672;4,24
477,925;4,21
478,177;4,24
478,43;4,25
478,682;4,23
478,934;4,21
479,187;4,21
479,439;4,21
479,691;4,19
479,944;4,21
480,196;4,24
480,448;4,26
480,701;4,25
480,953;4,26
481,205;4,26
481,457;4,25
481,709;4,27
481,962;4,27
482,214;4,27
482,466;4,27
482,718;4,27
482,97;4,27
483,222;4,3
483,474;4,3
483,726;4,28
483,978;4,31
484,23;4,35
484,482;4,36
484,734;4,38
484,986;4,37
485,238;4,36
485,49;4,35
485,742;4,34
485,994;4,35
486,246;4,36
486,498;4,36
486,75;4,36
487,001;4,35
487,253;4,36
487,505;4,37
487,757;4,37
488,009;4,35
488,26;4,36
488,512;4,38
488,764;4,37
489,015;4,36
489,267;4,36
489,519;4,34
489,77;4,34
490,022;4,33
490,274;4,33
490,525;4,35
490,777;4,36
491,028;4,33
491,28;4,32
491,531;4,33
491,783;4,35
492,034;4,37
492,286;4,36
492,537;4,37
492,789;4,36
493,04;4,35
493,291;4,37
493,543;4,39
493,794;4,37
494,045;4,38
494,297;4,39
494,548;4,38
494,799;4,37
495,051;4,38
495,302;4,41
495,553;4,41
495,804;4,4
496,056;4,42
496,307;4,45
496,558;4,49
496,809;4,49
497,06;4,49
497,311;4,48
497,562;4,48
497,813;4,47
498,064;4,48
498,316;4,49
498,567;4,49
498,818;4,44
499,069;4,44
499,319;4,45
499,57;4,46
499,821;4,46
500,072;4,46
500,323;4,44
500,574;4,43
500,825;4,45
501,076;4,44
501,327;4,43
501,577;4,43
501,828;4,38
502,079;4,38
502,33;4,39
502,58;4,39
502,831;4,4
503,082;4,4
503,333;4,43
503,583;4,45
503,834;4,46
504,084;4,49
504,335;4,49
504,586;4,49
504,836;4,5
505,087;4,52
505,337;4,57
505,588;4,56
505,838;4,57
506,089;4,57
506,339;4,59
506,59;4,6
506,84;4,62
507,091;4,68
507,341;4,67
507,591;4,69
507,842;4,7
508,092;4,71
508,343;4,74
508,593;4,74
508,843;4,74
509,093;4,73
509,344;4,73
509,594;4,74
509,844;4,77
510,094;4,76
510,345;4,77
510,595;4,76
510,845;4,78
511,095;4,79
511,345;4,8
511,595;4,82
511,845;4,82
512,095;4,84
512,345;4,8
512,595;4,81
512,845;4,81
513,095;4,83
513,345;4,83
513,595;4,82
513,845;4,82
514,095;4,83
514,345;4,86
514,595;4,87
514,845;4,89
515,095;4,87
515,345;4,87
515,594;4,86
515,844;4,86
516,094;4,86
516,344;4,83
516,593;4,83
516,843;4,8
517,093;4,81
517,343;4,78
517,592;4,81
517,842;4,82
518,092;4,83
518,341;4,81
518,591;4,82
518,84;4,81
519,09;4,8
519,34;4,8
519,589;4,77
519,839;4,76
520,088;4,73
520,338;4,73
520,587;4,72
520,836;4,7
521,086;4,71
521,335;4,71
521,585;4,72
521,834;4,72
522,083;4,73
522,333;4,74
522,582;4,77
522,831;4,77
523,081;4,74
523,33;4,73
523,579;4,77
523,828;4,79
524,078;4,79
524,327;4,81
524,576;4,81
524,825;4,82
525,074;4,85
525,323;4,86
525,573;4,87
525,822;4,92
526,071;4,94
526,32;4,97
526,569;4,98
526,818;5,01
527,067;5,02
527,316;5,04
527,565;5,06
527,814;5,04
528,063;5,04
528,312;5,07
528,56;5,07
528,809;5,05
529,058;5,05
529,307;5,07
529,556;5,07
529,805;5,08
530,053;5,11
530,302;5,1
530,551;5,14
530,8;5,16
531,048;5,14
531,297;5,16
531,546;5,16
531,794;5,16
532,043;5,15
532,292;5,17
532,54;5,16
532,789;5,17
533,037;5,19
533,286;5,18
533,535;5,2
533,783;5,22
534,032;5,23
534,28;5,21
534,528;5,23
534,777;5,23
535,025;5,23
535,274;5,25
535,522;5,28
535,771;5,27
536,019;5,28
536,267;5,3
536,516;5,3
536,764;5,32
537,012;5,33
537,26;5,36
537,509;5,36
537,757;5,39
538,005;5,41
538,253;5,42
538,501;5,46
538,75;5,47
538,998;5,48
539,246;5,5
539,494;5,53
539,742;5,54
539,99;5,56
540,238;5,58
540,486;5,59
540,734;5,58
540,982;5,6
541,23;5,6
541,478;5,61
541,726;5,64
541,974;5,65
542,222;5,69
542,47;5,7
542,718;5,71
542,966;5,73
543,213;5,74
543,461;5,77
543,709;5,78
543,957;5,8
544,205;5,81
544,452;5,82
544,7;5,86
544,948;5,9
545,196;5,92
545,443;5,94
545,691;5,97
545,939;6
546,186;6,01
546,434;6,05
546,681;6,06
546,929;6,06
547,176;6,06
547,424;6,07
547,671;6,06
547,919;6,1
548,166;6,13
548,414;6,16
548,661;6,19
548,909;6,19
549,156;6,21
549,404;6,24
549,651;6,28
549,898;6,3
550,146;6,33
550,393;6,37
550,64;6,41
550,888;6,42
551,135;6,46
551,382;6,51
551,629;6,52
551,876;6,57
552,124;6,63
552,371;6,7
552,618;6,73
552,865;6,8
553,112;6,81
553,359;6,84
553,606;6,87
553,854;6,9
554,101;6,93
554,348;6,98
554,595;7,04
554,842;7,07
555,089;7,09
555,336;7,12
555,582;7,15
555,829;7,18
556,076;7,21
556,323;7,24
556,57;7,27
556,817;7,33
557,064;7,34
557,311;7,37
557,557;7,38
557,804;7,43
558,051;7,45
558,298;7,53
558,544;7,56
558,791;7,61
559,038;7,62
559,284;7,67
559,531;7,72
559,778;7,73
560,024;7,78
560,271;7,84
560,517;7,87
560,764;7,9
561,011;7,94
561,257;8
561,504;8,04
561,75;8,08
561,997;8,11
562,243;8,16
562,489;8,19
562,736;8,23
562,982;8,28
563,229;8,34
563,475;8,37
563,721;8,44
563,968;8,5
564,214;8,56
564,46;8,61
564,707;8,68
564,953;8,74
565,199;8,82
565,445;8,88
565,691;8,93
565,938;9,02
566,184;9,08
566,43;9,14
566,676;9,23
566,922;9,32
567,168;9,41
567,414;9,51
567,66;9,58
567,906;9,68
568,152;9,76
568,398;9,85
568,644;9,95
568,89;10
569,136;10,09
569,382;10,18
569,628;10,27
569,874;10,33
570,12;10,41
570,366;10,48
570,612;10,57
570,857;10,65
571,103;10,72
571,349;10,81
571,595;10,89
571,84;10,98
572,086;11,06
572,332;11,15
572,578;11,21
572,823;11,31
573,069;11,39
573,315;11,45
573,56;11,52
573,806;11,59
574,051;11,69
574,297;11,76
574,542;11,85
574,788;11,93
575,034;12,02
575,279;12,12
575,524;12,21
575,77;12,29
576,015;12,38
576,261;12,47
576,506;12,57
576,752;12,64
576,997;12,72
577,242;12,8
577,488;12,87
577,733;12,96
577,978;13,04
578,223;13,12
578,469;13,23
578,714;13,33
578,959;13,43
579,204;13,53
579,45;13,62
579,695;13,7
579,94;13,81
580,185;13,88
580,43;13,96
580,675;14,04
580,92;14,11
581,165;14,19
581,41;14,28
581,655;14,34
581,9;14,43
582,145;14,51
582,39;14,6
582,635;14,7
582,88;14,79
583,125;14,89
583,37;15
583,615;15,07
583,86;15,18
584,105;15,26
584,349;15,34
584,594;15,41
584,839;15,51
585,084;15,59
585,328;15,68
585,573;15,79
585,818;15,87
586,063;15,96
586,307;16,05
586,552;16,1
586,797;16,19
587,041;16,26
587,286;16,33
587,53;16,41
587,775;16,49
588,019;16,56
588,264;16,64
588,508;16,72
588,753;16,82
588,997;16,88
589,242;16,98
589,486;17,08
589,731;17,19
589,975;17,27
590,22;17,39
590,464;17,51
590,708;17,61
590,953;17,71
591,197;17,81
591,441;17,92
591,685;18,05
591,93;18,14
592,174;18,26
592,418;18,39
592,662;18,48
592,907;18,57
593,151;18,68
593,395;18,76
593,639;18,85
593,883;18,92
594,127;19
594,371;19,09
594,615;19,18
594,859;19,26
595,103;19,37
595,347;19,45
595,591;19,54
595,835;19,6
596,079;19,72
596,323;19,84
596,567;19,95
596,811;20,04
597,055;20,17
597,299;20,26
597,542;20,35
597,786;20,44
598,03;20,54
598,274;20,63
598,518;20,76
598,761;20,85
599,005;20,95
599,249;21,06
599,492;21,17
599,736;21,27
599,98;21,37
600,223;21,47
600,467;21,57
600,711;21,67
600,954;21,78
601,198;21,85
601,441;21,94
601,685;22,01
601,928;22,11
602,172;22,19
602,415;22,27
602,659;22,35
602,902;22,46
603,145;22,55
603,389;22,64
603,632;22,71
603,876;22,82
604,119;22,91
604,362;23,01
604,606;23,08
604,849;23,18
605,092;23,26
605,335;23,35
605,579;23,41
605,822;23,49
606,065;23,57
606,308;23,67
606,551;23,77
606,794;23,86
607,037;23,94
607,281;24,02
607,524;24,13
607,767;24,24
608,01;24,32
608,253;24,39
608,496;24,47
608,739;24,58
608,982;24,67
609,225;24,74
609,468;24,82
609,711;24,9
609,953;24,97
610,196;25,08
610,439;25,15
610,682;25,26
610,925;25,35
611,168;25,44
611,41;25,51
611,653;25,55
611,896;25,64
612,139;25,72
612,381;25,8
612,624;25,85
612,867;25,92
613,109;25,98
613,352;26,08
613,595;26,18
613,837;26,24
614,08;26,31
614,322;26,4
614,565;26,5
614,807;26,59
615,05;26,64
615,292;26,71
615,535;26,78
615,777;26,84
616,02;26,92
616,262;27,01
616,505;27,11
616,747;27,18
616,989;27,27
617,232;27,36
617,474;27,47
617,716;27,55
617,959;27,62
618,201;27,72
618,443;27,79
618,685;27,86
618,927;27,93
619,17;28
619,412;28,1
619,654;28,16
619,896;28,26
620,138;28,36
620,38;28,42
620,622;28,51
620,864;28,58
621,107;28,66
621,349;28,74
621,591;28,81
621,833;28,91
622,075;28,97
622,316;29,04
622,558;29,11
622,8;29,19
623,042;29,29
623,284;29,38
623,526;29,45
623,768;29,51
624,01;29,61
624,251;29,69
624,493;29,74
624,735;29,79
624,977;29,86
625,218;29,92
625,46;30,01
625,702;30,07
625,943;30,14
626,185;30,23
626,427;30,28
626,668;30,36
626,91;30,39
627,152;30,45
627,393;30,5
627,635;30,52
627,876;30,57
628,118;30,63
628,359;30,69
628,601;30,75
628,842;30,82
629,084;30,87
629,325;30,9
629,566;30,99
629,808;31,07
630,049;31,09
630,29;31,14
630,532;31,19
630,773;31,28
631,014;31,33
631,256;31,37
631,497;31,43
631,738;31,46
631,979;31,54
632,22;31,59
632,462;31,66
632,703;31,74
632,944;31,82
633,185;31,87
633,426;31,94
633,667;32,02
633,908;32,07
634,149;32,11
634,39;32,21
634,631;32,23
634,872;32,3
635,113;32,37
635,354;32,43
635,595;32,48
635,836;32,52
636,077;32,59
636,318;32,65
636,559;32,68
636,8;32,79
637,04;32,82
637,281;32,87
637,522;32,93
637,763;33
638,003;33,03
638,244;33,08
638,485;33,09
638,726;33,13
638,966;33,19
639,207;33,27
639,448;33,31
639,688;33,38
639,929;33,42
640,169;33,48
640,41;33,54
640,65;33,6
640,891;33,66
641,131;33,72
641,372;33,78
641,612;33,84
641,853;33,89
642,093;33,95
642,334;34,01
642,574;34,09
642,814;34,14
643,055;34,2
643,295;34,26
643,535;34,37
643,776;34,4
644,016;34,47
644,256;34,49
644,496;34,55
644,737;34,61
644,977;34,66
645,217;34,73
645,457;34,8
645,697;34,85
645,938;34,9
646,178;34,97
646,418;35,02
646,658;35,08
646,898;35,11
647,138;35,16
647,378;35,23
647,618;35,27
647,858;35,31
648,098;35,36
648,338;35,44
648,578;35,48
648,818;35,53
649,057;35,55
649,297;35,65
649,537;35,71
649,777;35,76
650,017;35,79
650,257;35,83
650,496;35,87
650,736;35,94
650,976;36
651,216;36,04
651,455;36,1
651,695;36,15
651,935;36,23
652,174;36,32
652,414;36,45
652,653;36,58
652,893;36,67
653,133;36,72
653,372;36,76
653,612;36,8
653,851;36,83
654,091;36,88
654,33;36,91
654,57;36,93
654,809;36,93
655,048;36,94
655,288;36,95
655,527;36,95
655,767;36,95
656,006;36,95
656,245;36,96
656,485;36,97
656,724;36,98
656,963;36,99
657,202;37
657,442;36,99
657,681;36,99
657,92;37,01
658,159;37,05
658,398;37,08
658,637;37,12
658,877;37,18
659,116;37,23
659,355;37,3
659,594;37,37
659,833;37,46
660,072;37,57
660,311;37,7
660,55;37,82
660,789;37,92
661,028;38,04
661,267;38,13
661,506;38,22
661,744;38,3
661,983;38,37
662,222;38,43
662,461;38,48
662,7;38,52
662,939;38,58
663,177;38,63
663,416;38,72
663,655;38,75
663,894;38,79
664,132;38,86
664,371;38,87
664,61;38,92
664,848;38,99
665,087;39,05
665,326;39,11
665,564;39,17
665,803;39,25
666,041;39,33
666,28;39,42
666,518;39,49
666,757;39,56
666,995;39,59
667,234;39,65
667,472;39,73
667,711;39,78
667,949;39,89
668,187;39,96
668,426;39,99
668,664;40,06
668,902;40,12
669,141;40,12
669,379;40,17
669,617;40,26
669,856;40,27
670,094;40,34
670,332;40,35
670,57;40,4
670,808;40,44
671,046;40,46
671,285;40,5
671,523;40,54
671,761;40,62
671,999;40,66
672,237;40,76
672,475;40,83
672,713;40,88
672,951;40,92
673,189;40,97
673,427;41,02
673,665;41,09
673,903;41,14
674,141;41,24
674,379;41,33
674,617;41,37
674,854;41,47
675,092;41,53
675,33;41,63
675,568;41,68
675,806;41,77
676,043;41,84
676,281;41,9
676,519;41,96
676,756;42,01
676,994;42,08
677,232;42,13
677,469;42,14
677,707;42,21
677,945;42,25
678,182;42,32
678,42;42,39
678,657;42,44
678,895;42,5
679,132;42,54
679,37;42,55
679,607;42,6
679,845;42,62
680,082;42,69
680,32;42,72
680,557;42,77
680,794;42,81
681,032;42,86
681,269;42,9
681,507;42,97
681,744;43,02
681,981;43,14
682,218;43,15
682,456;43,19
682,693;43,26
682,93;43,29
683,167;43,35
683,404;43,39
683,642;43,44
683,879;43,5
684,116;43,57
684,353;43,64
684,59;43,69
684,827;43,78
685,064;43,83
685,301;43,89
685,538;43,95
685,775;43,96
686,012;44,04
686,249;44,12
686,486;44,16
686,723;44,21
686,96;44,24
687,197;44,33
687,433;44,4
687,67;44,49
687,907;44,57
688,144;44,64
688,381;44,7
688,617;44,76
688,854;44,83
689,091;44,87
689,327;44,94
689,564;44,97
689,801;45,02
690,037;45,07
690,274;45,14
690,511;45,18
690,747;45,29
690,984;45,32
691,22;45,38
691,457;45,44
691,693;45,49
691,93;45,55
692,166;45,61
692,403;45,71
692,639;45,71
692,876;45,72
693,112;45,76
693,348;45,79
693,585;45,84
693,821;45,9
694,057;45,95
694,294;45,98
694,53;46,07
694,766;46,11
695,002;46,13
695,239;46,2
695,475;46,26
695,711;46,3
695,947;46,35
696,183;46,38
696,419;46,44
696,656;46,49
696,892;46,49
697,128;46,52
697,364;46,53
697,6;46,59
697,836;46,66
698,072;46,72
698,308;46,82
698,544;46,89
698,78;46,93
699,016;46,96
699,251;47,04
699,487;47,07
699,723;47,17
699,959;47,27
700,195;47,29
700,431;47,36
700,666;47,42
700,902;47,48
701,138;47,53
701,374;47,6
701,609;47,64
701,845;47,72
702,081;47,81
702,316;47,84
702,552;47,91
702,788;47,96
703,023;48,01
703,259;48,01
703,494;48,05
703,73;48,12
703,965;48,21
704,201;48,25
704,436;48,3
704,672;48,32
704,907;48,35
705,143;48,41
705,378;48,48
705,613;48,54
705,849;48,62
706,084;48,66
706,319;48,67
706,555;48,7
706,79;48,73
707,025;48,76
707,26;48,85
707,496;48,9
707,731;48,97
707,966;49,02
708,201;49,1
708,436;49,13
708,671;49,15
708,907;49,2
709,142;49,26
709,377;49,32
709,612;49,38
709,847;49,43
710,082;49,49
710,317;49,54
710,552;49,58
710,787;49,61
711,022;49,68
711,257;49,73
711,492;49,82
711,726;49,87
711,961;49,94
712,196;49,99
712,431;50,02
712,666;50,06
712,901;50,14
713,135;50,17
713,37;50,25
713,605;50,34
713,839;50,37
714,074;50,39
714,309;50,43
714,543;50,48
714,778;50,54
715,013;50,58
715,247;50,58
715,482;50,63
715,716;50,69
715,951;50,74
716,185;50,81
716,42;50,83
716,654;50,86
716,889;50,88
717,123;50,91
717,358;50,95
717,592;50,97
717,827;50,98
718,061;51,06
718,295;51,04
718,53;51,04
718,764;51,07
718,998;51,14
719,232;51,16
719,467;51,17
719,701;51,2
719,935;51,21
720,169;51,25
720,403;51,29
720,638;51,36
720,872;51,35
721,106;51,38
721,34;51,41
721,574;51,44
721,808;51,43
722,042;51,48
722,276;51,52
722,51;51,56
722,744;51,63
722,978;51,64
723,212;51,71
723,446;51,73
723,68;51,8
723,914;51,81
724,147;51,9
724,381;51,91
724,615;51,93
724,849;51,98
725,083;52,05
725,316;52,08
725,55;52,07
725,784;52,13
726,018;52,16
726,251;52,21
726,485;52,28
726,719;52,38
726,952;52,4
727,186;52,46
727,419;52,49
727,653;52,48
727,887;52,55
728,12;52,6
728,354;52,61
728,587;52,63
728,821;52,68
729,054;52,68
729,287;52,77
729,521;52,8
729,754;52,84
729,988;52,85
730,221;52,91
730,454;52,97
730,688;52,97
730,921;52,99
731,154;53,03
731,387;53,03
731,621;53,05
731,854;53,04
732,087;53,06
732,32;53,08
732,553;53,11
732,787;53,11
733,02;53,13
733,253;53,14
733,486;53,14
733,719;53,17
733,952;53,19
734,185;53,14
734,418;53,16
734,651;53,18
734,884;53,19
735,117;53,18
735,35;53,14
735,583;53,16
735,816;53,22
736,049;53,23
736,281;53,29
736,514;53,26
736,747;53,32
736,98;53,31
737,213;53,34
737,445;53,35
737,678;53,37
737,911;53,36
738,144;53,39
738,376;53,44
738,609;53,44
738,842;53,42
739,074;53,49
739,307;53,52
739,539;53,51
739,772;53,52
740,004;53,54
740,237;53,58
740,469;53,56
740,702;53,56
740,934;53,58
741,167;53,54
741,399;53,57
741,632;53,57
741,864;53,59
742,096;53,59
742,329;53,61
742,561;53,59
742,793;53,61
743,026;53,63
743,258;53,63
743,49;53,61
743,723;53,65
743,955;53,63
744,187;53,6
744,419;53,64
744,651;53,64
744,883;53,62
745,115;53,61
745,348;53,63
745,58;53,64
745,812;53,61
746,044;53,63
746,276;53,61
746,508;53,67
746,74;53,66
746,972;53,67
747,204;53,7
747,436;53,71
747,667;53,73
747,899;53,74
748,131;53,74
748,363;53,76
748,595;53,77
748,827;53,81
749,058;53,82
749,29;53,79
749,522;53,75
749,754;53,76
749,985;53,75
750,217;53,73
750,449;53,68
750,68;53,7
750,912;53,7
751,144;53,74
751,375;53,68
751,607;53,69
751,838;53,69
752,07;53,63
752,301;53,62
752,533;53,6
752,764;53,61
752,996;53,57
753,227;53,52
753,459;53,5
753,69;53,46
753,921;53,46
754,153;53,48
754,384;53,54
754,615;53,54
754,847;53,55
755,078;53,64
755,309;53,69
755,54;53,66
755,772;53,65
756,003;53,63
756,234;53,61
756,465;53,59
756,696;53,59
756,927;53,61
757,159;53,58
757,39;53,56
757,621;53,58
757,852;53,54
758,083;53,56
758,314;53,54
758,545;53,57
758,776;53,54
759,007;53,52
759,238;53,47
759,469;53,43
759,699;53,42
759,93;53,32
760,161;53,27
760,392;53,26
760,623;53,24
760,854;53,21
761,084;53,21
761,315;53,17
761,546;53,14
761,776;53,09
762,007;53,1
762,238;53,09
762,468;53,04
762,699;53,09
762,93;53,07
763,16;53,02
763,391;52,93
763,621;52,92
763,852;52,93
764,083;52,89
764,313;52,86
764,543;52,81
764,774;52,79
765,004;52,75
765,235;52,7
765,465;52,67
765,696;52,65
765,926;52,61
766,156;52,57
766,387;52,56
766,617;52,59
766,847;52,56
767,077;52,53
767,308;52,47
767,538;52,45
767,768;52,42
767,998;52,41
768,228;52,41
768,459;52,37
768,689;52,33
768,919;52,34
769,149;52,33
769,379;52,32
769,609;52,32
769,839;52,33
770,069;52,35
770,299;52,31
770,529;52,27
770,759;52,25
770,989;52,25
771,219;52,25
771,449;52,17
771,678;52,16
771,908;52,1
772,138;52,1
772,368;52,04
772,598;51,99
772,827;52
773,057;51,96
773,287;52,01
773,517;51,96
773,746;51,9
773,976;51,9
774,206;51,88
774,435;51,85
774,665;51,85
774,894;51,77
775,124;51,75
775,354;51,71
775,583;51,69
775,813;51,67
776,042;51,59
776,272;51,54
776,501;51,51
776,73;51,54
776,96;51,55
777,189;51,57
777,419;51,59
777,648;51,53
777,877;51,51
778,107;51,43
778,336;51,45
778,565;51,45
778,794;51,4
779,024;51,42
779,253;51,38
779,482;51,3
779,711;51,28
779,94;51,27
780,17;51,28
780,399;51,24
780,628;51,22
780,857;51,22
781,086;51,23
781,315;51,21
781,544;51,14
781,773;51,1
782,002;51,05
782,231;50,99
782,46;51
782,689;50,97
782,918;50,95
783,147;50,89
783,375;50,85
783,604;50,86
783,833;50,79
784,062;50,78
784,291;50,76
784,519;50,75
784,748;50,7
784,977;50,64
785,206;50,59
785,434;50,54
785,663;50,5
785,892;50,46
786,12;50,43
786,349;50,43
786,577;50,36
786,806;50,31
787,034;50,27
787,263;50,22
787,492;50,17
787,72;50,18
787,948;50,09
788,177;50,07
788,405;50,01
788,634;50,02
788,862;49,99
789,09;49,95
789,319;49,89
789,547;49,83
789,775;49,82
790,004;49,84
790,232;49,87
790,46;49,83
790,688;49,77
790,917;49,71
791,145;49,64
791,373;49,63
791,601;49,62
791,829;49,59
792,057;49,57
792,286;49,52
792,514;49,47
792,742;49,5
792,97;49,46
793,198;49,39
793,426;49,29
793,654;49,26
793,882;49,24
794,109;49,23
794,337;49,24
794,565;49,2
794,793;49,13
795,021;49,07
795,249;49,03
795,477;49
795,704;48,95
795,932;48,87
796,16;48,86
796,388;48,79
796,615;48,78
796,843;48,73
797,071;48,75
797,298;48,68
797,526;48,65
797,754;48,62
797,981;48,57
798,209;48,6
798,436;48,53
798,664;48,5
798,891;48,43
799,119;48,34
799,346;48,25
799,574;48,23
799,801;48,2
800,029;48,15
800,256;48,17
800,483;48,18
800,711;48,16
800,938;48,11
801,165;48,1
801,393;47,98
801,62;47,98
801,847;47,96
802,074;47,96
802,302;47,88
802,529;47,79
802,756;47,79
802,983;47,75
803,21;47,72
803,437;47,69
803,665;47,71
803,892;47,72
804,119;47,72
804,346;47,68
804,573;47,65
804,8;47,63
805,027;47,51
805,254;47,43
805,481;47,43
805,708;47,39
805,934;47,3
806,161;47,33
806,388;47,29
806,615;47,19
806,842;47,16
807,069;47,13
807,295;47,14
807,522;47,1
807,749;47,05
807,976;47,02
808,202;47
808,429;46,95
808,656;46,92
808,882;46,94
809,109;46,91
809,335;46,87
809,562;46,85
809,789;46,88
810,015;46,92
810,242;46,88
810,468;46,86
810,695;46,82
810,921;46,76
811,147;46,69
811,374;46,68
811,6;46,65
811,827;46,68
812,053;46,62
812,279;46,57
812,506;46,49
812,732;46,49
812,958;46,41
813,185;46,39
813,411;46,32
813,637;46,26
813,863;46,19
814,089;46,19
814,315;46,18
814,542;46,15
814,768;46,06
814,994;46,06
815,22;46,02
815,446;46,05
815,672;46,05
815,898;46,02
816,124;45,95
816,35;45,9
816,576;45,83
816,802;45,86
817,028;45,82
817,254;45,86
817,48;45,77
817,705;45,76
817,931;45,76
818,157;45,76
818,383;45,68
818,609;45,63
818,834;45,57
819,06;45,46
819,286;45,4
819,512;45,41
819,737;45,34
819,963;45,28
820,189;45,16
820,414;45,16
820,64;45,11
820,865;45,14
821,091;45,07
821,316;45,02
821,542;44,93
821,767;44,92
821,993;44,87
822,218;44,86
822,444;44,81
822,669;44,7
822,895;44,71
823,12;44,75
823,345;44,74
823,571;44,64
823,796;44,69
824,021;44,64
824,247;44,61
824,472;44,58
824,697;44,54
824,922;44,62
825,147;44,56
825,373;44,6
825,598;44,54
825,823;44,55
826,048;44,53
826,273;44,52
826,498;44,58
826,723;44,55
826,948;44,54
827,173;44,55
827,398;44,58
827,623;44,55
827,848;44,54
828,073;44,52
828,298;44,51
828,523;44,46
828,748;44,44
828,973;44,34
829,197;44,32
829,422;44,36
829,647;44,28
829,872;44,25
830,097;44,24
830,321;44,29
830,546;44,25
830,771;44,17
830,995;44,17
831,22;44,11
831,445;44,03
831,669;44,01
831,894;43,93
832,118;43,86
832,343;43,81
832,567;43,73
832,792;43,69
833,016;43,71
833,241;43,66
833,465;43,65
833,69;43,63
833,914;43,61
834,139;43,54
834,363;43,47
834,587;43,45
834,812;43,4
835,036;43,31
835,26;43,32
835,485;43,33
835,709;43,29
835,933;43,21
836,157;43,17
836,381;43,19
836,606;43,18
836,83;43,2
837,054;43,18
837,278;43,07
837,502;43,07
837,726;43,05
837,95;43,04
838,174;43,04
838,398;43,05
838,622;43,08
838,846;43,02
839,07;43,03
839,294;42,95
839,518;42,93
839,742;42,88
839,966;42,86
840,189;42,81
840,413;42,77
840,637;42,74
840,861;42,78
841,085;42,69
841,308;42,7
841,532;42,65
841,756;42,67
841,979;42,74
842,203;42,76
842,427;42,77
842,65;42,71
842,874;42,67
843,098;42,63
843,321;42,57
843,545;42,61
843,768;42,62
843,992;42,6
844,215;42,61
844,439;42,63
844,662;42,54
844,886;42,52
845,109;42,51
845,332;42,51
845,556;42,44
845,779;42,42
846,002;42,39
846,226;42,36
846,449;42,31
846,672;42,27
846,895;42,22
847,119;42,12
847,342;42,14
847,565;42,1
847,788;42,14
848,011;42,11
848,234;42,13
848,457;42,13
848,681;42,11
848,904;41,98
849,127;41,96
849,35;42,08
849,573;42,1
849,796;42,08
850,019;42,05
850,241;42,12
850,464;42,12
850,687;42,19
850,91;42,17
851,133;42,14
851,356;42,21
851,579;42,27
851,801;42,27
852,024;42,26
852,247;42,29
852,47;42,2
852,692;42,17
852,915;42,16
853,138;42,09
853,36;42,11
853,583;42,13
853,806;42,08
854,028;41,94
854,251;41,94
854,473;41,94
854,696;41,96
854,918;41,93
855,141;41,88
855,363;41,78
855,586;41,78
855,808;41,74
856,031;41,7
856,253;41,61
856,475;41,67
856,698;41,61
856,92;41,57
857,142;41,57
857,365;41,57
857,587;41,42
857,809;41,41
858,031;41,45
858,253;41,48
858,476;41,47
858,698;41,43
858,92;41,34
859,142;41,31
859,364;41,28
859,586;41,24
859,808;41,28
860,03;41,28
860,252;41,25
860,474;41,27
860,696;41,26
860,918;41,22
861,14;41,19
861,362;41,25
861,584;41,23
861,806;41,26
862,028;41,21
862,25;41,29
862,471;41,27
862,693;41,23
862,915;41,18
863,137;41,2
863,358;41,29
863,58;41,35
863,802;41,32
864,024;41,33
864,245;41,32
864,467;41,29
864,688;41,26
864,91;41,25
865,132;41,2
865,353;41,17
865,575;41,21
865,796;41,19
866,018;41,11
866,239;41,09
866,461;41,04
866,682;41,11
866,903;41,07
867,125;41,1
867,346;41,04
867,567;41,07
867,789;41,07
868,01;41,09
868,231;41,05
868,453;41,11
868,674;41,14
868,895;41,17
869,116;41,17
869,337;41,25
869,559;41,22
869,78;41,23
870,001;41,18
870,222;41,17
870,443;41,06
870,664;41,09
870,885;41,16
871,106;41,17
871,327;41,14
871,548;41,22
871,769;41,15
871,99;41,24
872,211;41,27
872,432;41,26
872,653;41,18
872,874;41,23
873,094;41,17
873,315;41,1
873,536;41,1
873,757;41,04
873,978;40,99
874,198;40,94
874,419;40,91
874,64;40,95
874,86;40,95
875,081;41,06
875,302;41,03
875,522;40,99
875,743;41,02
875,963;41,06
876,184;41,02
876,404;41
876,625;40,96
876,845;40,96
877,066;40,94
877,286;40,91
877,507;40,86
877,727;40,89
877,947;40,86
878,168;40,79
878,388;40,81
878,609;40,8
878,829;40,94
879,049;40,97
879,269;40,99
879,49;40,98
879,71;40,99
879,93;41,1
880,15;41,07
880,37;41,01
880,59;41,02
880,811;41,12
881,031;41,11
881,251;41,11
881,471;41,12
881,691;41,22
881,911;41,29
882,131;41,35
882,351;41,32
882,571;41,36
882,791;41,47
883,011;41,44
883,23;41,54
883,45;41,52
883,67;41,48
883,89;41,48
884,11;41,41
884,33;41,32
884,549;41,27
884,769;41,33
884,989;41,41
885,209;41,35
885,428;41,29
885,648;41,27
885,868;41,29
886,087;41,19
886,307;41,05
886,526;41
886,746;40,99
886,965;40,96
887,185;41,05
887,404;41,12
887,624;41,21
887,843;41,09
888,063;41,21
888,282;41,24
888,502;41,26
888,721;41,35
888,94;41,39
889,16;41,35
889,379;41,35
889,598;41,27
889,818;41,25
890,037;41,23
890,256;41,28
890,475;41,31
890,694;41,34
890,914;41,45
891,133;41,48
891,352;41,58
891,571;41,61
891,79;41,58
892,009;41,43
892,228;41,44
892,447;41,46
892,666;41,35
892,885;41,36
893,104;41,31
893,323;41,39
893,542;41,45
893,761;41,5
893,98;41,49
894,199;41,63
894,417;41,63
894,636;41,7
894,855;41,79
895,074;41,75
895,293;41,78
895,511;41,77
895,73;41,79
895,949;41,71
896,167;41,76
896,386;41,83
896,605;41,98
896,823;41,88
897,042;42,08
897,26;42,13
897,479;42,17
897,697;42,2
897,916;42,14
898,134;42,15
898,353;42,14
898,571;42,13
898,79;42,05
899,008;42,13
899,227;42,11
899,445;42,17
899,663;42,19
899,882;42,19
900,1;42,35
900,318;42,45
900,536;42,53
900,755;42,64
900,973;42,46
901,191;42,39
901,409;42,58
901,627;42,51
901,846;42,5
902,064;42,53
902,282;42,66
902,5;42,68
902,718;42,61
902,936;42,69
903,154;42,65
903,372;42,69
903,59;42,67
903,808;42,7
904,026;42,67
904,244;42,66
904,462;42,66
904,679;42,52
904,897;42,46
905,115;42,37
905,333;42,27
905,551;42,47
905,768;42,54
905,986;42,43
906,204;42,33
906,422;42,37
906,639;42,31
906,857;42,31
907,074;42,32
907,292;42,39
907,51;42,37
907,727;42,58
907,945;42,63
908,162;42,75
908,38;42,84
908,597;42,85
908,815;43,01
909,032;43,04
909,25;42,92
909,467;42,93
909,684;42,9
909,902;42,92
910,119;42,96
910,337;42,92
910,554;43,04
910,771;43,09
910,988;43,07
911,206;43,12
911,423;43,1
911,64;43,11
911,857;43,07
912,074;43,11
912,291;43,02
912,509;43,03
912,726;43,05
912,943;42,87
913,16;42,82
913,377;42,83
913,594;42,82
913,811;42,93
914,028;43,03
914,245;43,1
914,462;42,99
914,679;42,85
914,896;42,94
915,112;42,86
915,329;42,92
915,546;43
915,763;43,08
915,98;43,15
916,196;43,19
916,413;43,31
916,63;43,33
916,847;43,32
917,063;43,24
917,28;43,08
917,497;43,23
917,713;43,34
917,93;43,4
918,146;43,5
918,363;43,71
918,579;43,68
918,796;43,68
919,012;43,91
919,229;44
919,445;44,13
919,662;44,22
919,878;44,05
920,095;43,98
920,311;43,93
920,527;43,92
920,744;43,92
920,96;43,95
921,176;44,02
921,392;43,9
921,609;44,11
921,825;44,2
922,041;44,3
922,257;44,22
922,473;44,16
922,69;44,13
922,906;43,95
923,122;44
923,338;44,09
923,554;43,99
923,77;44,01
923,986;43,88
924,202;43,93
924,418;44,08
924,634;44,09
924,85;44,14
925,066;44,25
925,282;44,23
925,497;44,26
925,713;44,27
925,929;44,54
926,145;44,47
926,361;44,59
926,576;44,48
926,792;44,44
927,008;44,37
927,224;44,5
927,439;44,65
927,655;44,62
927,871;44,68
928,086;44,85
928,302;44,86
928,517;44,87
928,733;44,95
928,948;45
929,164;45,04
929,379;45,15
929,595;45,11
929,81;45,36
930,026;45,34
930,241;45,35
930,456;45,18
930,672;45,29
930,887;45,28
931,102;45,38
931,318;45,48
931,533;45,48
931,748;45,41
931,964;45,37
932,179;45,41
932,394;45,34
932,609;45,32
932,824;45,38
933,039;45,3
933,255;45,25
933,47;45,16
933,685;45,12
933,9;45,11
934,115;45,16
934,33;45,02
934,545;45,09
934,76;45,07
934,975;45,28
935,19;45,41
935,404;45,42
935,619;45,41
935,834;45,67
936,049;45,86
936,264;45,93
936,479;45,93
936,693;46,08
936,908;46,38
937,123;46,4
937,338;46,55
937,552;46,89
937,767;46,91
937,982;47,4
938,196;47,78
938,411;47,98
938,625;48,17
938,84;48,2
939,055;48,41
939,269;48,53
939,484;48,84
939,698;48,7
939,912;48,98
940,127;49,43
940,341;49,24
940,556;49,13
940,77;49,6
940,984;49,78
941,199;50,16
941,413;50,05
941,627;50,35
941,842;50,57
942,056;50,7
942,27;50,88
942,484;50,97
942,699;51,04
942,913;50,58
943,127;50,28
943,341;50,27
943,555;50,39
943,769;50,89
943,983;50,64
944,197;50,28
944,411;50,48
944,625;50,46
944,839;50,93
945,053;51,7
945,267;51,34
945,481;51,56
945,695;51,87
945,909;52,02
946,123;52,08
946,336;52,03
946,55;52,22
946,764;52,52
946,978;52,21
947,192;52,45
947,405;52,69
947,619;53,12
947,833;53,19
948,046;53,48
948,26;53,31
948,474;53,44
948,687;53,74
948,901;53,46
949,114;53,19
949,328;53,23
949,541;52,52
949,755;52,76
949,968;52,54
950,182;52,41
950,395;52,23
950,609;52,19
950,822;52,48
951,035;51,94
951,249;51,71
951,462;51,96
951,675;51,62
951,889;51,27
952,102;51,45
952,315;51,4
952,528;51,15
952,741;50,97
952,955;50,65
953,168;50,84
953,381;50,9
953,594;50,65
953,807;50,36
954,02;50,54
954,233;50,25
954,446;50,46
954,659;50,64
954,872;50,72
955,085;50,63
955,298;50,3
955,511;50,62
955,724;50,44
955,937;50,64
956,15;50,48
956,362;50,79
956,575;50,6
956,788;50,89
957,001;50,76
957,214;50,56
957,426;50,79
957,639;50,82
957,852;50,55
958,064;50,68
958,277;50,68
958,49;51,13
958,702;51,44
958,915;51,36
959,127;51
959,34;50,78
959,552;50,87
959,765;50,91
959,977;51,17
960,19;51,56
960,402;51,47
960,615;51,67
960,827;51,76
961,039;51,59
961,252;51,44
961,464;51,56
961,676;51,69
961,889;51,7
962,101;51,34
962,313;51,65
962,525;51,78
962,738;51,58
962,95;51,38
963,162;51,26
963,374;51,39
963,586;51,27
963,798;51,67
964,01;51,46
964,222;51,68
964,434;51,73
964,646;51,35
964,858;50,81
965,07;51,08
965,282;51,14
965,494;51,52
965,706;51,59
965,918;51,72
966,13;51,99
966,342;51,77
966,553;52,09
966,765;52,15
966,977;52,17
967,189;52,37
967,401;52,43
967,612;52,38
967,824;52,47
968,036;52,64
968,247;52,38
968,459;52,54
968,67;52,23
968,882;51,91
969,094;52,18
969,305;52,85
969,517;52,46
969,728;52,67
969,94;52,75
970,151;52,62
970,362;52,42
970,574;52,62
970,785;53,03
970,997;53,19
971,208;53,03
971,419;53,27
971,631;53,49
971,842;53,61
972,053;54,08
972,264;54,32
972,476;54,27
972,687;54,08
972,898;54,16
973,109;54,29
973,32;54,47
973,531;54,51
973,742;54,27
973,954;54,57
974,165;54,79
974,376;54,59
974,587;54,66
974,798;54,74
975,009;54,75
975,22;54,71
975,43;54,55
975,641;55,01
975,852;54,99
976,063;55,29
976,274;55,09
976,485;54,92
976,695;54,88
976,906;55,11
977,117;55,97
977,328;56,3
977,538;56,37
977,749;56,49
977,96;56,8
978,17;56,63
978,381;56,41
978,592;56,12
978,802;56,29
979,013;56,77
979,223;57,24
979,434;57,76
979,644;57,87
979,855;58,37
980,065;58,44
980,276;58,23
980,486;58
980,696;57,91
980,907;57,83
981,117;57,29
981,327;57,28
981,538;56,89
981,748;57,03
981,958;57,26
982,169;57,18
982,379;57,05
982,589;57,34
982,799;57,65
983,009;57,82
983,219;57,91
983,43;57,65
983,64;57,53
983,85;57,1
984,06;57,27
984,27;56,6
984,48;56,84
984,69;56,62
984,9;56,82
985,11;57,58
985,32;57,64
985,529;57,84
985,739;57,47
985,949;57,89
986,159;57,5
986,369;57,4
986,579;57,92
986,788;58,22
986,998;58,76
987,208;58,63
987,417;58,49
987,627;58,45
987,837;58,21
988,046;57,7
988,256;57,44
988,466;56,98
988,675;57,26
988,885;56,98
989,094;57,52
989,304;57,5
989,513;56,81
989,723;56,97
989,932;57,38
990,142;57,62
990,351;57,16
990,56;57,33
990,77;57,66
990,979;57,23
991,188;56,91
991,398;56,88
991,607;57,41
991,816;57,9
992,025;57,8
992,235;58,74
992,444;59,75
992,653;60,08
992,862;60,53
993,071;60,87
993,28;61,09
993,489;61,18
993,698;61,3
993,908;61,49
994,117;61,51
994,326;61,44
994,534;61,57
994,743;61,14
994,952;61,54
995,161;60,85
995,37;61,21
995,579;61,65
995,788;61,51
995,997;60,68
996,205;60,58
996,414;60,95
996,623;60,37
996,832;60,05
997,04;60,26
997,249;59,97
997,458;59,32
997,666;59,08
997,875;59,56
998,084;59,38
998,292;59,6
998,501;59,55
998,709;59,29
998,918;59,21
999,126;59,93
999,335;59,89
999,543;60,21
999,752;59,72
999,96;59,38
1000,169;58,83
1000,377;59,51
1000,585;58,67
1000,794;58,29
1001,002;58,74
1001,21;58,66
1001,418;58,61
1001,627;58,62
1001,835;59,06
1002,043;58,92
1002,251;58,04
1002,459;58,11
1002,668;57,29
1002,876;57,7
1003,084;58,33
1003,292;58,49
1003,5;58,07
1003,708;57,91
1003,916;58,01
1004,124;57,98
1004,332;58,79
1004,54;59,01
1004,748;59,59
1004,956;60,84
1005,163;60,35
1005,371;59,37
1005,579;60,06
1005,787;60,08
1005,995;60,81
1006,202;60,86
1006,41;61,37
1006,618;61,18
1006,826;61,43
1007,033;62,39
1007,241;61,99
1007,449;61,68
1007,656;61,43
1007,864;62,15
1008,071;61,95
1008,279;61,93
1008,486;62,64
1008,694;62,77
1008,901;63,63
1009,109;62,48
1009,316;61,54
1009,524;62,25
1009,731;63,65
1009,938;62,73
1010,146;62,48
1010,353;62,7
1010,56;62,52
1010,768;61,93
1010,975;63,29
1011,182;63,03
1011,389;63,05
1011,597;63,22
1011,804;63,65
1012,011;64,15
1012,218;63,63
1012,425;64,4
1012,632;64,77
1012,839;63,95
1013,046;62,89
1013,253;62,85
1013,46;63,99
1013,667;64,69
1013,874;65,06
1014,081;64,7
1014,288;64,86
1014,495;64,71
1014,702;63,49
1014,909;64,07
1015,116;64,79
1015,323;64,71
1015,529;64,67
1015,736;64,92
1015,943;65,66
1016,15;64,53
1016,356;65
1016,563;65,55
1016,77;64,81
1016,976;65,01
1017,183;66,19
1017,389;66,44
1017,596;66,81
1017,803;66,79
1018,009;66,89
1018,216;66,96
1018,422;66,58
1018,629;66,8
1018,835;67,79
1019,041;69,21
1019,248;70,17
1019,454;69,44
1019,661;69,23
1019,867;69,04
1020,073;69,69
1020,279;69,42
1020,486;69,56
1020,692;70,29
1020,898;68,83
1021,104;69,15
1021,311;68,74
1021,517;67,15
1021,723;68,38
1021,929;67,39
1022,135;67,22
1022,341;66,1
1022,547;67,14
1022,753;68,08
1022,959;67,08
1023,165;67,09
1023,371;67,48
1023,577;66,76
1023,783;66,78
1023,989;66,87
1024,195;67,86
1024,401;67,46
1024,607;67,15
1024,812;67,55
1025,018;65,94
1025,224;67,38
1025,43;67,53
1025,635;66,66
1025,841;69,64
1026,047;67,1
1026,252;67,9
1026,458;68,22
1026,664;70,16
1026,869;69,7
1027,075;69,66
1027,28;69,37
1027,486;69,04
1027,691;67,48
1027,897;67,13
1028,102;67,26
1028,308;66,62
1028,513;67,24
1028,719;66,25
1028,924;66,44
1029,129;66,19
1029,335;67,82
1029,54;68,07
1029,745;66,51
1029,95;68,02
1030,156;67,26
1030,361;68,64
1030,566;67,8
1030,771;66,55
1030,976;65,4
1031,182;66,02
1031,387;64,28
1031,592;66,5
1031,797;66,24
1032,002;67,28
1032,207;68,54
1032,412;68,84
1032,617;69,48
1032,822;68,18
1033,027;69,56
1033,232;69,57
1033,437;71,12
1033,642;71,67
1033,846;73,81
1034,051;76,03
1034,256;76,49
1034,461;75,89
1034,666;75,48
1034,87;75,61
1035,075;76,56
1035,28;76,79
1035,484;74,19
1035,689;75,46
1035,894;74,8
1036,098;73,34
1036,303;72,73
1036,507;72,37
1036,712;73,3
1036,917;75,03
1037,121;78,31
1037,325;77,74
1037,53;79,09
1037,734;78,8
1037,939;77,89
1038,143;77,37
1038,348;77,98
1038,552;79,93
1038,756;77,09
1038,961;79,55
1039,165;77,34
1039,369;76,16
1039,573;76,96
1039,778;77,79
1039,982;76,64
1040,186;76,16
1040,39;78,25
1040,594;77,36
1040,798;75,66
1041,002;73,27
1041,206;73,47
1041,41;69,7
1041,614;69,33
1041,818;66,97
1042,022;66,64
1042,226;64,94
1042,43;65,37
1042,634;64,81
1042,838;62,07
1043,042;64,9
1043,246;62,61
1043,45;66,96
1043,653;69,57
1043,857;68,68
1044,061;69,9
1044,265;68,35
1044,468;70,27
1044,672;69,85
1044,876;71,95
1045,079;72,33
1045,283;75,12
1045,487;70,81
1045,69;72,32
1045,894;70,16
1046,097;73
1046,301;74,38
1046,504;76,25
1046,708;74,61
1046,911;74,29
1047,115;74,19
1047,318;75,32
1047,522;79,01
1047,725;73,96
1047,928;71,6
1048,132;72,03
1048,335;72,86
1048,538;73,76
1048,741;71,8
1048,945;71,71
1049,148;72,13
1049,351;72,14
1049,554;73,54
1049,757;76,75
1049,96;74,37
1050,163;81,84
1050,367;81,07
1050,57;80,77
1050,773;80,99
1050,976;78,65
1051,179;82,15
1051,382;80,66
1051,585;81,5
1051,787;79,83
1051,99;84,9
1052,193;89,77
1052,396;89,25
1052,599;83,79
1052,802;87,44
1053,005;85,22
1053,207;87,93
1053,41;85,84
1053,613;86,79
1053,815;85,07
1054,018;82,86
1054,221;88,66
1054,423;85,38
1054,626;83,2
1054,829;82,97
1055,031;82,25
1055,234;85,69
1055,436;82,26
1055,639;85,91
1055,841;80,57
1056,044;79,64
1056,246;75,93
