186,01;-1123,17
186,281;1195,09
186,552;292,1
186,822;3,31
187,093;0
187,364;-303,53
187,635;-135,55
187,905;93,08
188,176;53,78
188,447;47,86
188,717;42,05
188,988;41,76
189,258;41,64
189,529;41,45
189,8;43,73
190,07;42,52
190,341;39,94
190,611;36,94
190,882;35,84
191,152;34,65
191,423;33,99
191,693;33,32
191,964;32,96
192,234;32,77
192,505;30,32
192,775;30,7
193,045;29,09
193,316;28,07
193,586;27,2
193,856;25,96
194,127;25,86
194,397;26,04
194,667;26,18
194,938;25,36
195,208;24,75
195,478;23,34
195,748;22,46
196,019;22,17
196,289;22
196,559;21,63
196,829;21,08
197,099;20,78
197,37;19,72
197,64;18,87
197,91;18,06
198,18;18,02
198,45;16,94
198,72;16,73
198,99;16,37
199,26;16,21
199,53;16
199,8;15,37
200,07;14,67
200,34;13,97
200,61;13,64
200,88;13,57
201,15;13,49
201,42;13,21
201,69;12,63
201,96;12,45
202,23;12,07
202,499;11,52
202,769;11,62
203,039;11,77
203,309;11,84
203,579;11,54
203,849;11,32
204,118;11,04
204,388;10,86
204,658;10,75
204,927;10,49
205,197;10,39
205,467;9,96
205,736;9,9
206,006;9,51
206,276;9,32
206,545;8,9
206,815;8,7
207,085;8,46
207,354;8,33
207,624;8,25
207,893;7,92
208,163;8,1
208,432;7,67
208,702;7,63
208,971;7,43
209,241;7,27
209,51;7,18
209,78;7,08
210,049;6,92
210,318;6,76
210,588;6,63
210,857;6,52
211,127;6,59
211,396;6,47
211,665;6,64
211,935;6,61
212,204;6,65
212,473;6,55
212,742;6,63
213,012;6,55
213,281;6,51
213,55;6,53
213,819;6,22
214,088;6,26
214,358;6,09
214,627;6,14
214,896;6,05
215,165;5,93
215,434;5,92
215,703;5,95
215,972;5,81
216,241;5,73
216,51;5,73
216,779;5,63
217,048;5,54
217,317;5,37
217,586;5,3
217,855;5,2
218,124;5,18
218,393;5,13
218,662;5,06
218,931;4,89
219,2;4,85
219,469;4,86
219,738;4,78
220,006;4,75
220,275;4,63
220,544;4,65
220,813;4,58
221,082;4,52
221,35;4,46
221,619;4,46
221,888;4,42
222,157;4,4
222,425;4,34
222,694;4,27
222,963;4,24
223,231;4,21
223,5;4,16
223,769;4,08
224,037;4,02
224,306;4,02
224,574;4,04
224,843;4
225,111;3,97
225,38;3,98
225,648;3,99
225,917;3,92
226,185;3,92
226,454;3,89
226,722;3,86
226,991;3,81
227,259;3,77
227,528;3,75
227,796;3,69
228,064;3,67
228,333;3,64
228,601;3,59
228,869;3,54
229,138;3,49
229,406;3,46
229,674;3,44
229,942;3,4
230,211;3,36
230,479;3,34
230,747;3,32
231,015;3,29
231,283;3,26
231,552;3,26
231,82;3,21
232,088;3,22
232,356;3,2
232,624;3,18
232,892;3,17
233,16;3,13
233,428;3,12
233,696;3,1
233,964;3,08
234,232;3,08
234,5;3,08
234,768;3,1
235,036;3,11
235,304;3,11
235,572;3,11
235,84;3,12
236,108;3,13
236,376;3,14
236,644;3,16
236,912;3,15
237,179;3,15
237,447;3,19
237,715;3,2
237,983;3,24
238,251;3,28
238,518;3,33
238,786;3,4
239,054;3,45
239,322;3,49
239,589;3,56
239,857;3,63
240,125;3,69
240,392;3,76
240,66;3,83
240,927;3,89
241,195;3,97
241,463;4,04
241,73;4,13
241,998;4,19
242,265;4,24
242,533;4,33
242,8;4,42
243,068;4,49
243,335;4,56
243,603;4,62
243,87;4,69
244,138;4,73
244,405;4,78
244,672;4,83
244,94;4,89
245,207;4,93
245,474;4,98
245,742;5,02
246,009;5,04
246,276;5,06
246,544;5,08
246,811;5,09
247,078;5,11
247,345;5,1
247,613;5,1
247,88;5,11
248,147;5,1
248,414;5,08
248,681;5,07
248,948;5,07
249,215;5,06
249,483;5,04
249,75;5,03
250,017;5,02
250,284;5
250,551;4,99
250,818;4,98
251,085;4,95
251,352;4,93
251,619;4,91
251,886;4,91
252,153;4,9
252,42;4,9
252,687;4,89
252,953;4,89
253,22;4,9
253,487;4,91
253,754;4,92
254,021;4,94
254,288;4,95
254,555;4,96
254,821;4,98
255,088;5
255,355;5,03
255,622;5,06
255,888;5,11
256,155;5,16
256,422;5,2
256,688;5,26
256,955;5,34
257,222;5,41
257,488;5,48
257,755;5,59
258,022;5,69
258,288;5,79
258,555;5,92
258,821;6,06
259,088;6,2
259,354;6,37
259,621;6,56
259,887;6,74
260,154;6,95
260,42;7,16
260,687;7,4
260,953;7,65
261,219;7,92
261,486;8,2
261,752;8,5
262,019;8,82
262,285;9,15
262,551;9,5
262,818;9,87
263,084;10,26
263,35;10,65
263,616;11,07
263,883;11,5
264,149;11,94
264,415;12,38
264,681;12,84
264,947;13,3
265,214;13,75
265,48;14,22
265,746;14,71
266,012;15,2
266,278;15,66
266,544;16,13
266,81;16,62
267,076;17,09
267,342;17,56
267,608;18,02
267,874;18,47
268,14;18,93
268,406;19,38
268,672;19,81
268,938;20,23
269,204;20,63
269,47;21,02
269,736;21,39
270,002;21,76
270,268;22,13
270,533;22,47
270,799;22,82
271,065;23,15
271,331;23,46
271,597;23,77
271,862;24,06
272,128;24,33
272,394;24,6
272,66;24,85
272,925;25,12
273,191;25,36
273,457;25,6
273,722;25,79
273,988;25,98
274,254;26,19
274,519;26,39
274,785;26,6
275,05;26,8
275,316;26,98
275,582;27,17
275,847;27,33
276,113;27,5
276,378;27,68
276,644;27,84
276,909;28
277,174;28,16
277,44;28,33
277,705;28,5
277,971;28,65
278,236;28,79
278,501;28,93
278,767;29,06
279,032;29,2
279,297;29,36
279,563;29,52
279,828;29,67
280,093;29,82
280,358;29,95
280,624;30,09
280,889;30,22
281,154;30,34
281,419;30,49
281,684;30,63
281,95;30,77
282,215;30,92
282,48;31,07
282,745;31,21
283,01;31,34
283,275;31,49
283,54;31,64
283,805;31,79
284,07;31,94
284,335;32,11
284,6;32,27
284,865;32,44
285,13;32,59
285,395;32,75
285,66;32,9
285,925;33,07
286,19;33,25
286,455;33,44
286,72;33,62
286,985;33,8
287,249;33,97
287,514;34,15
287,779;34,35
288,044;34,53
288,309;34,7
288,573;34,88
288,838;35,06
289,103;35,25
289,367;35,45
289,632;35,65
289,897;35,85
290,161;36,05
290,426;36,27
290,691;36,5
290,955;36,72
291,22;36,97
291,484;37,21
291,749;37,45
292,014;37,68
292,278;37,93
292,543;38,17
292,807;38,44
293,072;38,7
293,336;38,95
293,6;39,2
293,865;39,49
294,129;39,75
294,394;40,04
294,658;40,29
294,922;40,57
295,187;40,85
295,451;41,12
295,715;41,41
295,98;41,67
296,244;41,91
296,508;42,17
296,773;42,4
297,037;42,65
297,301;42,89
297,565;43,15
297,829;43,36
298,094;43,62
298,358;43,86
298,622;44,09
298,886;44,34
299,15;44,57
299,414;44,8
299,678;45,03
299,942;45,25
300,206;45,47
300,47;45,67
300,734;45,87
300,998;46,07
301,262;46,26
301,526;46,45
301,79;46,65
302,054;46,83
302,318;47,02
302,582;47,2
302,846;47,39
303,11;47,57
303,374;47,76
303,637;47,93
303,901;48,1
304,165;48,26
304,429;48,43
304,693;48,57
304,956;48,71
305,22;48,86
305,484;48,99
305,747;49,14
306,011;49,3
306,275;49,44
306,538;49,56
306,802;49,7
307,066;49,84
307,329;49,99
307,593;50,12
307,856;50,24
308,12;50,37
308,384;50,48
308,647;50,58
308,911;50,7
309,174;50,8
309,438;50,91
309,701;51,02
309,964;51,11
310,228;51,22
310,491;51,35
310,755;51,45
311,018;51,57
311,281;51,66
311,545;51,74
311,808;51,84
312,071;51,93
312,335;52,01
312,598;52,1
312,861;52,17
313,124;52,25
313,388;52,34
313,651;52,44
313,914;52,49
314,177;52,62
314,44;52,69
314,704;52,78
314,967;52,87
315,23;52,92
315,493;53
315,756;53,06
316,019;53,11
316,282;53,19
316,545;53,25
316,808;53,32
317,071;53,39
317,334;53,46
317,597;53,54
317,86;53,62
318,123;53,65
318,386;53,73
318,649;53,8
318,912;53,85
319,175;53,9
319,437;53,97
319,7;54
319,963;54,04
320,226;54,12
320,489;54,15
320,751;54,22
321,014;54,27
321,277;54,34
321,54;54,42
321,802;54,45
322,065;54,49
322,328;54,55
322,59;54,59
322,853;54,62
323,116;54,65
323,378;54,69
323,641;54,75
323,903;54,79
324,166;54,83
324,428;54,88
324,691;54,92
324,953;54,98
325,216;55,04
325,478;55,11
325,741;55,14
326,003;55,2
326,266;55,23
326,528;55,28
326,791;55,34
327,053;55,35
327,315;55,38
327,578;55,43
327,84;55,45
328,102;55,49
328,365;55,55
328,627;55,6
328,889;55,65
329,151;55,68
329,414;55,71
329,676;55,74
329,938;55,76
330,2;55,83
330,462;55,88
330,725;55,89
330,987;55,91
331,249;55,93
331,511;55,95
331,773;55,99
332,035;56,02
332,297;56,04
332,559;56,08
332,821;56,12
333,083;56,16
333,345;56,23
333,607;56,28
333,869;56,34
334,131;56,38
334,393;56,4
334,655;56,46
334,917;56,51
335,179;56,57
335,44;56,62
335,702;56,64
335,964;56,67
336,226;56,73
336,488;56,76
336,749;56,82
337,011;56,88
337,273;56,93
337,535;56,97
337,796;57
338,058;57,06
338,32;57,09
338,581;57,13
338,843;57,16
339,105;57,19
339,366;57,21
339,628;57,25
339,889;57,3
340,151;57,33
340,412;57,37
340,674;57,39
340,935;57,42
341,197;57,45
341,458;57,47
341,72;57,48
341,981;57,52
342,243;57,55
342,504;57,57
342,766;57,61
343,027;57,65
343,288;57,69
343,55;57,71
343,811;57,76
344,072;57,79
344,334;57,81
344,595;57,85
344,856;57,88
345,117;57,88
345,379;57,9
345,64;57,92
345,901;57,97
346,162;57,99
346,423;58,03
346,684;58,05
346,946;58,08
347,207;58,12
347,468;58,14
347,729;58,13
347,99;58,15
348,251;58,13
348,512;58,13
348,773;58,18
349,034;58,21
349,295;58,23
349,556;58,23
349,817;58,24
350,078;58,27
350,339;58,31
350,6;58,33
350,86;58,35
351,121;58,4
351,382;58,41
351,643;58,43
351,904;58,43
352,165;58,48
352,425;58,5
352,686;58,54
352,947;58,59
353,208;58,64
353,468;58,67
353,729;58,7
353,99;58,75
354,25;58,75
354,511;58,77
354,772;58,8
355,032;58,86
355,293;58,92
355,553;58,92
355,814;58,94
356,074;58,99
356,335;59,03
356,596;59,02
356,856;59,06
357,116;59,12
357,377;59,13
357,637;59,14
357,898;59,18
358,158;59,2
358,419;59,22
358,679;59,23
358,939;59,26
359,2;59,3
359,46;59,34
359,72;59,37
359,981;59,39
360,241;59,4
360,501;59,42
360,761;59,43
361,022;59,47
361,282;59,52
361,542;59,55
361,802;59,56
362,062;59,61
362,323;59,64
362,583;59,66
362,843;59,69
363,103;59,74
363,363;59,73
363,623;59,76
363,883;59,77
364,143;59,82
364,403;59,82
364,663;59,87
364,923;59,87
365,183;59,9
365,443;59,91
365,703;59,92
365,963;59,92
366,223;59,94
366,483;59,94
366,743;59,94
367,002;59,94
367,262;59,97
367,522;59,98
367,782;59,95
368,042;59,97
368,301;60,01
368,561;60
368,821;60,03
369,081;60,04
369,34;60,05
369,6;60,06
369,86;60,09
370,119;60,07
370,379;60,05
370,638;60,05
370,898;60,06
371,158;60,1
371,417;60,09
371,677;60,1
371,936;60,12
372,196;60,15
372,455;60,17
372,715;60,17
372,974;60,18
373,234;60,23
373,493;60,26
373,753;60,27
374,012;60,29
374,271;60,3
374,531;60,32
374,79;60,35
375,049;60,38
375,309;60,39
375,568;60,4
375,827;60,46
376,086;60,5
376,346;60,5
376,605;60,52
376,864;60,55
377,123;60,59
377,383;60,58
377,642;60,58
377,901;60,63
378,16;60,67
378,419;60,67
378,678;60,68
378,937;60,67
379,196;60,67
379,455;60,71
379,714;60,71
379,973;60,7
380,232;60,72
380,491;60,72
380,75;60,73
381,009;60,75
381,268;60,75
381,527;60,74
381,786;60,75
382,045;60,75
382,304;60,8
382,563;60,8
382,821;60,84
383,08;60,85
383,339;60,86
383,598;60,83
383,857;60,84
384,115;60,85
384,374;60,89
384,633;60,89
384,891;60,89
385,15;60,89
385,409;60,92
385,667;60,95
385,926;60,94
386,185;60,96
386,443;60,97
386,702;61,01
386,96;61,03
387,219;61,04
387,477;61,06
387,736;61,05
387,994;61,07
388,253;61,06
388,511;61,1
388,77;61,08
389,028;61,1
389,287;61,13
389,545;61,18
389,803;61,18
390,062;61,21
390,32;61,21
390,578;61,25
390,837;61,26
391,095;61,27
391,353;61,31
391,612;61,32
391,87;61,34
392,128;61,34
392,386;61,36
392,644;61,38
392,903;61,4
393,161;61,4
393,419;61,41
393,677;61,45
393,935;61,45
394,193;61,46
394,451;61,49
394,709;61,49
394,967;61,49
395,225;61,5
395,483;61,5
395,741;61,51
395,999;61,52
396,257;61,54
396,515;61,53
396,773;61,54
397,031;61,56
397,289;61,59
397,547;61,59
397,805;61,64
398,062;61,66
398,32;61,67
398,578;61,7
398,836;61,71
399,094;61,7
399,351;61,71
399,609;61,71
399,867;61,72
400,124;61,72
400,382;61,72
400,64;61,76
400,897;61,79
401,155;61,81
401,413;61,84
401,67;61,83
401,928;61,84
402,185;61,83
402,443;61,85
402,701;61,86
402,958;61,87
403,216;61,84
403,473;61,83
403,73;61,83
403,988;61,83
404,245;61,79
404,503;61,83
404,76;61,84
405,018;61,85
405,275;61,88
405,532;61,89
405,79;61,91
406,047;61,89
406,304;61,88
406,561;61,88
406,819;61,88
407,076;61,92
407,333;61,94
407,59;61,93
407,848;61,92
408,105;61,92
408,362;61,93
408,619;61,94
408,876;61,95
409,133;61,96
409,39;61,99
409,647;62,03
409,904;62,06
410,161;62,06
410,418;62,09
410,675;62,09
410,932;62,1
411,189;62,1
411,446;62,11
411,703;62,17
411,96;62,21
412,217;62,19
412,474;62,2
412,731;62,18
412,988;62,23
413,245;62,25
413,501;62,24
413,758;62,25
414,015;62,25
414,272;62,26
414,529;62,29
414,785;62,28
415,042;62,28
415,299;62,25
415,555;62,24
415,812;62,24
416,069;62,24
416,325;62,23
416,582;62,23
416,838;62,24
417,095;62,19
417,352;62,19
417,608;62,22
417,865;62,21
418,121;62,25
418,378;62,27
418,634;62,28
418,891;62,31
419,147;62,31
419,403;62,32
419,66;62,35
419,916;62,39
420,173;62,41
420,429;62,43
420,685;62,44
420,942;62,5
421,198;62,51
421,454;62,54
421,711;62,55
421,967;62,55
422,223;62,57
422,479;62,61
422,735;62,63
422,992;62,64
423,248;62,64
423,504;62,64
423,76;62,65
424,016;62,67
424,272;62,66
424,528;62,65
424,784;62,68
425,041;62,69
425,297;62,65
425,553;62,67
425,809;62,68
426,065;62,71
426,32;62,71
426,576;62,73
426,832;62,76
427,088;62,82
427,344;62,86
427,6;62,86
427,856;62,86
428,112;62,88
428,368;62,9
428,623;62,91
428,879;62,95
429,135;62,92
429,391;62,91
429,646;62,94
429,902;62,96
430,158;62,96
430,414;62,96
430,669;62,99
430,925;63,01
431,181;63,03
431,436;63,03
431,692;63,04
431,947;63,05
432,203;63,02
432,458;63,01
432,714;63,01
432,97;63,01
433,225;63,04
433,481;63
433,736;63,04
433,991;63,04
434,247;63,01
434,502;63,04
434,758;63,07
435,013;63,06
435,268;63,08
435,524;63,08
435,779;63,11
436,034;63,09
436,29;63,11
436,545;63,11
436,8;63,07
437,056;63,06
437,311;63,08
437,566;63,09
437,821;63,07
438,076;63,1
438,331;63,11
438,587;63,08
438,842;63,12
439,097;63,11
439,352;63,14
439,607;63,19
439,862;63,22
440,117;63,26
440,372;63,3
440,627;63,32
440,882;63,34
441,137;63,37
441,392;63,4
441,647;63,39
441,902;63,4
442,157;63,42
442,412;63,46
442,667;63,46
442,921;63,48
443,176;63,49
443,431;63,5
443,686;63,5
443,941;63,54
444,195;63,55
444,45;63,59
444,705;63,61
444,96;63,61
445,214;63,61
445,469;63,59
445,724;63,62
445,978;63,61
446,233;63,62
446,487;63,61
446,742;63,59
446,997;63,63
447,251;63,64
447,506;63,67
447,76;63,66
448,015;63,67
448,269;63,67
448,524;63,68
448,778;63,69
449,033;63,72
449,287;63,69
449,541;63,67
449,796;63,67
450,05;63,64
450,305;63,65
450,559;63,64
450,813;63,68
451,067;63,65
451,322;63,65
451,576;63,68
451,83;63,66
452,084;63,68
452,339;63,66
452,593;63,65
452,847;63,67
453,101;63,66
453,355;63,65
453,609;63,66
453,864;63,68
454,118;63,67
454,372;63,66
454,626;63,67
454,88;63,69
455,134;63,68
455,388;63,69
455,642;63,67
455,896;63,7
456,15;63,65
456,404;63,68
456,658;63,69
456,912;63,7
457,165;63,73
457,419;63,76
457,673;63,77
457,927;63,77
458,181;63,79
458,435;63,79
458,688;63,82
458,942;63,81
459,196;63,82
459,45;63,82
459,703;63,85
459,957;63,85
460,211;63,88
460,464;63,84
460,718;63,88
460,972;63,89
461,225;63,88
461,479;63,92
461,732;63,94
461,986;63,92
462,239;63,92
462,493;63,94
462,746;63,95
463;63,99
463,253;64
463,507;64,01
463,76;64,05
464,014;64,06
464,267;64,13
464,52;64,16
464,774;64,18
465,027;64,2
465,28;64,24
465,534;64,23
465,787;64,29
466,04;64,3
466,294;64,33
466,547;64,36
466,8;64,39
467,053;64,35
467,306;64,39
467,56;64,4
467,813;64,41
468,066;64,42
468,319;64,39
468,572;64,43
468,825;64,46
469,078;64,45
469,331;64,48
469,584;64,44
469,837;64,45
470,09;64,47
470,343;64,47
470,596;64,47
470,849;64,51
471,102;64,52
471,355;64,53
471,608;64,53
471,861;64,53
472,114;64,55
472,367;64,6
472,619;64,61
472,872;64,64
473,125;64,64
473,378;64,65
473,631;64,67
473,883;64,7
474,136;64,71
474,389;64,72
474,641;64,71
474,894;64,73
475,147;64,74
475,399;64,76
475,652;64,78
475,905;64,8
476,157;64,82
476,41;64,82
476,662;64,84
476,915;64,86
477,167;64,88
477,42;64,86
477,672;64,88
477,925;64,88
478,177;64,89
478,43;64,9
478,682;64,93
478,934;64,98
479,187;64,99
479,439;65,01
479,691;65,04
479,944;65,05
480,196;65,08
480,448;65,07
480,701;65,08
480,953;65,08
481,205;65,1
481,457;65,11
481,709;65,13
481,962;65,14
482,214;65,15
482,466;65,14
482,718;65,16
482,97;65,17
483,222;65,21
483,474;65,25
483,726;65,31
483,978;65,34
484,23;65,35
484,482;65,37
484,734;65,39
484,986;65,38
485,238;65,4
485,49;65,43
485,742;65,45
485,994;65,48
486,246;65,5
486,498;65,5
486,75;65,51
487,001;65,51
487,253;65,53
487,505;65,55
487,757;65,58
488,009;65,6
488,26;65,63
488,512;65,64
488,764;65,64
489,015;65,62
489,267;65,6
489,519;65,59
489,77;65,59
490,022;65,6
490,274;65,62
490,525;65,63
490,777;65,61
491,028;65,62
491,28;65,65
491,531;65,64
491,783;65,64
492,034;65,66
492,286;65,67
492,537;65,66
492,789;65,67
493,04;65,67
493,291;65,68
493,543;65,69
493,794;65,7
494,045;65,73
494,297;65,74
494,548;65,77
494,799;65,78
495,051;65,8
495,302;65,81
495,553;65,84
495,804;65,83
496,056;65,84
496,307;65,84
496,558;65,82
496,809;65,84
497,06;65,87
497,311;65,88
497,562;65,89
497,813;65,9
498,064;65,92
498,316;65,94
498,567;65,95
498,818;65,94
499,069;65,95
499,319;65,94
499,57;65,95
499,821;65,95
500,072;65,95
500,323;65,96
500,574;65,98
500,825;65,96
501,076;65,98
501,327;66
501,577;66,04
501,828;66,05
502,079;66,07
502,33;66,07
502,58;66,07
502,831;66,1
503,082;66,12
503,333;66,12
503,583;66,13
503,834;66,15
504,084;66,15
504,335;66,17
504,586;66,17
504,836;66,19
505,087;66,2
505,337;66,21
505,588;66,19
505,838;66,18
506,089;66,22
506,339;66,23
506,59;66,22
506,84;66,2
507,091;66,22
507,341;66,23
507,591;66,24
507,842;66,24
508,092;66,25
508,343;66,24
508,593;66,25
508,843;66,26
509,093;66,27
509,344;66,29
509,594;66,29
509,844;66,3
510,094;66,3
510,345;66,31
510,595;66,32
510,845;66,35
511,095;66,36
511,345;66,36
511,595;66,36
511,845;66,39
512,095;66,4
512,345;66,41
512,595;66,41
512,845;66,41
513,095;66,43
513,345;66,43
513,595;66,43
513,845;66,42
514,095;66,42
514,345;66,42
514,595;66,43
514,845;66,44
515,095;66,44
515,345;66,45
515,594;66,47
515,844;66,46
516,094;66,46
516,344;66,45
516,593;66,45
516,843;66,45
517,093;66,46
517,343;66,46
517,592;66,47
517,842;66,48
518,092;66,51
518,341;66,53
518,591;66,54
518,84;66,56
519,09;66,59
519,34;66,61
519,589;66,63
519,839;66,63
520,088;66,65
520,338;66,66
520,587;66,66
520,836;66,67
521,086;66,66
521,335;66,68
521,585;66,68
521,834;66,68
522,083;66,69
522,333;66,68
522,582;66,7
522,831;66,7
523,081;66,7
523,33;66,69
523,579;66,68
523,828;66,69
524,078;66,68
524,327;66,67
524,576;66,66
524,825;66,67
525,074;66,68
525,323;66,66
525,573;66,66
525,822;66,68
526,071;66,67
526,32;66,7
526,569;66,69
526,818;66,71
527,067;66,71
527,316;66,71
527,565;66,71
527,814;66,72
528,063;66,73
528,312;66,72
528,56;66,73
528,809;66,73
529,058;66,72
529,307;66,75
529,556;66,76
529,805;66,76
530,053;66,75
530,302;66,76
530,551;66,78
530,8;66,79
531,048;66,77
531,297;66,78
531,546;66,77
531,794;66,77
532,043;66,79
532,292;66,81
532,54;66,83
532,789;66,84
533,037;66,83
533,286;66,83
533,535;66,85
533,783;66,86
534,032;66,88
534,28;66,88
534,528;66,87
534,777;66,87
535,025;66,87
535,274;66,9
535,522;66,88
535,771;66,88
536,019;66,89
536,267;66,91
536,516;66,93
536,764;66,94
537,012;66,93
537,26;66,93
537,509;66,91
537,757;66,92
538,005;66,93
538,253;66,95
538,501;66,95
538,75;66,94
538,998;66,94
539,246;66,93
539,494;66,93
539,742;66,93
539,99;66,96
540,238;66,97
540,486;66,97
540,734;66,99
540,982;66,98
541,23;66,98
541,478;66,98
541,726;66,99
541,974;67
542,222;67,03
542,47;67,04
542,718;67,06
542,966;67,07
543,213;67,07
543,461;67,08
543,709;67,07
543,957;67,05
544,205;67,06
544,452;67,07
544,7;67,08
544,948;67,09
545,196;67,08
545,443;67,08
545,691;67,08
545,939;67,09
546,186;67,09
546,434;67,09
546,681;67,1
546,929;67,09
547,176;67,09
547,424;67,09
547,671;67,09
547,919;67,09
548,166;67,09
548,414;67,1
548,661;67,09
548,909;67,1
549,156;67,14
549,404;67,15
549,651;67,15
549,898;67,16
550,146;67,17
550,393;67,17
550,64;67,2
550,888;67,2
551,135;67,22
551,382;67,23
551,629;67,24
551,876;67,25
552,124;67,26
552,371;67,27
552,618;67,28
552,865;67,28
553,112;67,32
553,359;67,33
553,606;67,33
553,854;67,35
554,101;67,36
554,348;67,36
554,595;67,37
554,842;67,38
555,089;67,41
555,336;67,41
555,582;67,44
555,829;67,44
556,076;67,45
556,323;67,46
556,57;67,49
556,817;67,5
557,064;67,49
557,311;67,5
557,557;67,51
557,804;67,54
558,051;67,56
558,298;67,57
558,544;67,57
558,791;67,58
559,038;67,6
559,284;67,61
559,531;67,63
559,778;67,64
560,024;67,64
560,271;67,64
560,517;67,67
560,764;67,67
561,011;67,69
561,257;67,72
561,504;67,72
561,75;67,71
561,997;67,72
562,243;67,75
562,489;67,77
562,736;67,79
562,982;67,78
563,229;67,8
563,475;67,78
563,721;67,8
563,968;67,81
564,214;67,81
564,46;67,83
564,707;67,81
564,953;67,84
565,199;67,86
565,445;67,89
565,691;67,9
565,938;67,91
566,184;67,92
566,43;67,93
566,676;67,94
566,922;67,97
567,168;67,99
567,414;68,01
567,66;68,02
567,906;68,03
568,152;68,05
568,398;68,07
568,644;68,12
568,89;68,13
569,136;68,16
569,382;68,18
569,628;68,2
569,874;68,24
570,12;68,25
570,366;68,27
570,612;68,29
570,857;68,31
571,103;68,33
571,349;68,35
571,595;68,37
571,84;68,39
572,086;68,4
572,332;68,43
572,578;68,44
572,823;68,47
573,069;68,49
573,315;68,51
573,56;68,52
573,806;68,53
574,051;68,56
574,297;68,57
574,542;68,61
574,788;68,63
575,034;68,64
575,279;68,67
575,524;68,68
575,77;68,7
576,015;68,74
576,261;68,77
576,506;68,79
576,752;68,81
576,997;68,84
577,242;68,86
577,488;68,88
577,733;68,89
577,978;68,9
578,223;68,91
578,469;68,94
578,714;68,99
578,959;69,01
579,204;69,04
579,45;69,07
579,695;69,1
579,94;69,12
580,185;69,15
580,43;69,18
580,675;69,2
580,92;69,22
581,165;69,21
581,41;69,22
581,655;69,24
581,9;69,26
582,145;69,27
582,39;69,29
582,635;69,31
582,88;69,34
583,125;69,36
583,37;69,39
583,615;69,4
583,86;69,4
584,105;69,42
584,349;69,41
584,594;69,41
584,839;69,41
585,084;69,43
585,328;69,44
585,573;69,44
585,818;69,46
586,063;69,47
586,307;69,5
586,552;69,52
586,797;69,54
587,041;69,55
587,286;69,56
587,53;69,57
587,775;69,57
588,019;69,59
588,264;69,61
588,508;69,62
588,753;69,63
588,997;69,65
589,242;69,66
589,486;69,68
589,731;69,7
589,975;69,71
590,22;69,71
590,464;69,73
590,708;69,75
590,953;69,76
591,197;69,79
591,441;69,8
591,685;69,82
591,93;69,83
592,174;69,84
592,418;69,85
592,662;69,86
592,907;69,89
593,151;69,9
593,395;69,91
593,639;69,93
593,883;69,95
594,127;69,95
594,371;69,95
594,615;69,97
594,859;69,98
595,103;70
595,347;70,01
595,591;70,02
595,835;70,02
596,079;70,02
596,323;70,04
596,567;70,04
596,811;70,06
597,055;70,06
597,299;70,08
597,542;70,09
597,786;70,11
598,03;70,11
598,274;70,12
598,518;70,13
598,761;70,13
599,005;70,15
599,249;70,17
599,492;70,18
599,736;70,2
599,98;70,22
600,223;70,24
600,467;70,27
600,711;70,29
600,954;70,31
601,198;70,34
601,441;70,33
601,685;70,34
601,928;70,34
602,172;70,37
602,415;70,37
602,659;70,4
602,902;70,41
603,145;70,42
603,389;70,43
603,632;70,44
603,876;70,46
604,119;70,47
604,362;70,48
604,606;70,49
604,849;70,5
605,092;70,51
605,335;70,51
605,579;70,51
605,822;70,51
606,065;70,51
606,308;70,53
606,551;70,56
606,794;70,57
607,037;70,59
607,281;70,6
607,524;70,6
607,767;70,62
608,01;70,62
608,253;70,64
608,496;70,66
608,739;70,67
608,982;70,68
609,225;70,69
609,468;70,7
609,711;70,72
609,953;70,73
610,196;70,74
610,439;70,76
610,682;70,78
610,925;70,81
611,168;70,83
611,41;70,83
611,653;70,84
611,896;70,86
612,139;70,85
612,381;70,85
612,624;70,87
612,867;70,86
613,109;70,87
613,352;70,89
613,595;70,89
613,837;70,89
614,08;70,88
614,322;70,88
614,565;70,89
614,807;70,9
615,05;70,91
615,292;70,93
615,535;70,93
615,777;70,94
616,02;70,94
616,262;70,94
616,505;70,96
616,747;70,96
616,989;70,98
617,232;70,99
617,474;71,01
617,716;71,05
617,959;71,07
618,201;71,1
618,443;71,11
618,685;71,12
618,927;71,16
619,17;71,17
619,412;71,18
619,654;71,21
619,896;71,21
620,138;71,23
620,38;71,22
620,622;71,24
620,864;71,27
621,107;71,27
621,349;71,29
621,591;71,3
621,833;71,32
622,075;71,33
622,316;71,33
622,558;71,35
622,8;71,36
623,042;71,37
623,284;71,38
623,526;71,4
623,768;71,41
624,01;71,42
624,251;71,44
624,493;71,45
624,735;71,46
624,977;71,49
625,218;71,48
625,46;71,51
625,702;71,52
625,943;71,53
626,185;71,53
626,427;71,56
626,668;71,55
626,91;71,56
627,152;71,58
627,393;71,6
627,635;71,59
627,876;71,59
628,118;71,6
628,359;71,61
628,601;71,6
628,842;71,61
629,084;71,6
629,325;71,61
629,566;71,64
629,808;71,65
630,049;71,64
630,29;71,65
630,532;71,66
630,773;71,65
631,014;71,66
631,256;71,66
631,497;71,64
631,738;71,66
631,979;71,67
632,22;71,67
632,462;71,67
632,703;71,67
632,944;71,68
633,185;71,69
633,426;71,69
633,667;71,7
633,908;71,7
634,149;71,7
634,39;71,71
634,631;71,7
634,872;71,69
635,113;71,71
635,354;71,72
635,595;71,72
635,836;71,73
636,077;71,71
636,318;71,73
636,559;71,75
636,8;71,75
637,04;71,75
637,281;71,75
637,522;71,76
637,763;71,77
638,003;71,77
638,244;71,77
638,485;71,78
638,726;71,8
638,966;71,81
639,207;71,82
639,448;71,82
639,688;71,84
639,929;71,85
640,169;71,85
640,41;71,85
640,65;71,86
640,891;71,87
641,131;71,9
641,372;71,9
641,612;71,9
641,853;71,89
642,093;71,9
642,334;71,9
642,574;71,91
642,814;71,93
643,055;71,93
643,295;71,94
643,535;71,94
643,776;71,94
644,016;71,96
644,256;71,98
644,496;72
644,737;72,01
644,977;72,01
645,217;72
645,457;72,02
645,697;72,02
645,938;72,01
646,178;72,01
646,418;72,01
646,658;72,03
646,898;72,06
647,138;72,08
647,378;72,07
647,618;72,09
647,858;72,1
648,098;72,12
648,338;72,13
648,578;72,14
648,818;72,16
649,057;72,16
649,297;72,16
649,537;72,16
649,777;72,16
650,017;72,17
650,257;72,19
650,496;72,2
650,736;72,22
650,976;72,22
651,216;72,24
651,455;72,24
651,695;72,24
651,935;72,25
661,267;71,89
661,506;71,91
661,744;71,94
661,983;71,98
662,222;72
662,461;72,03
662,7;72,07
662,939;72,09
663,177;72,12
663,416;72,15
663,655;72,15
663,894;72,18
664,132;72,2
664,371;72,22
664,61;72,23
664,848;72,25
665,087;72,27
665,326;72,3
665,564;72,32
665,803;72,36
666,041;72,37
666,28;72,38
666,518;72,38
666,757;72,41
666,995;72,42
667,234;72,43
667,472;72,44
667,711;72,45
667,949;72,46
668,187;72,49
668,426;72,5
668,664;72,53
668,902;72,53
669,141;72,52
669,379;72,54
669,617;72,56
669,856;72,57
670,094;72,6
670,332;72,61
670,57;72,61
670,808;72,6
671,046;72,63
671,285;72,66
671,523;72,68
671,761;72,67
671,999;72,69
672,237;72,69
672,475;72,71
672,713;72,71
672,951;72,72
673,189;72,72
673,427;72,72
673,665;72,72
673,903;72,75
674,141;72,76
674,379;72,76
674,617;72,76
674,854;72,77
675,092;72,75
675,33;72,76
675,568;72,79
675,806;72,81
676,043;72,79
676,281;72,8
676,519;72,82
676,756;72,84
676,994;72,86
677,232;72,87
677,469;72,88
677,707;72,89
677,945;72,91
678,182;72,92
678,42;72,92
678,657;72,94
678,895;72,95
679,132;72,96
679,37;72,98
679,607;73
679,845;73,03
680,082;73,04
680,32;73,05
680,557;73,05
680,794;73,07
681,032;73,1
681,269;73,1
681,507;73,1
681,744;73,11
681,981;73,11
682,218;73,12
682,456;73,14
682,693;73,14
682,93;73,14
683,167;73,16
683,404;73,16
683,642;73,16
683,879;73,17
684,116;73,2
684,353;73,21
684,59;73,23
684,827;73,23
685,064;73,26
685,301;73,29
685,538;73,29
685,775;73,28
686,012;73,31
686,249;73,3
686,486;73,32
686,723;73,33
686,96;73,35
687,197;73,37
687,433;73,37
687,67;73,37
687,907;73,38
688,144;73,39
688,381;73,41
688,617;73,42
688,854;73,43
689,091;73,44
689,327;73,45
689,564;73,47
689,801;73,48
690,037;73,48
690,274;73,47
690,511;73,48
690,747;73,5
690,984;73,5
691,22;73,52
691,457;73,51
691,693;73,53
691,93;73,53
692,166;73,53
692,403;73,53
692,639;73,55
692,876;73,57
693,112;73,59
693,348;73,62
693,585;73,65
693,821;73,66
694,057;73,69
694,294;73,7
694,53;73,69
694,766;73,7
695,002;73,7
695,239;73,73
695,475;73,74
695,711;73,77
695,947;73,79
696,183;73,83
696,419;73,85
696,656;73,86
696,892;73,87
697,128;73,91
697,364;73,93
697,6;73,95
697,836;73,96
698,072;73,96
698,308;73,95
698,544;73,95
698,78;73,96
699,016;73,96
699,251;73,96
699,487;73,99
699,723;74,01
699,959;74,03
700,195;74,04
700,431;74,07
700,666;74,07
700,902;74,07
701,138;74,06
701,374;74,07
701,609;74,07
701,845;74,08
702,081;74,07
702,316;74,09
702,552;74,1
702,788;74,12
703,023;74,12
703,259;74,13
703,494;74,13
703,73;74,14
703,965;74,13
704,201;74,13
704,436;74,14
704,672;74,11
704,907;74,11
705,143;74,11
705,378;74,08
705,613;74,07
705,849;74,09
706,084;74,1
706,319;74,13
706,555;74,14
706,79;74,15
707,025;74,16
707,26;74,16
707,496;74,17
707,731;74,17
707,966;74,2
708,201;74,22
708,436;74,24
708,671;74,25
708,907;74,25
709,142;74,27
709,377;74,25
709,612;74,28
709,847;74,29
710,082;74,3
710,317;74,34
710,552;74,34
710,787;74,33
711,022;74,34
711,257;74,33
711,492;74,34
711,726;74,33
711,961;74,33
712,196;74,32
712,431;74,31
712,666;74,34
712,901;74,32
713,135;74,32
713,37;74,31
713,605;74,32
713,839;74,34
714,074;74,34
714,309;74,37
714,543;74,36
714,778;74,37
715,013;74,39
715,247;74,38
715,482;74,39
715,716;74,4
715,951;74,38
716,185;74,41
716,42;74,42
716,654;74,43
716,889;74,45
717,123;74,47
717,358;74,49
717,592;74,48
717,827;74,49
718,061;74,51
718,295;74,52
718,53;74,53
718,764;74,53
718,998;74,54
719,232;74,55
719,467;74,58
719,701;74,57
719,935;74,57
720,169;74,57
720,403;74,59
720,638;74,6
720,872;74,63
721,106;74,63
721,34;74,64
721,574;74,66
721,808;74,66
722,042;74,66
722,276;74,68
722,51;74,69
722,744;74,71
722,978;74,68
723,212;74,69
723,446;74,68
723,68;74,69
723,914;74,69
724,147;74,7
724,381;74,68
724,615;74,7
724,849;74,71
725,083;74,73
725,316;74,75
725,55;74,74
725,784;74,74
726,018;74,75
726,251;74,75
726,485;74,74
726,719;74,76
726,952;74,78
727,186;74,77
727,419;74,77
727,653;74,78
727,887;74,8
728,12;74,83
728,354;74,82
728,587;74,82
728,821;74,82
729,054;74,83
729,287;74,86
729,521;74,85
729,754;74,84
729,988;74,85
730,221;74,84
730,454;74,86
730,688;74,85
730,921;74,86
731,154;74,84
731,387;74,84
731,621;74,83
731,854;74,84
732,087;74,84
732,32;74,85
732,553;74,82
732,787;74,83
733,02;74,82
733,253;74,84
733,486;74,84
733,719;74,84
733,952;74,84
734,185;74,84
734,418;74,85
734,651;74,86
734,884;74,86
735,117;74,87
735,35;74,85
735,583;74,87
735,816;74,89
736,049;74,9
736,281;74,93
736,514;74,95
736,747;74,94
736,98;74,95
737,213;74,96
737,445;75
737,678;75
737,911;75
738,144;75
738,376;75,02
738,609;74,99
738,842;74,99
739,074;74,97
739,307;74,98
739,539;74,97
739,772;74,98
740,004;75
740,237;75,02
740,469;75,01
740,702;74,99
740,934;75
741,167;75,01
741,399;74,99
741,632;75
741,864;74,99
742,096;74,99
742,329;74,99
742,561;74,98
742,793;75,01
743,026;75,02
743,258;75,01
743,49;75,05
743,723;75,04
743,955;75,04
744,187;75,03
744,419;75,04
744,651;75,03
744,883;75,03
745,115;75,02
745,348;75,03
745,58;75,05
745,812;75,05
746,044;75,03
746,276;75,04
746,508;75,02
746,74;75,02
746,972;75,02
747,204;75,01
747,436;75,01
747,667;74,98
747,899;74,97
748,131;74,96
748,363;74,94
748,595;74,97
748,827;74,97
749,058;74,98
749,29;74,99
749,522;74,99
749,754;74,97
749,985;74,98
750,217;74,98
750,449;74,99
750,68;74,99
750,912;74,99
751,144;74,95
751,375;74,96
751,607;74,95
751,838;74,96
752,07;74,95
752,301;74,96
752,533;74,96
752,764;74,97
752,996;74,99
753,227;75
753,459;74,99
753,69;74,99
753,921;74,99
754,153;74,99
754,384;75,02
754,615;75,05
754,847;75,06
755,078;75,06
755,309;75,03
755,54;75,01
755,772;75,02
756,003;75,04
756,234;75,05
756,465;75,07
756,696;75,07
756,927;75,05
757,159;75,05
757,39;75,07
757,621;75,07
757,852;75,08
758,083;75,08
758,314;75,09
758,545;75,07
758,776;75,07
759,007;75,05
759,238;75,05
759,469;75,02
759,699;75
759,93;74,98
760,161;75
760,392;75,02
760,623;75,03
760,854;75,06
761,084;75,05
761,315;75,04
761,546;75,04
761,776;75,09
762,007;75,08
762,238;75,05
762,468;75,05
762,699;75,05
762,93;75,03
763,16;75,02
763,391;75,03
763,621;75,04
763,852;75,05
764,083;75,03
764,313;75,05
764,543;75,05
764,774;75,04
765,004;75,03
765,235;75,02
765,465;75
765,696;74,97
765,926;74,98
766,156;74,96
766,387;74,94
766,617;74,92
766,847;74,91
767,077;74,93
767,308;74,91
767,538;74,9
767,768;74,91
767,998;74,92
768,228;74,93
768,459;74,92
768,689;74,92
768,919;74,92
769,149;74,91
769,379;74,9
769,609;74,91
769,839;74,89
770,069;74,89
770,299;74,88
770,529;74,89
770,759;74,89
770,989;74,89
771,219;74,89
771,449;74,88
771,678;74,91
771,908;74,9
772,138;74,93
772,368;74,91
772,598;74,92
772,827;74,89
773,057;74,88
773,287;74,86
773,517;74,84
773,746;74,85
773,976;74,85
774,206;74,85
774,435;74,85
774,665;74,85
774,894;74,87
775,124;74,86
775,354;74,86
775,583;74,86
775,813;74,86
776,042;74,87
776,272;74,86
776,501;74,86
776,73;74,86
776,96;74,86
777,189;74,86
777,419;74,85
777,648;74,86
777,877;74,87
778,107;74,88
778,336;74,89
778,565;74,88
778,794;74,86
779,024;74,85
779,253;74,85
779,482;74,83
779,711;74,79
779,94;74,8
780,17;74,78
780,399;74,77
780,628;74,76
780,857;74,72
781,086;74,73
781,315;74,73
781,544;74,72
781,773;74,69
782,002;74,71
782,231;74,69
782,46;74,69
782,689;74,7
782,918;74,7
783,147;74,7
783,375;74,69
783,604;74,71
783,833;74,72
784,062;74,72
784,291;74,72
784,519;74,75
784,748;74,76
784,977;74,79
785,206;74,78
785,434;74,79
785,663;74,81
785,892;74,81
786,12;74,79
786,349;74,79
786,577;74,82
786,806;74,81
787,034;74,83
787,263;74,8
787,492;74,77
787,72;74,78
787,948;74,77
788,177;74,77
788,405;74,77
788,634;74,78
788,862;74,78
789,09;74,78
789,319;74,74
789,547;74,75
789,775;74,74
790,004;74,74
790,232;74,75
790,46;74,75
790,688;74,74
790,917;74,77
791,145;74,76
791,373;74,75
791,601;74,73
791,829;74,72
792,057;74,73
792,286;74,75
792,514;74,75
792,742;74,74
792,97;74,71
793,198;74,7
793,426;74,67
793,654;74,65
793,882;74,63
794,109;74,65
794,337;74,61
794,565;74,6
794,793;74,59
795,021;74,56
795,249;74,57
795,477;74,54
795,704;74,51
795,932;74,51
796,16;74,48
796,388;74,47
796,615;74,47
796,843;74,44
797,071;74,42
797,298;74,4
797,526;74,4
797,754;74,39
797,981;74,4
798,209;74,4
798,436;74,4
798,664;74,41
798,891;74,41
799,119;74,4
799,346;74,41
799,574;74,39
799,801;74,38
800,029;74,36
800,256;74,32
800,483;74,32
800,711;74,3
800,938;74,3
801,165;74,3
801,393;74,28
801,62;74,26
801,847;74,27
802,074;74,25
802,302;74,21
802,529;74,2
802,756;74,17
802,983;74,2
803,21;74,2
803,437;74,19
803,665;74,21
803,892;74,22
804,119;74,21
804,346;74,23
804,573;74,23
804,8;74,24
805,027;74,27
805,254;74,25
805,481;74,22
805,708;74,24
805,934;74,24
806,161;74,25
806,388;74,25
806,615;74,23
806,842;74,22
807,069;74,23
807,295;74,26
807,522;74,28
807,749;74,24
807,976;74,23
808,202;74,21
808,429;74,18
808,656;74,19
808,882;74,19
809,109;74,15
809,335;74,13
809,562;74,13
809,789;74,15
810,015;74,15
810,242;74,19
810,468;74,2
810,695;74,18
810,921;74,17
811,147;74,17
811,374;74,2
811,6;74,22
811,827;74,2
812,053;74,16
812,279;74,16
812,506;74,18
812,732;74,17
812,958;74,19
813,185;74,16
813,411;74,14
813,637;74,12
813,863;74,12
814,089;74,15
814,315;74,12
814,542;74,09
814,768;74,08
814,994;74,05
815,22;74,03
815,446;74,04
815,672;74,03
815,898;74,05
816,124;74,03
816,35;74,02
816,576;74,04
816,802;74,06
817,028;74,04
817,254;74,03
817,48;74,01
817,705;74
817,931;74,03
818,157;74,03
818,383;74
818,609;74,02
818,834;73,98
819,06;73,99
819,286;73,98
819,512;73,97
819,737;73,98
819,963;73,99
820,189;73,95
820,414;73,96
820,64;73,94
820,865;73,93
821,091;73,93
821,316;73,88
821,542;73,86
821,767;73,85
821,993;73,84
822,218;73,81
822,444;73,81
822,669;73,78
822,895;73,77
823,12;73,79
823,345;73,77
823,571;73,75
823,796;73,74
824,021;73,75
824,247;73,75
824,472;73,71
824,697;73,73
824,922;73,73
825,147;73,7
825,373;73,69
825,598;73,67
825,823;73,67
826,048;73,67
826,273;73,68
826,498;73,67
826,723;73,66
826,948;73,69
827,173;73,68
827,398;73,68
827,623;73,69
827,848;73,66
828,073;73,64
828,298;73,67
828,523;73,66
828,748;73,64
828,973;73,66
829,197;73,68
829,422;73,63
829,647;73,61
829,872;73,61
830,097;73,61
830,321;73,61
830,546;73,6
830,771;73,63
830,995;73,59
831,22;73,57
831,445;73,56
831,669;73,54
831,894;73,53
832,118;73,52
832,343;73,45
832,567;73,44
832,792;73,46
833,016;73,44
833,241;73,4
833,465;73,4
833,69;73,36
833,914;73,34
834,139;73,34
834,363;73,36
834,587;73,33
834,812;73,34
835,036;73,34
835,26;73,3
835,485;73,29
835,709;73,29
835,933;73,31
836,157;73,31
836,381;73,29
836,606;73,29
836,83;73,32
837,054;73,36
837,278;73,35
837,502;73,36
837,726;73,36
837,95;73,38
838,174;73,38
838,398;73,37
838,622;73,37
838,846;73,36
839,07;73,36
839,294;73,35
839,518;73,36
839,742;73,33
839,966;73,37
840,189;73,35
840,413;73,36
840,637;73,35
840,861;73,3
841,085;73,31
841,308;73,29
841,532;73,26
841,756;73,23
841,979;73,26
842,203;73,22
842,427;73,19
842,65;73,16
842,874;73,15
843,098;73,16
843,321;73,17
843,545;73,18
843,768;73,13
843,992;73,11
844,215;73,08
844,439;73,07
844,662;73,01
844,886;73,02
845,109;73
845,332;73
845,556;73,06
845,779;73,05
846,002;73,05
846,226;73,01
846,449;73,02
846,672;72,97
846,895;72,98
847,119;72,95
847,342;72,96
847,565;72,97
847,788;72,95
848,011;72,9
848,234;72,86
848,457;72,86
848,681;72,86
848,904;72,84
849,127;72,83
849,35;72,86
849,573;72,84
849,796;72,85
850,019;72,85
850,241;72,86
850,464;72,86
850,687;72,85
850,91;72,88
851,133;72,88
851,356;72,92
851,579;72,88
851,801;72,9
852,024;72,91
852,247;72,88
852,47;72,86
852,692;72,93
852,915;72,96
853,138;72,93
853,36;72,93
853,583;72,92
853,806;72,94
854,028;72,94
854,251;72,91
854,473;72,89
854,696;72,88
854,918;72,81
855,141;72,8
855,363;72,8
855,586;72,78
855,808;72,73
856,031;72,7
856,253;72,7
856,475;72,68
856,698;72,67
856,92;72,67
857,142;72,67
857,365;72,62
857,587;72,61
857,809;72,64
858,031;72,64
858,253;72,69
858,476;72,65
858,698;72,65
858,92;72,65
859,142;72,62
859,364;72,58
859,586;72,56
859,808;72,55
860,03;72,56
860,252;72,56
860,474;72,54
860,696;72,52
860,918;72,54
861,14;72,54
861,362;72,53
861,584;72,5
861,806;72,48
862,028;72,51
862,25;72,47
862,471;72,41
862,693;72,36
862,915;72,33
863,137;72,33
863,358;72,34
863,58;72,33
863,802;72,35
864,024;72,36
864,245;72,35
864,467;72,36
864,688;72,36
864,91;72,32
865,132;72,34
865,353;72,35
865,575;72,36
865,796;72,36
866,018;72,35
866,239;72,36
866,461;72,37
866,682;72,41
866,903;72,4
867,125;72,42
867,346;72,46
867,567;72,46
867,789;72,45
868,01;72,37
868,231;72,36
868,453;72,35
868,674;72,34
868,895;72,35
869,116;72,33
869,337;72,28
869,559;72,3
869,78;72,26
870,001;72,26
870,222;72,22
870,443;72,2
870,664;72,15
870,885;72,13
871,106;72,14
871,327;72,08
871,548;72,06
871,769;72,07
871,99;72,04
872,211;72,03
872,432;72,04
872,653;72,11
872,874;72,12
873,094;72,07
873,315;72,06
873,536;72,05
873,757;72,01
873,978;71,97
874,198;71,98
874,419;71,99
874,64;71,96
874,86;71,95
875,081;71,96
875,302;72
875,522;71,96
875,743;71,91
875,963;71,9
876,184;71,87
876,404;71,82
876,625;71,8
876,845;71,78
877,066;71,72
877,286;71,69
877,507;71,62
877,727;71,64
877,947;71,65
878,168;71,66
878,388;71,64
878,609;71,65
878,829;71,62
879,049;71,65
879,269;71,62
879,49;71,63
879,71;71,6
879,93;71,58
880,15;71,63
880,37;71,65
880,59;71,64
880,811;71,71
881,031;71,73
881,251;71,74
881,471;71,71
881,691;71,76
881,911;71,76
882,131;71,81
882,351;71,83
882,571;71,8
882,791;71,78
883,011;71,79
883,23;71,79
883,45;71,74
883,67;71,73
883,89;71,77
884,11;71,76
884,33;71,77
884,549;71,76
884,769;71,72
884,989;71,64
885,209;71,62
885,428;71,57
885,648;71,56
885,868;71,56
886,087;71,55
886,307;71,51
886,526;71,45
886,746;71,45
886,965;71,39
887,185;71,42
887,404;71,4
887,624;71,39
887,843;71,35
888,063;71,36
888,282;71,35
888,502;71,37
888,721;71,38
888,94;71,4
889,16;71,38
889,379;71,43
889,598;71,53
889,818;71,54
890,037;71,51
890,256;71,52
890,475;71,52
890,694;71,55
890,914;71,61
891,133;71,71
891,352;71,69
891,571;71,69
891,79;71,7
892,009;71,72
892,228;71,75
892,447;71,79
892,666;71,82
892,885;71,8
893,104;71,76
893,323;71,77
893,542;71,72
893,761;71,73
893,98;71,71
894,199;71,62
894,417;71,61
894,636;71,64
894,855;71,65
895,074;71,64
895,293;71,63
895,511;71,58
895,73;71,5
895,949;71,48
896,167;71,46
896,386;71,45
896,605;71,43
896,823;71,43
897,042;71,4
897,26;71,37
897,479;71,34
897,697;71,32
897,916;71,32
898,134;71,29
898,353;71,3
898,571;71,25
898,79;71,28
899,008;71,3
899,227;71,26
899,445;71,18
899,663;71,22
899,882;71,22
900,1;71,19
900,318;71,21
900,536;71,24
900,755;71,23
900,973;71,15
901,191;71,14
901,409;71,11
901,627;71,15
901,846;71,16
902,064;71,15
902,282;71,14
902,5;71,08
902,718;71,07
902,936;71,07
903,154;71,11
903,372;71,12
903,59;71,09
903,808;71,11
904,026;71,17
904,244;71,09
904,462;71,06
904,679;71,09
904,897;71,05
905,115;70,99
905,333;71,03
905,551;71,07
905,768;71,07
905,986;71,07
906,204;71,03
906,422;70,98
906,639;71,02
906,857;71,07
907,074;71,04
907,292;71,05
907,51;71,02
907,727;70,97
907,945;70,97
908,162;70,95
908,38;70,96
908,597;70,96
908,815;70,99
909,032;70,99
909,25;70,9
909,467;70,9
909,684;70,98
909,902;70,88
910,119;70,86
910,337;70,84
910,554;70,81
910,771;70,77
910,988;70,86
911,206;70,84
911,423;70,75
911,64;70,75
911,857;70,75
912,074;70,76
912,291;70,76
912,509;70,76
912,726;70,71
912,943;70,68
913,16;70,65
913,377;70,64
913,594;70,61
913,811;70,66
914,028;70,68
914,245;70,63
914,462;70,69
914,679;70,72
914,896;70,78
915,112;70,77
915,329;70,8
915,546;70,72
915,763;70,74
915,98;70,78
916,196;70,84
916,413;70,84
916,63;70,8
916,847;70,81
917,063;70,78
917,28;70,82
917,497;70,77
917,713;70,78
917,93;70,72
918,146;70,69
918,363;70,62
918,579;70,57
918,796;70,51
919,012;70,45
919,229;70,41
919,445;70,37
919,662;70,39
919,878;70,3
920,095;70,31
920,311;70,22
920,527;70,21
920,744;70,17
920,96;70,17
921,176;70,15
921,392;70,15
921,609;70,15
921,825;70,15
922,041;70,15
922,257;70,09
922,473;70,18
922,69;70,22
922,906;70,3
923,122;70,31
923,338;70,35
923,554;70,35
923,77;70,4
923,986;70,43
924,202;70,45
924,418;70,57
924,634;70,6
924,85;70,69
925,066;70,75
925,282;70,75
925,497;70,79
925,713;70,84
925,929;70,87
926,145;70,89
926,361;70,89
926,576;70,97
926,792;71,04
927,008;71,05
927,224;71,03
927,439;71,06
927,655;71,12
927,871;71,13
928,086;71,17
928,302;71,09
928,517;71,06
928,733;71,06
928,948;70,99
929,164;71,03
929,379;70,99
929,595;70,96
929,81;70,97
930,026;70,97
930,241;70,98
930,456;71
930,672;70,99
930,887;70,99
931,102;70,97
931,318;70,93
931,533;70,89
931,748;70,95
931,964;70,88
932,179;70,87
932,394;70,77
932,609;70,79
932,824;70,77
933,039;70,74
933,255;70,72
933,47;70,76
933,685;70,66
933,9;70,68
934,115;70,62
934,33;70,59
934,545;70,52
934,76;70,45
934,975;70,35
935,19;70,29
935,404;70,27
935,619;70,26
935,834;70,22
936,049;70,13
936,264;70,07
936,479;70,08
936,693;69,96
936,908;70,07
937,123;69,97
937,338;70,07
937,552;70,05
937,767;70
937,982;69,94
938,196;69,9
938,411;69,77
938,625;69,83
938,84;69,75
939,055;69,72
939,269;69,71
939,484;69,69
939,698;69,74
939,912;69,74
940,127;69,71
940,341;69,86
940,556;69,91
940,77;69,97
940,984;70,02
941,199;70,05
941,413;70,01
941,627;70,09
941,842;70,07
942,056;70,15
942,27;70,28
942,484;70,45
942,699;70,6
942,913;70,77
943,127;70,71
943,341;70,94
943,555;71,13
943,769;71,18
943,983;71,41
944,197;71,54
944,411;71,68
944,625;71,77
944,839;71,56
945,053;71,68
945,267;71,73
945,481;71,69
945,695;71,77
945,909;71,91
946,123;71,92
946,336;71,88
946,55;71,88
946,764;71,87
946,978;71,79
947,192;71,84
947,405;71,75
947,619;71,73
947,833;71,71
948,046;71,5
948,26;71,59
948,474;71,49
948,687;71,39
948,901;71,43
949,114;71,43
949,328;71,59
949,541;71,44
949,755;71,26
949,968;71,27
950,182;71,21
950,395;71,13
950,609;71,11
950,822;71,08
951,035;71,04
951,249;71,06
951,462;71,07
951,675;71
951,889;70,96
952,102;70,95
952,315;70,96
952,528;71,24
952,741;71,28
952,955;71,18
953,168;71
953,381;70,87
953,594;70,89
953,807;70,78
954,02;71,01
954,233;71,07
954,446;71,04
954,659;71,06
954,872;71,14
955,085;71,22
955,298;71,31
955,511;71,38
955,724;71,34
955,937;71,18
956,15;71,19
956,362;71,2
956,575;71,15
956,788;71,17
957,001;70,97
957,214;71,04
957,426;71,05
957,639;71,15
957,852;71,26
958,064;71,19
958,277;71,14
958,49;71
958,702;70,83
958,915;70,9
959,127;70,88
959,34;70,86
959,552;70,71
959,765;70,73
959,977;70,65
960,19;70,76
960,402;70,84
960,615;70,76
960,827;70,82
961,039;70,83
961,252;70,76
961,464;70,73
961,676;70,49
961,889;70,67
962,101;70,58
962,313;70,41
962,525;70,31
962,738;70,4
962,95;70,35
963,162;70,45
963,374;70,32
963,586;70,46
963,798;70,49
964,01;70,62
964,222;70,53
964,434;70,73
964,646;70,68
964,858;70,75
965,07;70,81
965,282;70,93
965,494;70,88
965,706;70,93
965,918;71,03
966,13;71,11
966,342;70,92
966,553;71,12
966,765;71,18
966,977;71,05
967,189;71
967,401;71,03
967,612;71,09
967,824;71,17
968,036;71,18
968,247;71,24
968,459;71,23
968,67;71,36
968,882;71,12
969,094;71,12
969,305;71,03
969,517;71,03
969,728;70,93
969,94;71,07
970,151;71
970,362;71,08
970,574;71,22
970,785;71,33
970,997;71,27
971,208;71,13
971,419;71,37
971,631;71,35
971,842;71,5
972,053;71,59
972,264;71,64
972,476;71,51
972,687;71,34
972,898;71,37
973,109;71,4
973,32;71,4
973,531;71,45
973,742;71,35
973,954;71,42
974,165;71,49
974,376;71,39
974,587;71,52
974,798;71,41
975,009;71,18
975,22;71,26
975,43;71,26
975,641;71,47
975,852;71,59
976,063;71,64
976,274;71,57
976,485;71,35
976,695;71,26
976,906;71,2
977,117;71,23
977,328;71,2
977,538;71,09
977,749;71,19
977,96;71,14
978,17;71,39
978,381;71,34
978,592;71,39
978,802;71,57
979,013;71,38
979,223;71,52
979,434;71,74
979,644;71,69
979,855;71,89
980,065;71,93
980,276;71,75
980,486;71,88
980,696;71,83
980,907;72,06
981,117;72,27
981,327;72,44
981,538;72,47
981,748;72,49
981,958;72,57
982,169;72,65
982,379;72,73
982,589;72,77
982,799;72,93
983,009;72,99
983,219;72,78
983,43;73,3
983,64;73,26
983,85;73,29
984,06;73,32
984,27;73,09
984,48;73
984,69;73,11
984,9;73,14
985,11;73,31
985,32;73,31
985,529;73,13
985,739;73,07
985,949;73,02
986,159;73,14
986,369;73,23
986,579;73,29
986,788;73,3
986,998;73,19
987,208;72,99
987,417;72,94
987,627;73,17
987,837;72,71
988,046;72,77
988,256;72,69
988,466;72,72
988,675;72,89
988,885;72,82
989,094;73,08
989,304;73,29
989,513;73,16
989,723;73,06
989,932;73,2
990,142;73,36
990,351;73,71
990,56;73,68
990,77;73,69
990,979;73,68
991,188;73,57
991,398;73,72
991,607;73,95
991,816;74,14
992,025;74,3
992,235;74,6
992,444;74,57
992,653;74,75
992,862;74,77
993,071;74,76
993,28;74,91
993,489;74,85
993,698;74,56
993,908;74,8
994,117;75,02
994,326;75
994,534;75,03
994,743;74,94
994,952;75,11
995,161;74,97
995,37;75,17
995,579;75,49
995,788;75,54
995,997;75,39
996,205;75,19
996,414;75,01
996,623;74,78
996,832;74,86
997,04;74,84
997,249;74,87
997,458;74,91
997,666;75,1
997,875;75,04
998,084;75,11
998,292;75,06
998,501;74,78
998,709;74,84
998,918;74,87
999,126;74,67
999,335;74,52
999,543;74,75
999,752;74,71
999,96;74,51
1000,169;74,46
1000,377;74,67
1000,585;74,56
1000,794;74,5
1001,002;74,77
1001,21;74,75
1001,418;74,73
1001,627;74,62
1001,835;74,62
1002,043;74,69
1002,251;74,49
1002,459;74,54
1002,668;74,46
1002,876;74,71
1003,084;74,4
1003,292;74,06
1003,5;74,41
1003,708;74,44
1003,916;74,32
1004,124;74,2
1004,332;74,18
1004,54;74,09
1004,748;73,82
1004,956;73,98
1005,163;73,99
1005,371;73,91
1005,579;73,78
1005,787;73,69
1005,995;73,72
1006,202;73,66
1006,41;73,54
1006,618;73,74
1006,826;73,79
1007,033;73,72
1007,241;73,78
1007,449;74
1007,656;74,49
1007,864;74,22
1008,071;74,26
1008,279;74,35
1008,486;74,57
1008,694;74,79
1008,901;74,77
1009,109;75,06
1009,316;75,04
1009,524;75,33
1009,731;75,25
1009,938;75,39
1010,146;75,53
1010,353;75,63
1010,56;75,94
1010,768;76,12
1010,975;75,97
1011,182;76,16
1011,389;76,23
1011,597;76,32
1011,804;76,91
1012,011;76,67
1012,218;76,89
1012,425;76,78
1012,632;76,53
1012,839;76,49
1013,046;76,31
1013,253;76,6
1013,46;76,79
1013,667;77,1
1013,874;76,39
1014,081;76,37
1014,288;76,88
1014,495;77,3
1014,702;77,14
1014,909;76,95
1015,116;76,77
1015,323;77,59
1015,529;77,52
1015,736;77,76
1015,943;77,52
1016,15;77,24
1016,356;77,11
1016,563;77,2
1016,77;78,06
1016,976;78,36
1017,183;78,33
1017,389;78,44
1017,596;78,12
1017,803;77,95
1018,009;77,93
1018,216;78,56
1018,422;78,82
1018,629;78,18
1018,835;77,69
1019,041;77,97
1019,248;78,11
1019,454;77,8
1019,661;77,38
1019,867;77,51
1020,073;77,34
1020,279;77,37
1020,486;77,39
1020,692;78,1
1020,898;78,11
1021,104;77,14
1021,311;77,23
1021,517;76,84
1021,723;76,57
1021,929;76,59
1022,135;76,47
1022,341;76,23
1022,547;76,13
1022,753;76,16
1022,959;76,23
1023,165;76,44
1023,371;76,65
1023,577;76,62
1023,783;77,41
1023,989;77,35
1024,195;77,32
1024,401;77,89
1024,607;78,91
1024,812;79,27
1025,018;78,66
1025,224;78,26
1025,43;79,22
1025,635;79,26
1025,841;79,15
1026,047;79,88
1026,252;80,41
1026,458;80,31
1026,664;80,37
1026,869;80,63
1027,075;80,24
1027,28;80,27
1027,486;80,49
1027,691;80,46
1027,897;80,34
1028,102;80,4
1028,308;80,79
1028,513;80,74
1028,719;80,71
1028,924;79,91
1029,129;79,57
1029,335;79,71
1029,54;79,65
1029,745;79,47
1029,95;80,07
1030,156;80,6
1030,361;79,9
1030,566;79,52
1030,771;79,74
1030,976;79,73
1031,182;79,88
1031,387;80,51
1031,592;80,65
1031,797;80,92
1032,002;79,74
1032,207;80,12
1032,412;79,48
1032,617;78,71
1032,822;77,9
1033,027;77,34
1033,232;77,69
1033,437;78,01
1033,642;77,87
1033,846;78,27
1034,051;77,21
1034,256;76,2
1034,461;76,63
1034,666;77,18
1034,87;77,61
1035,075;78,4
1035,28;77,75
1035,484;78,21
1035,689;77,95
1035,894;77,84
1036,098;77,16
1036,303;77,65
1036,507;77,11
1036,712;77,56
1036,917;78,73
1037,121;78,81
1037,325;78,43
1037,53;77,95
1037,734;77,65
1037,939;78,36
1038,143;79,16
1038,348;79,49
1038,552;79,66
1038,756;79,97
1038,961;79,51
1039,165;79,18
1039,369;78,43
1039,573;79,75
1039,778;78,61
1039,982;78,68
1040,186;79,32
1040,39;79,74
1040,594;80,04
1040,798;79,55
1041,002;79,32
1041,206;78,72
1041,41;79,61
1041,614;80,34
1041,818;80,78
1042,022;80,47
1042,226;81,39
1042,43;81,59
1042,634;81,74
1042,838;81,22
1043,042;80,61
1043,246;80,08
1043,45;80,99
1043,653;80,9
1043,857;80,84
1044,061;81,15
1044,265;81,35
1044,468;82,34
1044,672;81,83
1044,876;83,62
1045,079;83,66
1045,283;84,42
1045,487;84,16
1045,69;85,15
1045,894;86,13
1046,097;85,43
1046,301;85,51
1046,504;84,48
1046,708;83,38
1046,911;83,37
1047,115;84,94
1047,318;85,63
1047,522;87,1
1047,725;86,75
1047,928;87,76
1048,132;87,59
1048,335;88,5
1048,538;87,12
1048,741;86,68
1048,945;85,87
1049,148;84,43
1049,351;86,11
1049,554;85,72
1049,757;86,45
1049,96;84,46
1050,163;84,31
1050,367;85,9
1050,57;86,67
1050,773;85,59
1050,976;86,64
1051,179;87,02
1051,382;86,75
1051,585;85,48
1051,787;84,87
1051,99;83,99
1052,193;83,69
1052,396;83,94
1052,599;82,17
1052,802;84,04
1053,005;82,21
1053,207;85,81
1053,41;84,78
1053,613;83,82
1053,815;84,25
1054,018;83,65
1054,221;86,06
1054,423;85,37
1054,626;84,09
1054,829;83,94
1055,031;84,83
1055,234;83,94
1055,436;83,85
1055,639;83,49
1055,841;83,96
1056,044;83,81
1056,246;85,22
