3997,70175;1,76599
3995,6506;1,76766
3993,59944;1,77001
3991,54829;1,77225
3989,49713;1,77354
3987,44598;1,77354
3985,39482;1,77318
3983,34367;1,77445
3981,29251;1,77752
3979,24136;1,7801
3977,1902;1,78063
3975,13905;1,7811
3973,08789;1,78356
3971,03673;1,78651
3968,98558;1,78866
3966,93442;1,79115
3964,88327;1,79449
3962,83211;1,79803
3960,78096;1,80219
3958,7298;1,80713
3956,67865;1,81137
3954,62749;1,81439
3952,57634;1,81715
3950,52518;1,82027
3948,47403;1,82338
3946,42287;1,82569
3944,37172;1,8266
3942,32056;1,82617
3940,2694;1,82488
3938,21825;1,82263
3936,16709;1,819
3934,11594;1,81414
3932,06478;1,80931
3930,01363;1,80533
3927,96247;1,80102
3925,91132;1,79474
3923,86016;1,78711
3921,80901;1,78027
3919,75785;1,77512
3917,7067;1,77048
3915,65554;1,7647
3913,60439;1,75853
3911,55323;1,75386
3909,50207;1,75084
3907,45092;1,7482
3905,39976;1,74477
3903,34861;1,74069
3901,29745;1,73706
3899,2463;1,73431
3897,19514;1,73292
3895,14399;1,73242
3893,09283;1,73109
3891,04168;1,72939
3888,99052;1,72956
3886,93937;1,72995
3884,88821;1,72909
3882,83706;1,72871
3880,7859;1,72845
3878,73474;1,72766
3876,68359;1,727
3874,63243;1,72662
3872,58128;1,72716
3870,53012;1,7275
3868,47897;1,72695
3866,42781;1,72601
3864,37666;1,72397
3862,3255;1,72142
3860,27435;1,72027
3858,22319;1,72062
3856,17204;1,7202
3854,12088;1,71738
3852,06973;1,71473
3850,01857;1,71482
3847,96741;1,71584
3845,91626;1,71586
3843,8651;1,71559
3841,81395;1,71649
3839,76279;1,7176
3837,71164;1,71757
3835,66048;1,71709
3833,60933;1,71703
3831,55817;1,7177
3829,50702;1,71869
3827,45586;1,71843
3825,40471;1,71744
3823,35355;1,71692
3821,3024;1,71668
3819,25124;1,71784
3817,20008;1,71862
3815,14893;1,7183
3813,09777;1,71959
3811,04662;1,72216
3808,99546;1,72359
3806,94431;1,72302
3804,89315;1,7233
3802,842;1,72492
3800,79084;1,72665
3798,73969;1,72846
3796,68853;1,72858
3794,63738;1,7274
3792,58622;1,72743
3790,53506;1,72948
3788,48391;1,73218
3786,43275;1,7341
3784,3816;1,73556
3782,33044;1,73726
3780,27929;1,73799
3778,22813;1,73735
3776,17698;1,73745
3774,12582;1,73982
3772,07467;1,74316
3770,02351;1,74504
3767,97236;1,74542
3765,9212;1,74566
3763,87005;1,74761
3761,81889;1,75133
3759,76773;1,75425
3757,71658;1,75511
3755,66542;1,75559
3753,61427;1,75688
3751,56311;1,75843
3749,51196;1,76085
3747,4608;1,76565
3745,40965;1,77038
3743,35849;1,77342
3741,30734;1,77659
3739,25618;1,78027
3737,20503;1,7836
3735,15387;1,78666
3733,10272;1,79072
3731,05156;1,79652
3729,0004;1,80322
3726,94925;1,80967
3724,89809;1,81697
3722,84694;1,82521
3720,79578;1,83232
3718,74463;1,83876
3716,69347;1,84717
3714,64232;1,85763
3712,59116;1,86844
3710,54001;1,87945
3708,48885;1,89178
3706,4377;1,90595
3704,38654;1,92336
3702,33539;1,94681
3700,28423;1,97559
3698,23307;2,00343
3696,18192;2,02565
3694,13076;2,03997
3692,07961;2,04401
3690,02845;2,03836
3687,9773;2,03086
3685,92614;2,03066
3683,87499;2,03645
3681,82383;2,04379
3679,77268;2,05207
3677,72152;2,06264
3675,67037;2,07628
3673,61921;2,09224
3671,56806;2,10828
3669,5169;2,12417
3667,46574;2,13958
3665,41459;2,15437
3663,36343;2,16871
3661,31228;2,18221
3659,26112;2,19575
3657,20997;2,20985
3655,15881;2,22535
3653,10766;2,24402
3651,0565;2,26844
3649,00535;2,29678
3646,95419;2,3207
3644,90304;2,33856
3642,85188;2,35044
3640,80073;2,35599
3638,74957;2,35789
3636,69841;2,35905
3634,64726;2,36239
3632,5961;2,37188
3630,54495;2,38649
3628,49379;2,39919
3626,44264;2,40679
3624,39148;2,41401
3622,34033;2,42209
3620,28917;2,42672
3618,23802;2,42687
3616,18686;2,4249
3614,13571;2,42342
3612,08455;2,42747
3610,0334;2,43753
3607,98224;2,44792
3605,93108;2,4566
3603,87993;2,46267
3601,82877;2,46428
3599,77762;2,46457
3597,72646;2,46644
3595,67531;2,46925
3593,62415;2,47654
3591,573;2,48936
3589,52184;2,50055
3587,47069;2,50341
3585,41953;2,50063
3583,36838;2,49939
3581,31722;2,50069
3579,26607;2,50255
3577,21491;2,50539
3575,16375;2,51169
3573,1126;2,52008
3571,06144;2,52557
3569,01029;2,52653
3566,95913;2,52541
3564,90798;2,52749
3562,85682;2,53471
3560,80567;2,54101
3558,75451;2,54333
3556,70336;2,54735
3554,6522;2,55557
3552,60105;2,56352
3550,54989;2,56978
3548,49874;2,5758
3546,44758;2,57851
3544,39642;2,57345
3542,34527;2,56465
3540,29411;2,56118
3538,24296;2,56466
3536,1918;2,57103
3534,14065;2,57817
3532,08949;2,58294
3530,03834;2,58379
3527,98718;2,58566
3525,93603;2,58984
3523,88487;2,58987
3521,83372;2,58541
3519,78256;2,58561
3517,73141;2,59555
3515,68025;2,60944
3513,62909;2,61912
3511,57794;2,62207
3509,52678;2,62019
3507,47563;2,61855
3505,42447;2,6235
3503,37332;2,63537
3501,32216;2,64618
3499,27101;2,6483
3497,21985;2,64389
3495,1687;2,64186
3493,11754;2,64353
3491,06639;2,64351
3489,01523;2,64313
3486,96407;2,64559
3484,91292;2,64963
3482,86176;2,65406
3480,81061;2,65806
3478,75945;2,65928
3476,7083;2,65842
3474,65714;2,65775
3472,60599;2,65626
3470,55483;2,65587
3468,50368;2,66117
3466,45252;2,66856
3464,40137;2,66998
3462,35021;2,66984
3460,29906;2,67509
3458,2479;2,67974
3456,19674;2,67756
3454,14559;2,67139
3452,09443;2,66587
3450,04328;2,66346
3447,99212;2,66723
3445,94097;2,67654
3443,88981;2,68584
3441,83866;2,69116
3439,7875;2,69018
3437,73635;2,68542
3435,68519;2,68255
3433,63404;2,68339
3431,58288;2,68622
3429,53173;2,68841
3427,48057;2,69034
3425,42941;2,69372
3423,37826;2,69415
3421,3271;2,69201
3419,27595;2,6929
3417,22479;2,69308
3415,17364;2,68832
3413,12248;2,68037
3411,07133;2,67351
3409,02017;2,67163
3406,96902;2,67358
3404,91786;2,67563
3402,86671;2,67813
3400,81555;2,68392
3398,7644;2,69193
3396,71324;2,69384
3394,66208;2,68796
3392,61093;2,68767
3390,55977;2,69648
3388,50862;2,69791
3386,45746;2,69037
3384,40631;2,68744
3382,35515;2,69198
3380,304;2,69467
3378,25284;2,68888
3376,20169;2,68154
3374,15053;2,67926
3372,09938;2,67883
3370,04822;2,6771
3367,99707;2,67869
3365,94591;2,68918
3363,89475;2,69739
3361,8436;2,69432
3359,79244;2,6896
3357,74129;2,68843
3355,69013;2,68742
3353,63898;2,68273
3351,58782;2,67513
3349,53667;2,67092
3347,48551;2,67083
3345,43436;2,6714
3343,3832;2,67136
3341,33205;2,67282
3339,28089;2,67548
3337,22974;2,67165
3335,17858;2,66371
3333,12742;2,65956
3331,07627;2,65554
3329,02511;2,64838
3326,97396;2,6428
3324,9228;2,64377
3322,87165;2,65128
3320,82049;2,66067
3318,76934;2,66181
3316,71818;2,65186
3314,66703;2,64349
3312,61587;2,64272
3310,56472;2,64223
3308,51356;2,64088
3306,46241;2,64375
3304,41125;2,6473
3302,36009;2,64573
3300,30894;2,64327
3298,25778;2,64391
3296,20663;2,64553
3294,15547;2,64754
3292,10432;2,64923
3290,05316;2,64771
3288,00201;2,64447
3285,95085;2,6436
3283,8997;2,64198
3281,84854;2,64003
3279,79739;2,64202
3277,74623;2,64326
3275,69508;2,64457
3273,64392;2,6483
3271,59276;2,64774
3269,54161;2,64288
3267,49045;2,63957
3265,4393;2,63855
3263,38814;2,63756
3261,33699;2,6347
3259,28583;2,62993
3257,23468;2,62468
3255,18352;2,62115
3253,13237;2,62146
3251,08121;2,62728
3249,03006;2,63333
3246,9789;2,6295
3244,92775;2,61874
3242,87659;2,6133
3240,82543;2,61782
3238,77428;2,6272
3236,72312;2,63458
3234,67197;2,63872
3232,62081;2,64284
3230,56966;2,6463
3228,5185;2,64141
3226,46735;2,62802
3224,41619;2,61603
3222,36504;2,60875
3220,31388;2,60738
3218,26273;2,61287
3216,21157;2,61833
3214,16041;2,62005
3212,10926;2,61995
3210,0581;2,61543
3208,00695;2,60794
3205,95579;2,60415
3203,90464;2,60251
3201,85348;2,59895
3199,80233;2,59388
3197,75117;2,58821
3195,70002;2,58473
3193,64886;2,58593
3191,59771;2,59036
3189,54655;2,59328
3187,4954;2,59005
3185,44424;2,58329
3183,39308;2,58044
3181,34193;2,58231
3179,29077;2,58393
3177,23962;2,58326
3175,18846;2,58289
3173,13731;2,58335
3171,08615;2,58245
3169,035;2,5799
3166,98384;2,57685
3164,93269;2,57277
3162,88153;2,56746
3160,83038;2,56487
3158,77922;2,56288
3156,72807;2,55437
3154,67691;2,54491
3152,62575;2,54253
3150,5746;2,54351
3148,52344;2,54341
3146,47229;2,54314
3144,42113;2,54285
3142,36998;2,5433
3140,31882;2,54464
3138,26767;2,5438
3136,21651;2,54012
3134,16536;2,53534
3132,1142;2,53222
3130,06305;2,53002
3128,01189;2,5271
3125,96074;2,52697
3123,90958;2,52783
3121,85842;2,5263
3119,80727;2,52376
3117,75611;2,5193
3115,70496;2,5145
3113,6538;2,51344
3111,60265;2,51337
3109,55149;2,50933
3107,50034;2,50494
3105,44918;2,50561
3103,39803;2,508
3101,34687;2,50883
3099,29572;2,50874
3097,24456;2,50613
3095,19341;2,50321
3093,14225;2,50083
3091,09109;2,49582
3089,03994;2,49279
3086,98878;2,4933
3084,93763;2,49135
3082,88647;2,48751
3080,83532;2,4855
3078,78416;2,48574
3076,73301;2,48732
3074,68185;2,48865
3072,6307;2,48658
3070,57954;2,48164
3068,52839;2,47963
3066,47723;2,48147
3064,42608;2,48257
3062,37492;2,4806
3060,32376;2,47756
3058,27261;2,47547
3056,22145;2,47364
3054,1703;2,47246
3052,11914;2,47283
3050,06799;2,4753
3048,01683;2,47956
3045,96568;2,48104
3043,91452;2,47714
3041,86337;2,47389
3039,81221;2,47459
3037,76106;2,477
3035,7099;2,48101
3033,65875;2,48326
3031,60759;2,481
3029,55643;2,48041
3027,50528;2,48617
3025,45412;2,49469
3023,40297;2,49993
3021,35181;2,49956
3019,30066;2,49421
3017,2495;2,48742
3015,19835;2,48491
3013,14719;2,48856
3011,09604;2,49772
3009,04488;2,50938
3006,99373;2,51809
3004,94257;2,52444
3002,89142;2,53226
3000,84026;2,54084
2998,7891;2,54981
2996,73795;2,56058
2994,68679;2,5741
2992,63564;2,59143
2990,58448;2,60913
2988,53333;2,62256
2986,48217;2,62966
2984,43102;2,62836
2982,37986;2,62163
2980,32871;2,61717
2978,27755;2,61853
2976,2264;2,6224
2974,17524;2,62436
2972,12409;2,61943
2970,07293;2,60943
2968,02177;2,60455
2965,97062;2,60657
2963,91946;2,61069
2961,86831;2,61149
2959,81715;2,60756
2957,766;2,60506
2955,71484;2,60516
2953,66369;2,60266
2951,61253;2,59907
2949,56138;2,60019
2947,51022;2,60044
2945,45907;2,59412
2943,40791;2,58979
2941,35675;2,58945
2939,3056;2,58894
2937,25444;2,58977
2935,20329;2,59103
2933,15213;2,59112
2931,10098;2,59268
2929,04982;2,5959
2926,99867;2,59454
2924,94751;2,58772
2922,89636;2,58115
2920,8452;2,58136
2918,79405;2,58936
2916,74289;2,59412
2914,69174;2,58923
2912,64058;2,58248
2910,58942;2,57745
2908,53827;2,57222
2906,48711;2,56995
2904,43596;2,56992
2902,3848;2,56929
2900,33365;2,57552
2898,28249;2,5891
2896,23134;2,59743
2894,18018;2,59657
2892,12903;2,59696
2890,07787;2,60333
2888,02672;2,60851
2885,97556;2,61391
2883,92441;2,62498
2881,87325;2,63575
2879,82209;2,64257
2877,77094;2,64884
2875,71978;2,65407
2873,66863;2,65376
2871,61747;2,65007
2869,56632;2,64513
2867,51516;2,63421
2865,46401;2,62231
2863,41285;2,61733
2861,3617;2,61417
2859,31054;2,60627
2857,25939;2,59743
2855,20823;2,59156
2853,15708;2,58575
2851,10592;2,57852
2849,05476;2,56981
2847,00361;2,55652
2844,95245;2,5415
2842,9013;2,52827
2840,85014;2,51097
2838,79899;2,49157
2836,74783;2,47661
2834,69668;2,46278
2832,64552;2,4478
2830,59437;2,43406
2828,54321;2,42322
2826,49206;2,41338
2824,4409;2,40121
2822,38975;2,38704
2820,33859;2,37412
2818,28743;2,36489
2816,23628;2,35823
2814,18512;2,35161
2812,13397;2,34567
2810,08281;2,34252
2808,03166;2,34193
2805,9805;2,34174
2803,92935;2,33916
2801,87819;2,33383
2799,82704;2,32908
2797,77588;2,32556
2795,72473;2,31986
2793,67357;2,31206
2791,62242;2,30557
2789,57126;2,30078
2787,5201;2,29474
2785,46895;2,28652
2783,41779;2,27818
2781,36664;2,27226
2779,31548;2,26941
2777,26433;2,26776
2775,21317;2,26522
2773,16202;2,26132
2771,11086;2,25752
2769,05971;2,25414
2767,00855;2,25035
2764,9574;2,24815
2762,90624;2,24887
2760,85509;2,24909
2758,80393;2,24644
2756,75277;2,24371
2754,70162;2,24372
2752,65046;2,24385
2750,59931;2,24159
2748,54815;2,23967
2746,497;2,23931
2744,44584;2,23892
2742,39469;2,23748
2740,34353;2,2348
2738,29238;2,23189
2736,24122;2,23038
2734,19007;2,23037
2732,13891;2,22976
2730,08776;2,22766
2728,0366;2,22535
2725,98544;2,22396
2723,93429;2,22394
2721,88313;2,22422
2719,83198;2,22307
2717,78082;2,22222
2715,72967;2,22366
2713,67851;2,2242
2711,62736;2,22207
2709,5762;2,22046
2707,52505;2,21987
2705,47389;2,21833
2703,42274;2,21711
2701,37158;2,21578
2699,32043;2,21217
2697,26927;2,21068
2695,21811;2,21384
2693,16696;2,21614
2691,1158;2,21591
2689,06465;2,21632
2687,01349;2,21667
2684,96234;2,21497
2682,91118;2,214
2680,86003;2,21531
2678,80887;2,21661
2676,75772;2,21882
2674,70656;2,22274
2672,65541;2,22556
2670,60425;2,22648
2668,55309;2,22719
2666,50194;2,22829
2664,45078;2,23009
2662,39963;2,23238
2660,34847;2,23377
2658,29732;2,23461
2656,24616;2,23657
2654,19501;2,24078
2652,14385;2,24618
2650,0927;2,25104
2648,04154;2,25523
2645,99039;2,25973
2643,93923;2,26641
2641,88808;2,27483
2639,83692;2,28403
2637,78576;2,29615
2635,73461;2,3126
2633,68345;2,33165
2631,6323;2,35067
2629,58114;2,36776
2627,52999;2,38185
2625,47883;2,39538
2623,42768;2,40961
2621,37652;2,4207
2619,32537;2,42852
2617,27421;2,43562
2615,22306;2,44373
2613,1719;2,45622
2611,12075;2,47227
2609,06959;2,48592
2607,01843;2,49368
2604,96728;2,49653
2602,91612;2,49912
2600,86497;2,50436
2598,81381;2,50921
2596,76266;2,51436
2594,7115;2,52082
2592,66035;2,52565
2590,60919;2,5289
2588,55804;2,53299
2586,50688;2,53797
2584,45573;2,53989
2582,40457;2,53937
2580,35342;2,53938
2578,30226;2,53917
2576,2511;2,53863
2574,19995;2,5397
2572,14879;2,54384
2570,09764;2,54711
2568,04648;2,54703
2565,99533;2,54906
2563,94417;2,55654
2561,89302;2,56389
2559,84186;2,56579
2557,79071;2,5651
2555,73955;2,56644
2553,6884;2,56901
2551,63724;2,57211
2549,58609;2,57849
2547,53493;2,58734
2545,48377;2,59481
2543,43262;2,5999
2541,38146;2,60699
2539,33031;2,62
2537,27915;2,63692
2535,228;2,65351
2533,17684;2,66809
2531,12569;2,68415
2529,07453;2,70394
2527,02338;2,72615
2524,97222;2,74834
2522,92107;2,76424
2520,86991;2,76792
2518,81876;2,76396
2516,7676;2,76395
2514,71644;2,76964
2512,66529;2,77335
2510,61413;2,76775
2508,56298;2,75376
2506,51182;2,73723
2504,46067;2,72007
2502,40951;2,70386
2500,35836;2,68777
2498,3072;2,66841
2496,25605;2,64484
2494,20489;2,61945
2492,15374;2,59668
2490,10258;2,57805
2488,05143;2,55901
2486,00027;2,53596
2483,94911;2,51235
2481,89796;2,49062
2479,8468;2,4697
2477,79565;2,44955
2475,74449;2,42945
2473,69334;2,40886
2471,64218;2,38841
2469,59103;2,36842
2467,53987;2,35032
2465,48872;2,33711
2463,43756;2,32841
2461,38641;2,31938
2459,33525;2,30868
2457,2841;2,29808
2455,23294;2,28763
2453,18178;2,27884
2451,13063;2,27142
2449,07947;2,26387
2447,02832;2,2577
2444,97716;2,25177
2442,92601;2,24506
2440,87485;2,23982
2438,8237;2,236
2436,77254;2,23258
2434,72139;2,22794
2432,67023;2,22066
2430,61908;2,21372
2428,56792;2,20947
2426,51677;2,20601
2424,46561;2,20136
2422,41445;2,1964
2420,3633;2,19359
2418,31214;2,19294
2416,26099;2,19028
2414,20983;2,1837
2412,15868;2,17867
2410,10752;2,17819
2408,05637;2,17767
2406,00521;2,17492
2403,95406;2,1719
2401,9029;2,16909
2399,85175;2,16695
2397,80059;2,16553
2395,74944;2,16436
2393,69828;2,16314
2391,64712;2,16161
2389,59597;2,16012
2387,54481;2,15935
2385,49366;2,15914
2383,4425;2,15905
2381,39135;2,15869
2379,34019;2,15814
2377,28904;2,15845
2375,23788;2,16036
2373,18673;2,1628
2371,13557;2,1636
2369,08442;2,16304
2367,03326;2,16362
2364,9821;2,16389
2362,93095;2,16157
2360,87979;2,15946
2358,82864;2,15852
2356,77748;2,15737
2354,72633;2,15744
2352,67517;2,15868
2350,62402;2,1605
2348,57286;2,16367
2346,52171;2,16618
2344,47055;2,1652
2342,4194;2,16315
2340,36824;2,16269
2338,31709;2,16118
2336,26593;2,15774
2334,21477;2,15495
2332,16362;2,15444
2330,11246;2,15628
2328,06131;2,15908
2326,01015;2,16122
2323,959;2,16185
2321,90784;2,1609
2319,85669;2,15987
2317,80553;2,16049
2315,75438;2,16188
2313,70322;2,16123
2311,65207;2,15833
2309,60091;2,15607
2307,54976;2,15599
2305,4986;2,15707
2303,44744;2,15739
2301,39629;2,15634
2299,34513;2,15529
2297,29398;2,15471
2295,24282;2,15389
2293,19167;2,15327
2291,14051;2,15334
2289,08936;2,15325
2287,0382;2,1526
2284,98705;2,15217
2282,93589;2,15295
2280,88474;2,15492
2278,83358;2,15624
2276,78243;2,15585
2274,73127;2,15513
2272,68011;2,15545
2270,62896;2,15704
2268,5778;2,15959
2266,52665;2,16215
2264,47549;2,16409
2262,42434;2,1659
2260,37318;2,16822
2258,32203;2,17087
2256,27087;2,17271
2254,21972;2,1734
2252,16856;2,17441
2250,11741;2,17646
2248,06625;2,17893
2246,0151;2,18132
2243,96394;2,18376
2241,91278;2,18617
2239,86163;2,18927
2237,81047;2,1924
2235,75932;2,19472
2233,70816;2,19726
2231,65701;2,20092
2229,60585;2,20446
2227,5547;2,2067
2225,50354;2,20887
2223,45239;2,21139
2221,40123;2,21414
2219,35008;2,21717
2217,29892;2,21949
2215,24777;2,22123
2213,19661;2,22258
2211,14545;2,2229
2209,0943;2,22295
2207,04314;2,22441
2204,99199;2,22678
2202,94083;2,22748
2200,88968;2,22689
2198,83852;2,22757
2196,78737;2,22901
2194,73621;2,22968
2192,68506;2,23014
2190,6339;2,23147
2188,58275;2,23412
2186,53159;2,23691
2184,48044;2,23856
2182,42928;2,24019
2180,37812;2,24213
2178,32697;2,24386
2176,27581;2,24568
2174,22466;2,24728
2172,1735;2,24894
2170,12235;2,25232
2168,07119;2,25811
2166,02004;2,26433
2163,96888;2,27071
2161,91773;2,27916
2159,86657;2,28936
2157,81542;2,30065
2155,76426;2,31267
2153,71311;2,32378
2151,66195;2,33334
2149,61079;2,34274
2147,55964;2,3521
2145,50848;2,35862
2143,45733;2,36009
2141,40617;2,35919
2139,35502;2,35908
2137,30386;2,35819
2135,25271;2,35469
2133,20155;2,34967
2131,1504;2,34384
2129,09924;2,33643
2127,04809;2,32693
2124,99693;2,31548
2122,94578;2,30301
2120,89462;2,29004
2118,84346;2,27741
2116,79231;2,26814
2114,74115;2,26296
2112,69;2,25954
2110,63884;2,25599
2108,58769;2,25159
2106,53653;2,24783
2104,48538;2,24558
2102,43422;2,24415
2100,38307;2,24286
2098,33191;2,24094
2096,28076;2,23944
2094,2296;2,23979
2092,17844;2,2416
2090,12729;2,24273
2088,07613;2,24261
2086,02498;2,24294
2083,97382;2,24341
2081,92267;2,24342
2079,87151;2,24404
2077,82036;2,24576
2075,7692;2,24845
2073,71805;2,25053
2071,66689;2,25108
2069,61574;2,25317
2067,56458;2,25737
2065,51343;2,25946
2063,46227;2,25951
2061,41111;2,26029
2059,35996;2,26096
2057,3088;2,26103
2055,25765;2,26214
2053,20649;2,2649
2051,15534;2,26751
2049,10418;2,26826
2047,05303;2,26925
2045,00187;2,27272
2042,95072;2,27596
2040,89956;2,27654
2038,84841;2,27635
2036,79725;2,27719
2034,7461;2,2793
2032,69494;2,28149
2030,64378;2,28327
2028,59263;2,28553
2026,54147;2,2871
2024,49032;2,2872
2022,43916;2,28789
2020,38801;2,28979
2018,33685;2,29098
2016,2857;2,2913
2014,23454;2,29236
2012,18339;2,29365
2010,13223;2,29375
2008,08108;2,29409
2006,02992;2,29592
2003,97877;2,29829
2001,92761;2,30128
1999,87645;2,30434
1997,8253;2,30588
1995,77414;2,30722
1993,72299;2,30981
1991,67183;2,31211
1989,62068;2,31328
1987,56952;2,31441
1985,51837;2,31598
1983,46721;2,31778
1981,41606;2,31917
1979,3649;2,31952
1977,31375;2,31933
1975,26259;2,32077
1973,21144;2,32484
1971,16028;2,32925
1969,10912;2,3336
1967,05797;2,34081
1965,00681;2,35355
1962,95566;2,3691
1960,9045;2,37811
1958,85335;2,37571
1956,80219;2,36659
1954,75104;2,35704
1952,69988;2,35119
1950,64873;2,34953
1948,59757;2,34951
1946,54642;2,34925
1944,49526;2,34932
1942,44411;2,35112
1940,39295;2,35513
1938,34179;2,36022
1936,29064;2,36452
1934,23948;2,36716
1932,18833;2,36956
1930,13717;2,37259
1928,08602;2,375
1926,03486;2,37823
1923,98371;2,38288
1921,93255;2,38409
1919,8814;2,38137
1917,83024;2,38088
1915,77909;2,3853
1913,72793;2,3908
1911,67678;2,39368
1909,62562;2,39461
1907,57446;2,39797
1905,52331;2,40458
1903,47215;2,4093
1901,421;2,41047
1899,36984;2,41208
1897,31869;2,41521
1895,26753;2,41818
1893,21638;2,42236
1891,16522;2,42888
1889,11407;2,4346
1887,06291;2,43705
1885,01176;2,43861
1882,9606;2,44327
1880,90945;2,45097
1878,85829;2,45749
1876,80713;2,46045
1874,75598;2,46228
1872,70482;2,46581
1870,65367;2,47221
1868,60251;2,48206
1866,55136;2,49233
1864,5002;2,49939
1862,44905;2,50427
1860,39789;2,50937
1858,34674;2,51467
1856,29558;2,52053
1854,24443;2,52924
1852,19327;2,54003
1850,14212;2,54988
1848,09096;2,55884
1846,0398;2,56865
1843,98865;2,58043
1841,93749;2,59367
1839,88634;2,60587
1837,83518;2,61658
1835,78403;2,62698
1833,73287;2,63708
1831,68172;2,648
1829,63056;2,66247
1827,57941;2,67957
1825,52825;2,6957
1823,4771;2,71086
1821,42594;2,72955
1819,37478;2,75476
1817,32363;2,78117
1815,27247;2,80228
1813,22132;2,82105
1811,17016;2,8465
1809,11901;2,88449
1807,06785;2,93352
1805,0167;2,98488
1802,96554;3,02601
1800,91439;3,0506
1798,86323;3,06405
1796,81208;3,0752
1794,76092;3,08253
1792,70977;3,06688
1790,65861;3,02301
1788,60745;2,98542
1786,5563;2,96988
1784,50514;2,95607
1782,45399;2,92965
1780,40283;2,90255
1778,35168;2,88656
1776,30052;2,87904
1774,24937;2,87599
1772,19821;2,87525
1770,14706;2,87277
1768,0959;2,86655
1766,04475;2,86174
1763,99359;2,86561
1761,94244;2,8777
1759,89128;2,88872
1757,84012;2,89464
1755,78897;2,90248
1753,73781;2,91256
1751,68666;2,91927
1749,6355;2,92556
1747,58435;2,93552
1745,53319;2,94425
1743,48204;2,95151
1741,43088;2,96243
1739,37973;2,97021
1737,32857;2,96876
1735,27742;2,96373
1733,22626;2,96279
1731,17511;2,97141
1729,12395;2,9836
1727,07279;2,99052
1725,02164;2,99025
1722,97048;2,9885
1720,91933;2,99143
1718,86817;2,99797
1716,81702;3,00479
1714,76586;3,01193
1712,71471;3,01543
1710,66355;3,00963
1708,6124;2,99731
1706,56124;2,99023
1704,51009;2,99945
1702,45893;3,01694
1700,40778;3,02786
1698,35662;3,03266
1696,30546;3,04096
1694,25431;3,05671
1692,20315;3,06962
1690,152;3,07439
1688,10084;3,07578
1686,04969;3,07477
1683,99853;3,07538
1681,94738;3,08843
1679,89622;3,10897
1677,84507;3,12435
1675,79391;3,14045
1673,74276;3,16533
1671,6916;3,18565
1669,64045;3,19517
1667,58929;3,19302
1665,53813;3,17985
1663,48698;3,1749
1661,43582;3,19383
1659,38467;3,22196
1657,33351;3,22797
1655,28236;3,19773
1653,2312;3,17299
1651,18005;3,20116
1649,12889;3,23851
1647,07774;3,24213
1645,02658;3,22381
1642,97543;3,21665
1640,92427;3,23046
1638,87312;3,25362
1636,82196;3,27188
1634,7708;3,27995
1632,71965;3,27653
1630,66849;3,26386
1628,61734;3,25272
1626,56618;3,25868
1624,51503;3,27977
1622,46387;3,29461
1620,41272;3,28261
1618,36156;3,24945
1616,31041;3,2293
1614,25925;3,23722
1612,2081;3,24729
1610,15694;3,24752
1608,10579;3,2451
1606,05463;3,23765
1604,00347;3,22532
1601,95232;3,21307
1599,90116;3,19916
1597,85001;3,18784
1595,79885;3,18353
1593,7477;3,17682
1591,69654;3,15908
1589,64539;3,14409
1587,59423;3,14496
1585,54308;3,14151
1583,49192;3,11199
1581,44077;3,07025
1579,38961;3,03076
1577,33846;2,9825
1575,2873;2,92822
1573,23614;2,89575
1571,18499;2,88004
1569,13383;2,85396
1567,08268;2,81078
1565,03152;2,76568
1562,98037;2,73014
1560,92921;2,69369
1558,87806;2,64479
1556,8269;2,6052
1554,77575;2,57788
1552,72459;2,54859
1550,67344;2,5192
1548,62228;2,49598
1546,57113;2,47795
1544,51997;2,45957
1542,46881;2,43777
1540,41766;2,41447
1538,3665;2,40064
1536,31535;2,39522
1534,26419;2,3865
1532,21304;2,37692
1530,16188;2,37148
1528,11073;2,36558
1526,05957;2,35806
1524,00842;2,35015
1521,95726;2,34021
1519,90611;2,33211
1517,85495;2,3288
1515,80379;2,3286
1513,75264;2,32936
1511,70148;2,3278
1509,65033;2,32199
1507,59917;2,31298
1505,54802;2,30734
1503,49686;2,30766
1501,44571;2,30879
1499,39455;2,30824
1497,3434;2,30527
1495,29224;2,30088
1493,24109;2,29811
1491,18993;2,29755
1489,13878;2,29842
1487,08762;2,29762
1485,03646;2,29337
1482,98531;2,28849
1480,93415;2,28619
1478,883;2,28555
1476,83184;2,28442
1474,78069;2,28383
1472,72953;2,28307
1470,67838;2,28019
1468,62722;2,27602
1466,57607;2,27087
1464,52491;2,26601
1462,47376;2,26375
1460,4226;2,26194
1458,37145;2,25665
1456,32029;2,25016
1454,26913;2,24809
1452,21798;2,24782
1450,16682;2,2447
1448,11567;2,23819
1446,06451;2,23139
1444,01336;2,22623
1441,9622;2,22278
1439,91105;2,21988
1437,85989;2,21389
1435,80874;2,20551
1433,75758;2,19871
1431,70643;2,19027
1429,65527;2,1776
1427,60412;2,16415
1425,55296;2,15243
1423,5018;2,14159
1421,45065;2,1284
1419,39949;2,1095
1417,34834;2,08919
1415,29718;2,07214
1413,24603;2,05516
1411,19487;2,03722
1409,14372;2,02407
1407,09256;2,02186
1405,04141;2,03168
1402,99025;2,0487
1400,9391;2,06542
1398,88794;2,07992
1396,83679;2,09533
1394,78563;2,11343
1392,73447;2,13312
1390,68332;2,15198
1388,63216;2,17049
1386,58101;2,19108
1384,52985;2,21227
1382,4787;2,23068
1380,42754;2,24667
1378,37639;2,26233
1376,32523;2,27889
1374,27408;2,29553
1372,22292;2,30908
1370,17177;2,31864
1368,12061;2,32767
1366,06946;2,33749
1364,0183;2,34602
1361,96714;2,35286
1359,91599;2,3589
1357,86483;2,36383
1355,81368;2,36813
1353,76252;2,37322
1351,71137;2,37947
1349,66021;2,38633
1347,60906;2,39287
1345,5579;2,3982
1343,50675;2,40247
1341,45559;2,40616
1339,40444;2,40941
1337,35328;2,41224
1335,30213;2,41497
1333,25097;2,418
1331,19981;2,42099
1329,14866;2,42436
1327,0975;2,4289
1325,04635;2,43276
1322,99519;2,43455
1320,94404;2,43685
1318,89288;2,4414
1316,84173;2,44651
1314,79057;2,45081
1312,73942;2,45517
1310,68826;2,45996
1308,63711;2,46231
1306,58595;2,46091
1304,5348;2,45842
1302,48364;2,45716
1300,43248;2,45739
1298,38133;2,45834
1296,33017;2,45878
1294,27902;2,45751
1292,22786;2,45652
1290,17671;2,45867
1288,12555;2,46215
1286,0744;2,4647
1284,02324;2,46704
1281,97209;2,47109
1279,92093;2,47559
1277,86978;2,47748
1275,81862;2,47905
1273,76747;2,48188
1271,71631;2,48324
1269,66515;2,48395
1267,614;2,48692
1265,56284;2,49026
1263,51169;2,49074
1261,46053;2,48999
1259,40938;2,49152
1257,35822;2,49533
1255,30707;2,49853
1253,25591;2,49992
1251,20476;2,50255
1249,1536;2,50677
1247,10245;2,50882
1245,05129;2,51059
1243,00013;2,51485
1240,94898;2,52094
1238,89782;2,52635
1236,84667;2,5268
1234,79551;2,52514
1232,74436;2,52697
1230,6932;2,52981
1228,64205;2,53151
1226,59089;2,53661
1224,53974;2,543
1222,48858;2,54325
1220,43743;2,53927
1218,38627;2,53757
1216,33512;2,54114
1214,28396;2,54849
1212,2328;2,55386
1210,18165;2,55567
1208,13049;2,56029
1206,07934;2,56834
1204,02818;2,57296
1201,97703;2,57368
1199,92587;2,57567
1197,87472;2,57998
1195,82356;2,58319
1193,77241;2,58685
1191,72125;2,59493
1189,6701;2,60469
1187,61894;2,60973
1185,56779;2,61147
1183,51663;2,61459
1181,46547;2,62094
1179,41432;2,62804
1177,36316;2,6291
1175,31201;2,62518
1173,26085;2,62363
1171,2097;2,62839
1169,15854;2,63592
1167,10739;2,63757
1165,05623;2,63659
1163,00508;2,64023
1160,95392;2,64329
1158,90277;2,63906
1156,85161;2,63158
1154,80046;2,63058
1152,7493;2,63554
1150,69814;2,6396
1148,64699;2,64378
1146,59583;2,6484
1144,54468;2,64767
1142,49352;2,64379
1140,44237;2,64443
1138,39121;2,6485
1136,34006;2,65193
1134,2889;2,65323
1132,23775;2,65068
1130,18659;2,64782
1128,13544;2,65074
1126,08428;2,65587
1124,03313;2,65859
1121,98197;2,66194
1119,93081;2,66482
1117,87966;2,66657
1115,8285;2,67181
1113,77735;2,6766
1111,72619;2,67474
1109,67504;2,67214
1107,62388;2,67274
1105,57273;2,67532
1103,52157;2,67873
1101,47042;2,68466
1099,41926;2,69482
1097,36811;2,70332
1095,31695;2,70086
1093,2658;2,68993
1091,21464;2,68309
1089,16348;2,68379
1087,11233;2,69212
1085,06117;2,70656
1083,01002;2,70896
1080,95886;2,69674
1078,90771;2,69128
1076,85655;2,69863
1074,8054;2,70588
1072,75424;2,70565
1070,70309;2,69968
1068,65193;2,68997
1066,60078;2,68384
1064,54962;2,68447
1062,49847;2,68741
1060,44731;2,69256
1058,39615;2,69861
1056,345;2,70105
1054,29384;2,70341
1052,24269;2,71521
1050,19153;2,73064
1048,14038;2,73545
1046,08922;2,73166
1044,03807;2,72816
1041,98691;2,72965
1039,93576;2,73165
1037,8846;2,72398
1035,83345;2,71336
1033,78229;2,71454
1031,73114;2,72404
1029,67998;2,73141
1027,62882;2,73616
1025,57767;2,73594
1023,52651;2,72969
1021,47536;2,72317
1019,4242;2,7199
1017,37305;2,72024
1015,32189;2,72053
1013,27074;2,71847
1011,21958;2,71442
1009,16843;2,71096
1007,11727;2,71539
1005,06612;2,72182
1003,01496;2,71976
1000,96381;2,7157
998,91265;2,71662
996,86149;2,711
994,81034;2,69425
992,75918;2,68432
990,70803;2,68865
988,65687;2,69602
986,60572;2,69579
984,55456;2,68932
982,50341;2,68168
980,45225;2,67446
978,4011;2,66807
976,34994;2,66152
974,29879;2,65645
972,24763;2,654
970,19647;2,65042
968,14532;2,64446
966,09416;2,64187
964,04301;2,64679
961,99185;2,65438
959,9407;2,65499
957,88954;2,64788
955,83839;2,64334
953,78723;2,64524
951,73608;2,65011
949,68492;2,65968
947,63377;2,67156
945,58261;2,67483
943,53146;2,67432
941,4803;2,6795
939,42914;2,68205
937,37799;2,67605
935,32683;2,6742
933,27568;2,67943
931,22452;2,68078
929,17337;2,68036
927,12221;2,67973
925,07106;2,67649
923,0199;2,67551
920,96875;2,67814
918,91759;2,68342
916,86644;2,68655
914,81528;2,68676
912,76413;2,68989
910,71297;2,69402
908,66181;2,69232
906,61066;2,68783
904,5595;2,69035
902,50835;2,69824
900,45719;2,69837
898,40604;2,69098
896,35488;2,68975
894,30373;2,68954
892,25257;2,67034
890,20142;2,64066
888,15026;2,63396
886,09911;2,67129
884,04795;2,72514
881,9968;2,71985
879,94564;2,63738
877,89448;2,531
875,84333;2,42564
873,79217;2,33229
871,74102;2,28507
869,68986;2,31103
867,63871;2,38866
865,58755;2,46292
863,5364;2,51027
861,48524;2,53888
859,43409;2,55428
857,38293;2,56315
855,33178;2,57209
853,28062;2,58862
851,22947;2,61744
849,17831;2,64258
847,12715;2,63639
845,076;2,60577
843,02484;2,58404
840,97369;2,58548
838,92253;2,59568
836,87138;2,60012
834,82022;2,60125
832,76907;2,60082
830,71791;2,59824
828,66676;2,59845
826,6156;2,60484
824,56445;2,6101
822,51329;2,60904
820,46214;2,60582
818,41098;2,60762
816,35982;2,62097
814,30867;2,63764
812,25751;2,64858
810,20636;2,66034
808,1552;2,66754
806,10405;2,66281
804,05289;2,66008
802,00174;2,66755
799,95058;2,67239
797,89943;2,66483
795,84827;2,65983
793,79712;2,67061
791,74596;2,68912
789,69481;2,7002
787,64365;2,70495
785,59249;2,70623
783,54134;2,70001
781,49018;2,69814
779,43903;2,70358
777,38787;2,70381
775,33672;2,69592
773,28556;2,68561
771,23441;2,68404
769,18325;2,68904
767,1321;2,68807
765,08094;2,68058
763,02979;2,67482
760,97863;2,67663
758,92748;2,67918
756,87632;2,68285
754,82516;2,69508
752,77401;2,70416
750,72285;2,69994
748,6717;2,69156
746,62054;2,6921
744,56939;2,7088
742,51823;2,73165
740,46708;2,74306
738,41592;2,74164
736,36477;2,7393
734,31361;2,75639
732,26246;2,78977
730,2113;2,80663
728,16015;2,80398
726,10899;2,81623
724,05783;2,85193
722,00668;2,90061
719,95552;2,94968
717,90437;2,97019
715,85321;2,93796
713,80206;2,87042
711,7509;2,80779
709,69975;2,77691
707,64859;2,77147
705,59744;2,76924
703,54628;2,76093
701,49513;2,75212
699,44397;2,74378
697,39281;2,72985
695,34166;2,70986
693,2905;2,69453
691,23935;2,6982
689,18819;2,71653
687,13704;2,72911
685,08588;2,73616
683,03473;2,74811
680,98357;2,75592
678,93242;2,74925
676,88126;2,73552
674,83011;2,73123
672,77895;2,74018
670,7278;2,75083
668,67664;2,76189
666,62548;2,77705
664,57433;2,78749
662,52317;2,78602
660,47202;2,7756
658,42086;2,76344
656,36971;2,7707
654,31855;2,80492
652,2674;2,8339
650,21624;2,83493
648,16509;2,82013
646,11393;2,80858
644,06278;2,81969
642,01162;2,84573
639,96047;2,85489
637,90931;2,84203
635,85815;2,83201
633,807;2,83859
631,75584;2,85259
629,70469;2,85931
627,65353;2,85446
625,60238;2,84674
623,55122;2,83438
621,50007;2,82779
619,44891;2,83776
617,39776;2,85069
615,3466;2,85604
613,29545;2,85945
611,24429;2,8511
609,19314;2,83524
607,14198;2,85503
605,09082;2,90845
603,03967;2,92174
600,98851;2,88391
598,93736;2,86621
596,8862;2,88767
594,83505;2,8957
592,78389;2,8867
590,73274;2,90496
588,68158;2,93472
586,63043;2,91691
584,57927;2,88023
582,52812;2,87383
580,47696;2,87573
578,42581;2,84349
576,37465;2,8057
574,32349;2,83599
572,27234;2,9044
570,22118;2,92884
568,17003;2,93958
566,11887;2,95667
564,06772;2,93948
562,01656;2,92167
559,96541;2,92364
557,91425;2,90815
555,8631;2,89243
553,81194;2,90395
551,76079;2,92751
549,70963;2,92826
547,65848;2,90367
545,60732;2,89881
543,55616;2,94644
541,50501;2,96408
539,45385;2,9145
537,4027;2,87798
535,35154;2,90873
533,30039;2,9747
531,24923;2,9703
529,19808;2,89811
527,14692;2,89344
525,09577;2,95733
523,04461;3,00143
520,99346;3,02612
518,9423;3,04887
516,89115;3,04573
514,83999;3,02183
512,78883;3,01051
510,73768;3,01589
508,68652;3,0447
506,63537;3,0793
504,58421;3,06862
502,53306;3,08883
500,4819;3,20402
498,43075;3,26371
496,37959;3,12072
494,32844;2,98725
492,27728;3,04603
490,22613;3,24702
488,17497;3,33148
486,12382;3,20168
484,07266;3,11124
482,0215;2,98368
479,97035;2,94152
477,91919;3,01472
475,86804;3,09991
473,81688;3,07447
471,76573;3,01448
469,71457;3,0359
467,66342;3,12752
465,61226;3,17814
463,56111;3,0697
461,50995;2,95942
459,4588;2,9299
457,40764;2,93593
455,35649;2,94783
453,30533;2,98057
451,25417;3,00764
449,20302;2,97094
447,15186;2,91206
445,10071;2,88262
443,04955;2,8854
440,9984;2,89557
438,94724;2,91334
436,89609;2,9521
434,84493;3,01503
432,79378;3,09844
430,74262;3,17832
428,69147;3,09536
426,64031;3,03468
424,58916;3,03722
422,538;3,03942
420,48684;2,93673
418,43569;2,82097
416,38453;2,83547
414,33338;2,93264
412,28222;3,04327
410,23107;3,08182
408,17991;2,99902
406,12876;2,96371
404,0776;2,9347
402,02645;2,88035
399,97529;2,83152
