3997,70175;1,89651
3995,6506;1,89742
3993,59944;1,89965
3991,54829;1,90181
3989,49713;1,9027
3987,44598;1,90237
3985,39482;1,90168
3983,34367;1,90164
3981,29251;1,90264
3979,24136;1,90543
3977,1902;1,90957
3975,13905;1,91221
3973,08789;1,91224
3971,03673;1,91213
3968,98558;1,9133
3966,93442;1,91563
3964,88327;1,91825
3962,83211;1,91979
3960,78096;1,92134
3958,7298;1,92351
3956,67865;1,92582
3954,62749;1,92886
3952,57634;1,9316
3950,52518;1,93256
3948,47403;1,93286
3946,42287;1,93364
3944,37172;1,93217
3942,32056;1,92855
3940,2694;1,92637
3938,21825;1,92582
3936,16709;1,92566
3934,11594;1,92357
3932,06478;1,91876
3930,01363;1,91364
3927,96247;1,90982
3925,91132;1,90622
3923,86016;1,90306
3921,80901;1,9003
3919,75785;1,89674
3917,7067;1,89264
3915,65554;1,88846
3913,60439;1,88385
3911,55323;1,87927
3909,50207;1,87727
3907,45092;1,87733
3905,39976;1,87621
3903,34861;1,87401
3901,29745;1,87078
3899,2463;1,86607
3897,19514;1,86318
3895,14399;1,86143
3893,09283;1,85826
3891,04168;1,85683
3888,99052;1,85931
3886,93937;1,85907
3884,88821;1,85933
3882,83706;1,86126
3880,7859;1,85869
3878,73474;1,8577
3876,68359;1,8587
3874,63243;1,85866
3872,58128;1,85886
3870,53012;1,85574
3868,47897;1,85505
3866,42781;1,85602
3864,37666;1,854
3862,3255;1,85239
3860,27435;1,85235
3858,22319;1,85295
3856,17204;1,8493
3854,12088;1,84181
3852,06973;1,84205
3850,01857;1,84578
3847,96741;1,84535
3845,91626;1,8434
3843,8651;1,84295
3841,81395;1,84417
3839,76279;1,84314
3837,71164;1,84094
3835,66048;1,84151
3833,60933;1,84167
3831,55817;1,84144
3829,50702;1,84377
3827,45586;1,84586
3825,40471;1,84817
3823,35355;1,84882
3821,3024;1,84785
3819,25124;1,85143
3817,20008;1,85062
3815,14893;1,84759
3813,09777;1,84916
3811,04662;1,84979
3808,99546;1,84684
3806,94431;1,84468
3804,89315;1,84894
3802,842;1,85087
3800,79084;1,85188
3798,73969;1,85565
3796,68853;1,85578
3794,63738;1,85596
3792,58622;1,85676
3790,53506;1,85719
3788,48391;1,85915
3786,43275;1,86203
3784,3816;1,86517
3782,33044;1,86805
3780,27929;1,86784
3778,22813;1,86717
3776,17698;1,86853
3774,12582;1,87081
3772,07467;1,87269
3770,02351;1,87457
3767,97236;1,87794
3765,9212;1,87926
3763,87005;1,88063
3761,81889;1,88328
3759,76773;1,88635
3757,71658;1,89109
3755,66542;1,89624
3753,61427;1,89901
3751,56311;1,90126
3749,51196;1,90895
3747,4608;1,91765
3745,40965;1,91615
3743,35849;1,91615
3741,30734;1,92474
3739,25618;1,93279
3737,20503;1,93917
3735,15387;1,94482
3733,10272;1,94896
3731,05156;1,9536
3729,0004;1,95938
3726,94925;1,96301
3724,89809;1,96666
3722,84694;1,9713
3720,79578;1,97759
3718,74463;1,98647
3716,69347;1,99836
3714,64232;2,01104
3712,59116;2,02145
3710,54001;2,03134
3708,48885;2,04345
3706,4377;2,05921
3704,38654;2,08002
3702,33539;2,10786
3700,28423;2,14249
3698,23307;2,17511
3696,18192;2,19967
3694,13076;2,21774
3692,07961;2,22717
3690,02845;2,22477
3687,9773;2,21966
3685,92614;2,22344
3683,87499;2,23227
3681,82383;2,24538
3679,77268;2,26583
3677,72152;2,28858
3675,67037;2,30718
3673,61921;2,32694
3671,56806;2,34691
3669,5169;2,36861
3667,46574;2,38951
3665,41459;2,40379
3663,36343;2,41826
3661,31228;2,43696
3659,26112;2,45674
3657,20997;2,47544
3655,15881;2,49829
3653,10766;2,52204
3651,0565;2,54142
3649,00535;2,56674
3646,95419;2,59634
3644,90304;2,61362
3642,85188;2,61548
3640,80073;2,61328
3638,74957;2,61422
3636,69841;2,61961
3634,64726;2,63217
3632,5961;2,64855
3630,54495;2,65309
3628,49379;2,64805
3626,44264;2,65198
3624,39148;2,65988
3622,34033;2,66145
3620,28917;2,65595
3618,23802;2,65408
3616,18686;2,66043
3614,13571;2,67035
3612,08455;2,68092
3610,0334;2,6842
3607,98224;2,68102
3605,93108;2,68474
3603,87993;2,69813
3601,82877;2,70944
3599,77762;2,70996
3597,72646;2,70561
3595,67531;2,7026
3593,62415;2,70695
3591,573;2,72145
3589,52184;2,72775
3587,47069;2,71504
3585,41953;2,70477
3583,36838;2,70772
3581,31722;2,7152
3579,26607;2,72587
3577,21491;2,74072
3575,16375;2,75037
3573,1126;2,74454
3571,06144;2,72566
3569,01029;2,71021
3566,95913;2,71466
3564,90798;2,73553
3562,85682;2,75186
3560,80567;2,75294
3558,75451;2,74899
3556,70336;2,75036
3554,6522;2,75078
3552,60105;2,74482
3550,54989;2,74221
3548,49874;2,74842
3546,44758;2,75456
3544,39642;2,75184
3542,34527;2,74355
3540,29411;2,74001
3538,24296;2,74234
3536,1918;2,74328
3534,14065;2,74268
3532,08949;2,74642
3530,03834;2,75136
3527,98718;2,74898
3525,93603;2,74323
3523,88487;2,74342
3521,83372;2,74687
3519,78256;2,74309
3517,73141;2,73289
3515,68025;2,72827
3513,62909;2,73383
3511,57794;2,73779
3509,52678;2,72937
3507,47563;2,71808
3505,42447;2,71596
3503,37332;2,71901
3501,32216;2,71912
3499,27101;2,71922
3497,21985;2,72001
3495,1687;2,71815
3493,11754;2,71951
3491,06639;2,72559
3489,01523;2,72544
3486,96407;2,71694
3484,91292;2,70756
3482,86176;2,6993
3480,81061;2,69228
3478,75945;2,68997
3476,7083;2,69679
3474,65714;2,70347
3472,60599;2,69726
3470,55483;2,68797
3468,50368;2,68912
3466,45252;2,70025
3464,40137;2,70725
3462,35021;2,69604
3460,29906;2,68078
3458,2479;2,68215
3456,19674;2,69571
3454,14559;2,70464
3452,09443;2,70214
3450,04328;2,695
3447,99212;2,68817
3445,94097;2,68409
3443,88981;2,68353
3441,83866;2,68764
3439,7875;2,69269
3437,73635;2,68629
3435,68519;2,67618
3433,63404;2,67806
3431,58288;2,68431
3429,53173;2,68186
3427,48057;2,67319
3425,42941;2,66484
3423,37826;2,66285
3421,3271;2,67156
3419,27595;2,67765
3417,22479;2,66617
3415,17364;2,6495
3413,12248;2,64294
3411,07133;2,64544
3409,02017;2,65282
3406,96902;2,65271
3404,91786;2,64
3402,86671;2,63012
3400,81555;2,63018
3398,7644;2,63288
3396,71324;2,63421
3394,66208;2,63339
3392,61093;2,62952
3390,55977;2,62675
3388,50862;2,62813
3386,45746;2,63004
3384,40631;2,62954
3382,35515;2,63152
3380,304;2,63951
3378,25284;2,64537
3376,20169;2,64172
3374,15053;2,63242
3372,09938;2,62177
3370,04822;2,61298
3367,99707;2,61095
3365,94591;2,61511
3363,89475;2,61883
3361,8436;2,61737
3359,79244;2,61367
3357,74129;2,61103
3355,69013;2,60879
3353,63898;2,60776
3351,58782;2,60628
3349,53667;2,60045
3347,48551;2,59566
3345,43436;2,5961
3343,3832;2,59591
3341,33205;2,59374
3339,28089;2,5948
3337,22974;2,59701
3335,17858;2,59436
3333,12742;2,59101
3331,07627;2,59227
3329,02511;2,59356
3326,97396;2,59239
3324,9228;2,59096
3322,87165;2,59124
3320,82049;2,59533
3318,76934;2,59995
3316,71818;2,60022
3314,66703;2,60077
3312,61587;2,60284
3310,56472;2,59993
3308,51356;2,59527
3306,46241;2,59211
3304,41125;2,58672
3302,36009;2,58291
3300,30894;2,58493
3298,25778;2,58787
3296,20663;2,58551
3294,15547;2,57855
3292,10432;2,57437
3290,05316;2,57815
3288,00201;2,58341
3285,95085;2,5807
3283,8997;2,57301
3281,84854;2,57163
3279,79739;2,5771
3277,74623;2,58253
3275,69508;2,58708
3273,64392;2,58701
3271,59276;2,58057
3269,54161;2,57417
3267,49045;2,57066
3265,4393;2,56968
3263,38814;2,56799
3261,33699;2,56099
3259,28583;2,55322
3257,23468;2,55404
3255,18352;2,56193
3253,13237;2,56827
3251,08121;2,57018
3249,03006;2,56909
3246,9789;2,56507
3244,92775;2,56032
3242,87659;2,56021
3240,82543;2,5636
3238,77428;2,5655
3236,72312;2,56528
3234,67197;2,56198
3232,62081;2,55588
3230,56966;2,5498
3228,5185;2,54647
3226,46735;2,54832
3224,41619;2,55102
3222,36504;2,55026
3220,31388;2,54774
3218,26273;2,54442
3216,21157;2,54253
3214,16041;2,54516
3212,10926;2,54962
3210,0581;2,55346
3208,00695;2,5569
3205,95579;2,55454
3203,90464;2,54761
3201,85348;2,54375
3199,80233;2,54306
3197,75117;2,54429
3195,70002;2,5475
3193,64886;2,55148
3191,59771;2,5526
3189,54655;2,54815
3187,4954;2,54375
3185,44424;2,54479
3183,39308;2,54732
3181,34193;2,54611
3179,29077;2,54233
3177,23962;2,54183
3175,18846;2,54667
3173,13731;2,54968
3171,08615;2,54594
3169,035;2,54168
3166,98384;2,54
3164,93269;2,5366
3162,88153;2,53316
3160,83038;2,53411
3158,77922;2,53861
3156,72807;2,54501
3154,67691;2,54986
3152,62575;2,54745
3150,5746;2,54202
3148,52344;2,54088
3146,47229;2,54031
3144,42113;2,53943
3142,36998;2,54479
3140,31882;2,55132
3138,26767;2,5496
3136,21651;2,5455
3134,16536;2,54402
3132,1142;2,54182
3130,06305;2,53737
3128,01189;2,53171
3125,96074;2,5308
3123,90958;2,53507
3121,85842;2,53772
3119,80727;2,53911
3117,75611;2,54241
3115,70496;2,54354
3113,6538;2,54073
3111,60265;2,53971
3109,55149;2,5412
3107,50034;2,54228
3105,44918;2,54447
3103,39803;2,5456
3101,34687;2,5406
3099,29572;2,53425
3097,24456;2,53285
3095,19341;2,53509
3093,14225;2,5383
3091,09109;2,54136
3089,03994;2,54248
3086,98878;2,54138
3084,93763;2,53971
3082,88647;2,53712
3080,83532;2,53591
3078,78416;2,53984
3076,73301;2,54536
3074,68185;2,54835
3072,6307;2,55043
3070,57954;2,54958
3068,52839;2,54447
3066,47723;2,54064
3064,42608;2,54067
3062,37492;2,5396
3060,32376;2,53446
3058,27261;2,53132
3056,22145;2,53425
3054,1703;2,53849
3052,11914;2,53871
3050,06799;2,53506
3048,01683;2,53014
3045,96568;2,52697
3043,91452;2,53094
3041,86337;2,53847
3039,81221;2,5378
3037,76106;2,5324
3035,7099;2,53275
3033,65875;2,5374
3031,60759;2,54027
3029,55643;2,53904
3027,50528;2,53671
3025,45412;2,53546
3023,40297;2,53208
3021,35181;2,52734
3019,30066;2,52594
3017,2495;2,52765
3015,19835;2,52936
3013,14719;2,53218
3011,09604;2,53655
3009,04488;2,5376
3006,99373;2,53513
3004,94257;2,53535
3002,89142;2,53807
3000,84026;2,53953
2998,7891;2,54269
2996,73795;2,5483
2994,68679;2,54872
2992,63564;2,54479
2990,58448;2,54381
2988,53333;2,54648
2986,48217;2,54993
2984,43102;2,55402
2982,37986;2,55936
2980,32871;2,56018
2978,27755;2,55506
2976,2264;2,55169
2974,17524;2,55351
2972,12409;2,55747
2970,07293;2,55885
2968,02177;2,55909
2965,97062;2,5598
2963,91946;2,55917
2961,86831;2,56197
2959,81715;2,56639
2957,766;2,56404
2955,71484;2,56069
2953,66369;2,56283
2951,61253;2,5661
2949,56138;2,56776
2947,51022;2,56847
2945,45907;2,56698
2943,40791;2,56434
2941,35675;2,56427
2939,3056;2,56482
2937,25444;2,5633
2935,20329;2,56186
2933,15213;2,56391
2931,10098;2,56754
2929,04982;2,56434
2926,99867;2,55612
2924,94751;2,55196
2922,89636;2,55362
2920,8452;2,55932
2918,79405;2,5623
2916,74289;2,56026
2914,69174;2,55959
2912,64058;2,56042
2910,58942;2,56061
2908,53827;2,55894
2906,48711;2,55242
2904,43596;2,54651
2902,3848;2,54698
2900,33365;2,54653
2898,28249;2,54431
2896,23134;2,54949
2894,18018;2,55601
2892,12903;2,55542
2890,07787;2,55344
2888,02672;2,55361
2885,97556;2,55533
2883,92441;2,55791
2881,87325;2,5573
2879,82209;2,55399
2877,77094;2,5518
2875,71978;2,54915
2873,66863;2,54466
2871,61747;2,54167
2869,56632;2,54107
2867,51516;2,5399
2865,46401;2,53781
2863,41285;2,53778
2861,3617;2,53797
2859,31054;2,53663
2857,25939;2,53651
2855,20823;2,53528
2853,15708;2,53416
2851,10592;2,53346
2849,05476;2,53037
2847,00361;2,53096
2844,95245;2,53123
2842,9013;2,52449
2840,85014;2,51818
2838,79899;2,5135
2836,74783;2,5069
2834,69668;2,50289
2832,64552;2,50129
2830,59437;2,49718
2828,54321;2,49296
2826,49206;2,49082
2824,4409;2,48866
2822,38975;2,48544
2820,33859;2,48121
2818,28743;2,47788
2816,23628;2,47741
2814,18512;2,47706
2812,13397;2,47445
2810,08281;2,47249
2808,03166;2,47201
2805,9805;2,46899
2803,92935;2,4638
2801,87819;2,46244
2799,82704;2,46513
2797,77588;2,46575
2795,72473;2,46232
2793,67357;2,45897
2791,62242;2,4577
2789,57126;2,45596
2787,5201;2,45113
2785,46895;2,44355
2783,41779;2,43714
2781,36664;2,43507
2779,31548;2,43621
2777,26433;2,43594
2775,21317;2,43212
2773,16202;2,42869
2771,11086;2,42726
2769,05971;2,42646
2767,00855;2,4279
2764,9574;2,43024
2762,90624;2,4303
2760,85509;2,42944
2758,80393;2,42799
2756,75277;2,42417
2754,70162;2,41869
2752,65046;2,41571
2750,59931;2,41492
2748,54815;2,41175
2746,497;2,40987
2744,44584;2,41355
2742,39469;2,41748
2740,34353;2,41622
2738,29238;2,41213
2736,24122;2,40918
2734,19007;2,40784
2732,13891;2,40794
2730,08776;2,40785
2728,0366;2,40627
2725,98544;2,40461
2723,93429;2,40323
2721,88313;2,40246
2719,83198;2,40168
2717,78082;2,39908
2715,72967;2,39639
2713,67851;2,39596
2711,62736;2,39614
2709,5762;2,39487
2707,52505;2,39351
2705,47389;2,394
2703,42274;2,39439
2701,37158;2,3921
2699,32043;2,39077
2697,26927;2,39316
2695,21811;2,39446
2693,16696;2,39182
2691,1158;2,38737
2689,06465;2,38189
2687,01349;2,37585
2684,96234;2,37368
2682,91118;2,37732
2680,86003;2,38259
2678,80887;2,38529
2676,75772;2,38464
2674,70656;2,38226
2672,65541;2,37838
2670,60425;2,37505
2668,55309;2,37607
2666,50194;2,37854
2664,45078;2,37791
2662,39963;2,37647
2660,34847;2,37564
2658,29732;2,37482
2656,24616;2,37509
2654,19501;2,37356
2652,14385;2,36953
2650,0927;2,36841
2648,04154;2,37059
2645,99039;2,37228
2643,93923;2,37251
2641,88808;2,37309
2639,83692;2,37565
2637,78576;2,37973
2635,73461;2,38449
2633,68345;2,38874
2631,6323;2,39306
2629,58114;2,39766
2627,52999;2,40027
2625,47883;2,40327
2623,42768;2,40968
2621,37652;2,41675
2619,32537;2,42048
2617,27421;2,42064
2615,22306;2,42067
2613,1719;2,42165
2611,12075;2,42215
2609,06959;2,42395
2607,01843;2,42839
2604,96728;2,43286
2602,91612;2,43681
2600,86497;2,43881
2598,81381;2,43635
2596,76266;2,43582
2594,7115;2,44031
2592,66035;2,44265
2590,60919;2,44169
2588,55804;2,44185
2586,50688;2,44474
2584,45573;2,44791
2582,40457;2,44732
2580,35342;2,44595
2578,30226;2,44799
2576,2511;2,45082
2574,19995;2,4516
2572,14879;2,45055
2570,09764;2,44793
2568,04648;2,44622
2565,99533;2,4481
2563,94417;2,45241
2561,89302;2,45574
2559,84186;2,4542
2557,79071;2,45167
2555,73955;2,45362
2553,6884;2,45572
2551,63724;2,45705
2549,58609;2,46143
2547,53493;2,46734
2545,48377;2,47246
2543,43262;2,47515
2541,38146;2,47513
2539,33031;2,47489
2537,27915;2,47857
2535,228;2,48734
2533,17684;2,49626
2531,12569;2,50111
2529,07453;2,5052
2527,02338;2,5128
2524,97222;2,52112
2522,92107;2,5273
2520,86991;2,53081
2518,81876;2,53049
2516,7676;2,52677
2514,71644;2,52279
2512,66529;2,52299
2510,61413;2,52647
2508,56298;2,52727
2506,51182;2,52147
2504,46067;2,51304
2502,40951;2,50706
2500,35836;2,4993
2498,3072;2,48677
2496,25605;2,47428
2494,20489;2,46443
2492,15374;2,4558
2490,10258;2,4468
2488,05143;2,43681
2486,00027;2,42817
2483,94911;2,421
2481,89796;2,41314
2479,8468;2,40472
2477,79565;2,39436
2475,74449;2,38272
2473,69334;2,37254
2471,64218;2,36312
2469,59103;2,35421
2467,53987;2,34615
2465,48872;2,3398
2463,43756;2,33626
2461,38641;2,33236
2459,33525;2,32589
2457,2841;2,32057
2455,23294;2,31876
2453,18178;2,31591
2451,13063;2,30902
2449,07947;2,30104
2447,02832;2,29477
2444,97716;2,29192
2442,92601;2,29061
2440,87485;2,28689
2438,8237;2,28278
2436,77254;2,28154
2434,72139;2,27988
2432,67023;2,27581
2430,61908;2,27346
2428,56792;2,27242
2426,51677;2,26868
2424,46561;2,26367
2422,41445;2,26054
2420,3633;2,25924
2418,31214;2,25801
2416,26099;2,2562
2414,20983;2,25423
2412,15868;2,25239
2410,10752;2,25059
2408,05637;2,24791
2406,00521;2,24521
2403,95406;2,24334
2401,9029;2,24204
2399,85175;2,24163
2397,80059;2,24098
2395,74944;2,24015
2393,69828;2,24014
2391,64712;2,24018
2389,59597;2,23946
2387,54481;2,23848
2385,49366;2,23754
2383,4425;2,2365
2381,39135;2,23509
2379,34019;2,23339
2377,28904;2,23236
2375,23788;2,23401
2373,18673;2,23899
2371,13557;2,24462
2369,08442;2,24901
2367,03326;2,25214
2364,9821;2,25271
2362,93095;2,25021
2360,87979;2,24662
2358,82864;2,24384
2356,77748;2,24231
2354,72633;2,24255
2352,67517;2,24536
2350,62402;2,24889
2348,57286;2,25044
2346,52171;2,25084
2344,47055;2,25198
2342,4194;2,25236
2340,36824;2,24943
2338,31709;2,24548
2336,26593;2,244
2334,21477;2,24361
2332,16362;2,24356
2330,11246;2,2452
2328,06131;2,24672
2326,01015;2,24488
2323,959;2,24164
2321,90784;2,24205
2319,85669;2,24559
2317,80553;2,24809
2315,75438;2,24834
2313,70322;2,24779
2311,65207;2,24732
2309,60091;2,24663
2307,54976;2,24592
2305,4986;2,24571
2303,44744;2,24563
2301,39629;2,24567
2299,34513;2,24535
2297,29398;2,24334
2295,24282;2,24088
2293,19167;2,24058
2291,14051;2,2425
2289,08936;2,24451
2287,0382;2,24528
2284,98705;2,24549
2282,93589;2,24593
2280,88474;2,246
2278,83358;2,24563
2276,78243;2,24529
2274,73127;2,24533
2272,68011;2,24731
2270,62896;2,25118
2268,5778;2,25335
2266,52665;2,25366
2264,47549;2,25577
2262,42434;2,25913
2260,37318;2,26096
2258,32203;2,2613
2256,27087;2,26161
2254,21972;2,26307
2252,16856;2,26546
2250,11741;2,2674
2248,06625;2,26849
2246,0151;2,26915
2243,96394;2,26967
2241,91278;2,27038
2239,86163;2,27201
2237,81047;2,27402
2235,75932;2,27494
2233,70816;2,27659
2231,65701;2,28085
2229,60585;2,28508
2227,5547;2,28779
2225,50354;2,28927
2223,45239;2,28961
2221,40123;2,2898
2219,35008;2,28951
2217,29892;2,28974
2215,24777;2,29169
2213,19661;2,29516
2211,14545;2,29971
2209,0943;2,30256
2207,04314;2,30271
2204,99199;2,30177
2202,94083;2,30177
2200,88968;2,30401
2198,83852;2,30593
2196,78737;2,30528
2194,73621;2,30488
2192,68506;2,30764
2190,6339;2,31113
2188,58275;2,31286
2186,53159;2,31303
2184,48044;2,31336
2182,42928;2,31532
2180,37812;2,31705
2178,32697;2,31887
2176,27581;2,32284
2174,22466;2,32637
2172,1735;2,32795
2170,12235;2,3284
2168,07119;2,32818
2166,02004;2,32986
2163,96888;2,33466
2161,91773;2,34074
2159,86657;2,34581
2157,81542;2,34935
2155,76426;2,35396
2153,71311;2,3609
2151,66195;2,36682
2149,61079;2,36901
2147,55964;2,36992
2145,50848;2,37193
2143,45733;2,37443
2141,40617;2,37675
2139,35502;2,37734
2137,30386;2,37519
2135,25271;2,37284
2133,20155;2,37097
2131,1504;2,36783
2129,09924;2,36572
2127,04809;2,36389
2124,99693;2,35712
2122,94578;2,34931
2120,89462;2,34655
2118,84346;2,34551
2116,79231;2,3427
2114,74115;2,3383
2112,69;2,33424
2110,63884;2,33396
2108,58769;2,33637
2106,53653;2,336
2104,48538;2,33161
2102,43422;2,32675
2100,38307;2,32306
2098,33191;2,32249
2096,28076;2,32577
2094,2296;2,32805
2092,17844;2,32722
2090,12729;2,32685
2088,07613;2,32765
2086,02498;2,32713
2083,97382;2,32547
2081,92267;2,32523
2079,87151;2,32643
2077,82036;2,32787
2075,7692;2,32904
2073,71805;2,3284
2071,66689;2,32705
2069,61574;2,32724
2067,56458;2,32851
2065,51343;2,33001
2063,46227;2,33137
2061,41111;2,33199
2059,35996;2,33161
2057,3088;2,33073
2055,25765;2,33066
2053,20649;2,33235
2051,15534;2,33465
2049,10418;2,33561
2047,05303;2,33458
2045,00187;2,33375
2042,95072;2,33516
2040,89956;2,33726
2038,84841;2,33785
2036,79725;2,33705
2034,7461;2,33673
2032,69494;2,3374
2030,64378;2,33798
2028,59263;2,33808
2026,54147;2,33805
2024,49032;2,33845
2022,43916;2,33942
2020,38801;2,33956
2018,33685;2,33796
2016,2857;2,33748
2014,23454;2,33979
2012,18339;2,34223
2010,13223;2,34269
2008,08108;2,34243
2006,02992;2,34349
2003,97877;2,34434
2001,92761;2,34386
1999,87645;2,34278
1997,8253;2,34137
1995,77414;2,3422
1993,72299;2,34545
1991,67183;2,34727
1989,62068;2,34685
1987,56952;2,34671
1985,51837;2,34912
1983,46721;2,35278
1981,41606;2,35532
1979,3649;2,35531
1977,31375;2,35407
1975,26259;2,35334
1973,21144;2,3532
1971,16028;2,35521
1969,10912;2,36058
1967,05797;2,36713
1965,00681;2,37297
1962,95566;2,37833
1960,9045;2,38114
1958,85335;2,37728
1956,80219;2,36976
1954,75104;2,36592
1952,69988;2,36719
1950,64873;2,36904
1948,59757;2,3687
1946,54642;2,36926
1944,49526;2,37174
1942,44411;2,37234
1940,39295;2,37166
1938,34179;2,37058
1936,29064;2,36936
1934,23948;2,36953
1932,18833;2,37126
1930,13717;2,37291
1928,08602;2,37422
1926,03486;2,37508
1923,98371;2,37472
1921,93255;2,37701
1919,8814;2,38024
1917,83024;2,38193
1915,77909;2,38619
1913,72793;2,38995
1911,67678;2,39143
1909,62562;2,39102
1907,57446;2,38968
1905,52331;2,3906
1903,47215;2,3933
1901,421;2,3953
1899,36984;2,398
1897,31869;2,40119
1895,26753;2,40257
1893,21638;2,40468
1891,16522;2,40883
1889,11407;2,41359
1887,06291;2,41721
1885,01176;2,41672
1882,9606;2,41424
1880,90945;2,41482
1878,85829;2,41921
1876,80713;2,42356
1874,75598;2,4266
1872,70482;2,43038
1870,65367;2,43472
1868,60251;2,43954
1866,55136;2,4444
1864,5002;2,44593
1862,44905;2,44509
1860,39789;2,44598
1858,34674;2,44914
1856,29558;2,45203
1854,24443;2,45422
1852,19327;2,45807
1850,14212;2,46477
1848,09096;2,47232
1846,0398;2,4768
1843,98865;2,47922
1841,93749;2,48472
1839,88634;2,4882
1837,83518;2,48685
1835,78403;2,48707
1833,73287;2,49335
1831,68172;2,50175
1829,63056;2,50983
1827,57941;2,51978
1825,52825;2,52802
1823,4771;2,53261
1821,42594;2,53442
1819,37478;2,53676
1817,32363;2,54199
1815,27247;2,54819
1813,22132;2,55385
1811,17016;2,5606
1809,11901;2,57013
1807,06785;2,58272
1805,0167;2,59763
1802,96554;2,61048
1800,91439;2,61786
1798,86323;2,62211
1796,81208;2,62609
1794,76092;2,62786
1792,70977;2,62409
1790,65861;2,61905
1788,60745;2,61518
1786,5563;2,60931
1784,50514;2,60232
1782,45399;2,5959
1780,40283;2,58973
1778,35168;2,58578
1776,30052;2,58507
1774,24937;2,58384
1772,19821;2,57962
1770,14706;2,57781
1768,0959;2,57882
1766,04475;2,58229
1763,99359;2,58529
1761,94244;2,58456
1759,89128;2,58261
1757,84012;2,58175
1755,78897;2,58739
1753,73781;2,59633
1751,68666;2,59906
1749,6355;2,59817
1747,58435;2,5989
1745,53319;2,60252
1743,48204;2,60751
1741,43088;2,60974
1739,37973;2,60996
1737,32857;2,6123
1735,27742;2,61222
1733,22626;2,61527
1731,17511;2,62135
1729,12395;2,62189
1727,07279;2,61973
1725,02164;2,61675
1722,97048;2,61788
1720,91933;2,6249
1718,86817;2,63099
1716,81702;2,63589
1714,76586;2,64036
1712,71471;2,64348
1710,66355;2,64667
1708,6124;2,65197
1706,56124;2,65835
1704,51009;2,66242
1702,45893;2,6566
1700,40778;2,64703
1698,35662;2,65183
1696,30546;2,65776
1694,25431;2,6654
1692,20315;2,67618
1690,152;2,68388
1688,10084;2,69049
1686,04969;2,68901
1683,99853;2,68345
1681,94738;2,68887
1679,89622;2,69206
1677,84507;2,68588
1675,79391;2,67929
1673,74276;2,68381
1671,6916;2,69063
1669,64045;2,69147
1667,58929;2,69293
1665,53813;2,69099
1663,48698;2,68261
1661,43582;2,67864
1659,38467;2,68235
1657,33351;2,68798
1655,28236;2,68662
1653,2312;2,67944
1651,18005;2,68758
1649,12889;2,6971
1647,07774;2,69292
1645,02658;2,68431
1642,97543;2,67481
1640,92427;2,66594
1638,87312;2,66178
1636,82196;2,65818
1634,7708;2,65759
1632,71965;2,66119
1630,66849;2,65881
1628,61734;2,65286
1626,56618;2,65286
1624,51503;2,65494
1622,46387;2,65371
1620,41272;2,65092
1618,36156;2,64144
1616,31041;2,63029
1614,25925;2,62911
1612,2081;2,62992
1610,15694;2,62612
1608,10579;2,61976
1606,05463;2,61323
1604,00347;2,60644
1601,95232;2,59828
1599,90116;2,58924
1597,85001;2,58034
1595,79885;2,57138
1593,7477;2,56283
1591,69654;2,55366
1589,64539;2,54096
1587,59423;2,52647
1585,54308;2,51431
1583,49192;2,50488
1581,44077;2,49663
1579,38961;2,48589
1577,33846;2,46498
1575,2873;2,44144
1573,23614;2,4283
1571,18499;2,41626
1569,13383;2,40281
1567,08268;2,39199
1565,03152;2,38279
1562,98037;2,37902
1560,92921;2,36996
1558,87806;2,34909
1556,8269;2,33637
1554,77575;2,32871
1552,72459;2,32063
1550,67344;2,31255
1548,62228;2,30514
1546,57113;2,29849
1544,51997;2,29445
1542,46881;2,2942
1540,41766;2,29136
1538,3665;2,2929
1536,31535;2,29643
1534,26419;2,29218
1532,21304;2,29195
1530,16188;2,29858
1528,11073;2,30265
1526,05957;2,30678
1524,00842;2,31176
1521,95726;2,31251
1519,90611;2,31589
1517,85495;2,32088
1515,80379;2,32492
1513,75264;2,33029
1511,70148;2,33766
1509,65033;2,34467
1507,59917;2,34234
1505,54802;2,34113
1503,49686;2,35001
1501,44571;2,35873
1499,39455;2,36642
1497,3434;2,37591
1495,29224;2,38837
1493,24109;2,40004
1491,18993;2,4062
1489,13878;2,41197
1487,08762;2,4197
1485,03646;2,42788
1482,98531;2,43586
1480,93415;2,44352
1478,883;2,45114
1476,83184;2,45854
1474,78069;2,46605
1472,72953;2,47472
1470,67838;2,48909
1468,62722;2,50179
1466,57607;2,50586
1464,52491;2,51124
1462,47376;2,52623
1460,4226;2,5388
1458,37145;2,53747
1456,32029;2,53066
1454,26913;2,53065
1452,21798;2,532
1450,16682;2,53104
1448,11567;2,5288
1446,06451;2,52818
1444,01336;2,52854
1441,9622;2,53054
1439,91105;2,53409
1437,85989;2,53365
1435,80874;2,53358
1433,75758;2,53533
1431,70643;2,53091
1429,65527;2,52476
1427,60412;2,52262
1425,55296;2,52049
1423,5018;2,51802
1421,45065;2,51606
1419,39949;2,51324
1417,34834;2,51434
1415,29718;2,51636
1413,24603;2,51443
1411,19487;2,50885
1409,14372;2,50392
1407,09256;2,50516
1405,04141;2,5141
1402,99025;2,52618
1400,9391;2,53194
1398,88794;2,52958
1396,83679;2,5244
1394,78563;2,52199
1392,73447;2,52864
1390,68332;2,5385
1388,63216;2,54302
1386,58101;2,54582
1384,52985;2,5514
1382,4787;2,55731
1380,42754;2,56269
1378,37639;2,56787
1376,32523;2,57203
1374,27408;2,57444
1372,22292;2,57622
1370,17177;2,57556
1368,12061;2,57325
1366,06946;2,57422
1364,0183;2,57872
1361,96714;2,58382
1359,91599;2,5853
1357,86483;2,58247
1355,81368;2,58136
1353,76252;2,58432
1351,71137;2,58655
1349,66021;2,5863
1347,60906;2,58811
1345,5579;2,59374
1343,50675;2,5988
1341,45559;2,59931
1339,40444;2,59826
1337,35328;2,59977
1335,30213;2,60161
1333,25097;2,60251
1331,19981;2,60388
1329,14866;2,60523
1327,0975;2,60475
1325,04635;2,60154
1322,99519;2,59764
1320,94404;2,59663
1318,89288;2,59922
1316,84173;2,60372
1314,79057;2,60814
1312,73942;2,6111
1310,68826;2,61175
1308,63711;2,61098
1306,58595;2,60956
1304,5348;2,6074
1302,48364;2,60886
1300,43248;2,61571
1298,38133;2,62162
1296,33017;2,62158
1294,27902;2,61876
1292,22786;2,6207
1290,17671;2,62638
1288,12555;2,62787
1286,0744;2,62591
1284,02324;2,62503
1281,97209;2,62361
1279,92093;2,61943
1277,86978;2,61728
1275,81862;2,6217
1273,76747;2,62669
1271,71631;2,62722
1269,66515;2,62832
1267,614;2,63076
1265,56284;2,6298
1263,51169;2,62898
1261,46053;2,63228
1259,40938;2,63472
1257,35822;2,63383
1255,30707;2,63307
1253,25591;2,63439
1251,20476;2,63837
1249,1536;2,64366
1247,10245;2,64891
1245,05129;2,65447
1243,00013;2,65559
1240,94898;2,65154
1238,89782;2,64812
1236,84667;2,64819
1234,79551;2,65292
1232,74436;2,65859
1230,6932;2,66122
1228,64205;2,66023
1226,59089;2,65679
1224,53974;2,65511
1222,48858;2,65741
1220,43743;2,66197
1218,38627;2,66623
1216,33512;2,67099
1214,28396;2,67535
1212,2328;2,67617
1210,18165;2,67579
1208,13049;2,67519
1206,07934;2,67306
1204,02818;2,67323
1201,97703;2,67741
1199,92587;2,68199
1197,87472;2,68629
1195,82356;2,69095
1193,77241;2,6975
1191,72125;2,70512
1189,6701;2,71215
1187,61894;2,72075
1185,56779;2,73197
1183,51663;2,74815
1181,46547;2,76623
1179,41432;2,77814
1177,36316;2,78333
1175,31201;2,78572
1173,26085;2,79196
1171,2097;2,80399
1169,15854;2,81631
1167,10739;2,82473
1165,05623;2,8309
1163,00508;2,82837
1160,95392;2,81626
1158,90277;2,80877
1156,85161;2,80488
1154,80046;2,80055
1152,7493;2,80133
1150,69814;2,80335
1148,64699;2,80292
1146,59583;2,79778
1144,54468;2,7858
1142,49352;2,77399
1140,44237;2,76655
1138,39121;2,76356
1136,34006;2,76737
1134,2889;2,77187
1132,23775;2,76471
1130,18659;2,75182
1128,13544;2,7456
1126,08428;2,74508
1124,03313;2,7424
1121,98197;2,73404
1119,93081;2,72273
1117,87966;2,70931
1115,8285;2,6981
1113,77735;2,69225
1111,72619;2,68788
1109,67504;2,68223
1107,62388;2,67532
1105,57273;2,66533
1103,52157;2,65091
1101,47042;2,63511
1099,41926;2,62139
1097,36811;2,60769
1095,31695;2,59098
1093,2658;2,57217
1091,21464;2,54941
1089,16348;2,52261
1087,11233;2,49744
1085,06117;2,4754
1083,01002;2,45329
1080,95886;2,43283
1078,90771;2,41826
1076,85655;2,40895
1074,8054;2,40224
1072,75424;2,3946
1070,70309;2,38469
1068,65193;2,37551
1066,60078;2,36733
1064,54962;2,35884
1062,49847;2,35079
1060,44731;2,34336
1058,39615;2,33763
1056,345;2,33209
1054,29384;2,32215
1052,24269;2,30596
1050,19153;2,28675
1048,14038;2,27224
1046,08922;2,26521
1044,03807;2,26077
1041,98691;2,25352
1039,93576;2,24296
1037,8846;2,23441
1035,83345;2,22888
1033,78229;2,22282
1031,73114;2,2171
1029,67998;2,21329
1027,62882;2,2127
1025,57767;2,2155
1023,52651;2,21763
1021,47536;2,21798
1019,4242;2,21843
1017,37305;2,21934
1015,32189;2,21991
1013,27074;2,22041
1011,21958;2,2232
1009,16843;2,22779
1007,11727;2,23177
1005,06612;2,2368
1003,01496;2,24354
1000,96381;2,24809
998,91265;2,25203
996,86149;2,26031
994,81034;2,26977
992,75918;2,27646
990,70803;2,28279
988,65687;2,29161
986,60572;2,30253
984,55456;2,30944
982,50341;2,30982
980,45225;2,30969
978,4011;2,31062
976,34994;2,31115
974,29879;2,31281
972,24763;2,31534
970,19647;2,31596
968,14532;2,31538
966,09416;2,31642
964,04301;2,31934
961,99185;2,32477
959,9407;2,33176
957,88954;2,33723
955,83839;2,344
953,78723;2,35305
951,73608;2,35913
949,68492;2,36285
947,63377;2,36748
945,58261;2,37225
943,53146;2,37792
941,4803;2,38571
939,42914;2,39285
937,37799;2,3956
935,32683;2,3984
933,27568;2,40785
931,22452;2,4201
929,17337;2,42656
927,12221;2,42752
925,07106;2,43104
923,0199;2,43819
920,96875;2,44172
918,91759;2,44137
916,86644;2,44228
914,81528;2,44409
912,76413;2,44437
910,71297;2,44334
908,66181;2,44234
906,61066;2,43966
904,5595;2,43672
902,50835;2,43937
900,45719;2,4423
898,40604;2,43626
896,35488;2,42519
894,30373;2,41865
892,25257;2,41872
890,20142;2,41936
888,15026;2,41748
886,09911;2,418
884,04795;2,42412
881,9968;2,42962
879,94564;2,43068
877,89448;2,43369
875,84333;2,43963
873,79217;2,44207
871,74102;2,44312
869,68986;2,44936
867,63871;2,46148
865,58755;2,47691
863,5364;2,48921
861,48524;2,49363
859,43409;2,49516
857,38293;2,4992
855,33178;2,50148
853,28062;2,5007
851,22947;2,50544
849,17831;2,51687
847,12715;2,52406
845,076;2,52127
843,02484;2,5175
840,97369;2,51725
838,92253;2,51611
836,87138;2,51956
834,82022;2,52843
832,76907;2,536
830,71791;2,54313
828,66676;2,54754
826,6156;2,54444
824,56445;2,54141
822,51329;2,54543
820,46214;2,55023
818,41098;2,55233
816,35982;2,55274
814,30867;2,55431
812,25751;2,55638
810,20636;2,55246
808,1552;2,55297
806,10405;2,56202
804,05289;2,56081
802,00174;2,54442
799,95058;2,53498
797,89943;2,54095
795,84827;2,54494
793,79712;2,54462
791,74596;2,54885
789,69481;2,55277
787,64365;2,55047
785,59249;2,54687
783,54134;2,54994
781,49018;2,55117
779,43903;2,53671
777,38787;2,52263
775,33672;2,52835
773,28556;2,54214
771,23441;2,54927
769,18325;2,54863
767,1321;2,54454
765,08094;2,54418
763,02979;2,54893
760,97863;2,55078
758,92748;2,54832
756,87632;2,5555
754,82516;2,5648
752,77401;2,56164
750,72285;2,55793
748,6717;2,55887
746,62054;2,5606
744,56939;2,56607
742,51823;2,57286
740,46708;2,57573
738,41592;2,57941
736,36477;2,58507
734,31361;2,58562
732,26246;2,58212
730,2113;2,57738
728,16015;2,56645
726,10899;2,55529
724,05783;2,55541
722,00668;2,55798
719,95552;2,55308
717,90437;2,54843
715,85321;2,55446
713,80206;2,56376
711,7509;2,56419
709,69975;2,5596
707,64859;2,55374
705,59744;2,54301
703,54628;2,53624
701,49513;2,54521
699,44397;2,55871
697,39281;2,55565
695,34166;2,54273
693,2905;2,54215
691,23935;2,5561
689,18819;2,57081
687,13704;2,57598
685,08588;2,57379
683,03473;2,57067
680,98357;2,56473
678,93242;2,55347
676,88126;2,54564
674,83011;2,54622
672,77895;2,54195
670,7278;2,52312
668,67664;2,50678
666,62548;2,51651
664,57433;2,53725
662,52317;2,54333
660,47202;2,53801
658,42086;2,53795
656,36971;2,54455
654,31855;2,54579
652,2674;2,54089
650,21624;2,54314
648,16509;2,55065
646,11393;2,54886
644,06278;2,54304
642,01162;2,54636
639,96047;2,55464
637,90931;2,55743
635,85815;2,55026
633,807;2,53248
631,75584;2,51628
629,70469;2,51308
627,65353;2,51582
625,60238;2,5088
623,55122;2,49657
621,50007;2,50057
619,44891;2,51644
617,39776;2,51257
615,3466;2,49606
613,29545;2,49572
611,24429;2,49442
609,19314;2,47803
607,14198;2,47288
605,09082;2,48728
603,03967;2,50589
600,98851;2,51181
598,93736;2,49494
596,8862;2,46947
594,83505;2,45876
592,78389;2,46256
590,73274;2,46669
588,68158;2,46612
586,63043;2,46543
584,57927;2,47022
582,52812;2,48563
580,47696;2,49883
578,42581;2,49166
576,37465;2,47732
574,32349;2,46881
572,27234;2,46685
570,22118;2,47341
568,17003;2,47199
566,11887;2,45281
564,06772;2,44096
562,01656;2,44457
559,96541;2,44323
557,91425;2,43932
555,8631;2,43892
553,81194;2,42286
551,76079;2,39479
549,70963;2,38083
547,65848;2,38416
545,60732;2,38733
543,55616;2,38115
541,50501;2,36826
539,45385;2,35421
537,4027;2,34337
535,35154;2,33606
533,30039;2,33098
531,24923;2,32668
529,19808;2,32243
527,14692;2,32175
525,09577;2,32215
523,04461;2,31613
520,99346;2,30977
518,9423;2,30996
516,89115;2,31281
514,83999;2,31148
512,78883;2,30539
510,73768;2,30186
508,68652;2,3088
506,63537;2,32252
504,58421;2,3351
502,53306;2,34818
500,4819;2,35671
498,43075;2,35374
496,37959;2,34911
494,32844;2,35337
492,27728;2,36467
490,22613;2,37964
488,17497;2,38836
486,12382;2,37423
484,07266;2,33948
482,0215;2,30454
479,97035;2,27757
477,91919;2,2601
475,86804;2,25505
473,81688;2,24895
471,76573;2,2256
469,71457;2,19482
467,66342;2,17835
465,61226;2,17865
463,56111;2,18075
461,50995;2,1791
459,4588;2,18225
457,40764;2,18623
455,35649;2,17984
453,30533;2,17428
451,25417;2,17738
449,20302;2,17419
447,15186;2,16286
445,10071;2,16481
443,04955;2,1958
440,9984;2,23473
438,94724;2,23889
436,89609;2,20752
434,84493;2,17741
432,79378;2,16998
430,74262;2,18061
428,69147;2,19303
426,64031;2,18942
424,58916;2,16969
422,538;2,15378
420,48684;2,16055
418,43569;2,19536
416,38453;2,21675
414,33338;2,1995
412,28222;2,17069
410,23107;2,1548
408,17991;2,1692
406,12876;2,20739
404,0776;2,23961
402,02645;2,25799
399,97529;2,26472
