3997,70175;1,83554
3995,6506;1,83617
3993,59944;1,8384
3991,54829;1,84223
3989,49713;1,84528
3987,44598;1,84691
3985,39482;1,84875
3983,34367;1,85061
3981,29251;1,85168
3979,24136;1,8529
3977,1902;1,85471
3975,13905;1,85681
3973,08789;1,85897
3971,03673;1,86112
3968,98558;1,86413
3966,93442;1,86842
3964,88327;1,87225
3962,83211;1,87445
3960,78096;1,87686
3958,7298;1,87993
3956,67865;1,88265
3954,62749;1,88573
3952,57634;1,88932
3950,52518;1,89244
3948,47403;1,89421
3946,42287;1,89453
3944,37172;1,89329
3942,32056;1,8917
3940,2694;1,89085
3938,21825;1,88947
3936,16709;1,88696
3934,11594;1,88324
3932,06478;1,87899
3930,01363;1,87449
3927,96247;1,86904
3925,91132;1,86278
3923,86016;1,85729
3921,80901;1,85258
3919,75785;1,84747
3917,7067;1,84228
3915,65554;1,83756
3913,60439;1,83241
3911,55323;1,82692
3909,50207;1,82414
3907,45092;1,824
3905,39976;1,82272
3903,34861;1,81981
3901,29745;1,8165
3899,2463;1,81314
3897,19514;1,81246
3895,14399;1,81335
3893,09283;1,81173
3891,04168;1,80812
3888,99052;1,80563
3886,93937;1,80294
3884,88821;1,80368
3882,83706;1,80695
3880,7859;1,80631
3878,73474;1,80586
3876,68359;1,80629
3874,63243;1,80538
3872,58128;1,8052
3870,53012;1,80436
3868,47897;1,80526
3866,42781;1,8049
3864,37666;1,80078
3862,3255;1,79744
3860,27435;1,7958
3858,22319;1,79518
3856,17204;1,7923
3854,12088;1,7864
3852,06973;1,78567
3850,01857;1,78931
3847,96741;1,79121
3845,91626;1,79098
3843,8651;1,78974
3841,81395;1,78873
3839,76279;1,78726
3837,71164;1,78651
3835,66048;1,78827
3833,60933;1,78967
3831,55817;1,78945
3829,50702;1,78887
3827,45586;1,78803
3825,40471;1,78958
3823,35355;1,79091
3821,3024;1,79076
3819,25124;1,79324
3817,20008;1,79097
3815,14893;1,78727
3813,09777;1,78906
3811,04662;1,79147
3808,99546;1,7914
3806,94431;1,79155
3804,89315;1,79615
3802,842;1,79836
3800,79084;1,79898
3798,73969;1,80159
3796,68853;1,80099
3794,63738;1,79992
3792,58622;1,8005
3790,53506;1,80199
3788,48391;1,80383
3786,43275;1,80499
3784,3816;1,80645
3782,33044;1,80832
3780,27929;1,80811
3778,22813;1,80748
3776,17698;1,80805
3774,12582;1,80987
3772,07467;1,81281
3770,02351;1,81633
3767,97236;1,82021
3765,9212;1,82127
3763,87005;1,82175
3761,81889;1,82352
3759,76773;1,826
3757,71658;1,83028
3755,66542;1,83466
3753,61427;1,83604
3751,56311;1,83663
3749,51196;1,84116
3747,4608;1,84519
3745,40965;1,8438
3743,35849;1,8498
3741,30734;1,86325
3739,25618;1,87144
3737,20503;1,87401
3735,15387;1,87511
3733,10272;1,87835
3731,05156;1,88657
3729,0004;1,89673
3726,94925;1,90321
3724,89809;1,90824
3722,84694;1,91441
3720,79578;1,92205
3718,74463;1,93057
3716,69347;1,94005
3714,64232;1,9498
3712,59116;1,95997
3710,54001;1,97376
3708,48885;1,9913
3706,4377;2,0122
3704,38654;2,03784
3702,33539;2,07031
3700,28423;2,10892
3698,23307;2,14418
3696,18192;2,16932
3694,13076;2,1847
3692,07961;2,18923
3690,02845;2,18376
3687,9773;2,18012
3685,92614;2,1886
3683,87499;2,20203
3681,82383;2,21602
3679,77268;2,23472
3677,72152;2,25912
3675,67037;2,28722
3673,61921;2,31769
3671,56806;2,34224
3669,5169;2,36534
3667,46574;2,39034
3665,41459;2,41008
3663,36343;2,42668
3661,31228;2,44362
3659,26112;2,46234
3657,20997;2,48547
3655,15881;2,51449
3653,10766;2,5448
3651,0565;2,57934
3649,00535;2,62741
3646,95419;2,67366
3644,90304;2,69732
3642,85188;2,70136
3640,80073;2,69907
3638,74957;2,69969
3636,69841;2,7087
3634,64726;2,726
3632,5961;2,74185
3630,54495;2,74137
3628,49379;2,73138
3626,44264;2,73299
3624,39148;2,74048
3622,34033;2,74686
3620,28917;2,7562
3618,23802;2,76884
3616,18686;2,77318
3614,13571;2,76532
3612,08455;2,76028
3610,0334;2,76578
3607,98224;2,77356
3605,93108;2,7808
3603,87993;2,78896
3601,82877;2,79585
3599,77762;2,80362
3597,72646;2,81077
3595,67531;2,8093
3593,62415;2,8015
3591,573;2,79588
3589,52184;2,79813
3587,47069;2,81053
3585,41953;2,8262
3583,36838;2,83696
3581,31722;2,84105
3579,26607;2,83805
3577,21491;2,83333
3575,16375;2,83813
3573,1126;2,85323
3571,06144;2,86663
3569,01029;2,87085
3566,95913;2,86722
3564,90798;2,86215
3562,85682;2,86009
3560,80567;2,85954
3558,75451;2,86316
3556,70336;2,87136
3554,6522;2,87417
3552,60105;2,86609
3550,54989;2,85726
3548,49874;2,86031
3546,44758;2,87673
3544,39642;2,8987
3542,34527;2,91213
3540,29411;2,90784
3538,24296;2,89932
3536,1918;2,90394
3534,14065;2,91437
3532,08949;2,91628
3530,03834;2,91079
3527,98718;2,90717
3525,93603;2,91228
3523,88487;2,92718
3521,83372;2,94427
3519,78256;2,94919
3517,73141;2,9409
3515,68025;2,92955
3513,62909;2,92062
3511,57794;2,91709
3509,52678;2,92067
3507,47563;2,93171
3505,42447;2,94948
3503,37332;2,96695
3501,32216;2,97324
3499,27101;2,97292
3497,21985;2,97461
3495,1687;2,96888
3493,11754;2,96052
3491,06639;2,96198
3489,01523;2,95841
3486,96407;2,95149
3484,91292;2,96309
3482,86176;2,97558
3480,81061;2,96501
3478,75945;2,94852
3476,7083;2,94539
3474,65714;2,95061
3472,60599;2,95835
3470,55483;2,97052
3468,50368;2,98135
3466,45252;2,97798
3464,40137;2,96277
3462,35021;2,95812
3460,29906;2,96745
3458,2479;2,96948
3456,19674;2,95682
3454,14559;2,9404
3452,09443;2,9333
3450,04328;2,94442
3447,99212;2,96344
3445,94097;2,98293
3443,88981;3,00091
3441,83866;3,0065
3439,7875;2,99507
3437,73635;2,97268
3435,68519;2,96454
3433,63404;2,97889
3431,58288;2,99127
3429,53173;2,98656
3427,48057;2,97828
3425,42941;2,97181
3423,37826;2,96967
3421,3271;2,97071
3419,27595;2,96853
3417,22479;2,96523
3415,17364;2,96671
3413,12248;2,97528
3411,07133;2,98585
3409,02017;2,98716
3406,96902;2,97621
3404,91786;2,96038
3402,86671;2,95456
3400,81555;2,95867
3398,7644;2,96442
3396,71324;2,97423
3394,66208;2,98023
3392,61093;2,97463
3390,55977;2,97204
3388,50862;2,9776
3386,45746;2,97851
3384,40631;2,97874
3382,35515;2,9835
3380,304;2,98316
3378,25284;2,9753
3376,20169;2,96724
3374,15053;2,96673
3372,09938;2,97719
3370,04822;2,99342
3367,99707;2,99967
3365,94591;2,98586
3363,89475;2,97223
3361,8436;2,96613
3359,79244;2,95512
3357,74129;2,95356
3355,69013;2,97049
3353,63898;2,98013
3351,58782;2,96758
3349,53667;2,95141
3347,48551;2,9532
3345,43436;2,96416
3343,3832;2,96592
3341,33205;2,96198
3339,28089;2,95578
3337,22974;2,95442
3335,17858;2,96458
3333,12742;2,97611
3331,07627;2,97571
3329,02511;2,96686
3326,97396;2,96779
3324,9228;2,98122
3322,87165;2,98968
3320,82049;2,98712
3318,76934;2,98344
3316,71818;2,97942
3314,66703;2,96759
3312,61587;2,95127
3310,56472;2,9404
3308,51356;2,9364
3306,46241;2,93444
3304,41125;2,93348
3302,36009;2,93313
3300,30894;2,93612
3298,25778;2,93557
3296,20663;2,93221
3294,15547;2,93504
3292,10432;2,93749
3290,05316;2,93834
3288,00201;2,93521
3285,95085;2,92145
3283,8997;2,91198
3281,84854;2,91549
3279,79739;2,92676
3277,74623;2,94083
3275,69508;2,9448
3273,64392;2,93465
3271,59276;2,92431
3269,54161;2,92411
3267,49045;2,92619
3265,4393;2,92717
3263,38814;2,93398
3261,33699;2,93598
3259,28583;2,92286
3257,23468;2,90981
3255,18352;2,91133
3253,13237;2,9167
3251,08121;2,91768
3249,03006;2,91788
3246,9789;2,9067
3244,92775;2,89352
3242,87659;2,90072
3240,82543;2,91162
3238,77428;2,91747
3236,72312;2,93103
3234,67197;2,93941
3232,62081;2,93264
3230,56966;2,92119
3228,5185;2,91043
3226,46735;2,90167
3224,41619;2,89895
3222,36504;2,90242
3220,31388;2,9059
3218,26273;2,90241
3216,21157;2,89192
3214,16041;2,88794
3212,10926;2,89789
3210,0581;2,90456
3208,00695;2,89591
3205,95579;2,88539
3203,90464;2,88663
3201,85348;2,88795
3199,80233;2,87478
3197,75117;2,86414
3195,70002;2,87422
3193,64886;2,89363
3191,59771;2,89983
3189,54655;2,88972
3187,4954;2,8823
3185,44424;2,87931
3183,39308;2,86638
3181,34193;2,8544
3179,29077;2,85562
3177,23962;2,8596
3175,18846;2,85999
3173,13731;2,86328
3171,08615;2,86875
3169,035;2,86562
3166,98384;2,85383
3164,93269;2,84758
3162,88153;2,84765
3160,83038;2,84107
3158,77922;2,83283
3156,72807;2,8342
3154,67691;2,83899
3152,62575;2,83749
3150,5746;2,83452
3148,52344;2,83466
3146,47229;2,83545
3144,42113;2,8366
3142,36998;2,83411
3140,31882;2,82676
3138,26767;2,82075
3136,21651;2,81882
3134,16536;2,82618
3132,1142;2,83788
3130,06305;2,83386
3128,01189;2,81957
3125,96074;2,8189
3123,90958;2,82947
3121,85842;2,83119
3119,80727;2,82131
3117,75611;2,81271
3115,70496;2,81367
3113,6538;2,81898
3111,60265;2,81542
3109,55149;2,8035
3107,50034;2,79662
3105,44918;2,79601
3103,39803;2,79413
3101,34687;2,79518
3099,29572;2,80404
3097,24456;2,80774
3095,19341;2,79916
3093,14225;2,79604
3091,09109;2,80762
3089,03994;2,81744
3086,98878;2,81332
3084,93763;2,80435
3082,88647;2,79931
3080,83532;2,79608
3078,78416;2,79265
3076,73301;2,79273
3074,68185;2,79734
3072,6307;2,79622
3070,57954;2,79093
3068,52839;2,79644
3066,47723;2,80603
3064,42608;2,80388
3062,37492;2,79248
3060,32376;2,78004
3058,27261;2,77265
3056,22145;2,77361
3054,1703;2,77854
3052,11914;2,7803
3050,06799;2,77788
3048,01683;2,77558
3045,96568;2,77249
3043,91452;2,76719
3041,86337;2,76624
3039,81221;2,76805
3037,76106;2,7648
3035,7099;2,76026
3033,65875;2,75877
3031,60759;2,75614
3029,55643;2,75174
3027,50528;2,75146
3025,45412;2,75843
3023,40297;2,76872
3021,35181;2,77332
3019,30066;2,7684
3017,2495;2,76332
3015,19835;2,76291
3013,14719;2,76233
3011,09604;2,76138
3009,04488;2,76316
3006,99373;2,77016
3004,94257;2,78061
3002,89142;2,78785
3000,84026;2,78808
2998,7891;2,78576
2996,73795;2,78921
2994,68679;2,79927
2992,63564;2,81064
2990,58448;2,81692
2988,53333;2,82029
2986,48217;2,82521
2984,43102;2,82629
2982,37986;2,82474
2980,32871;2,8267
2978,27755;2,82453
2976,2264;2,81781
2974,17524;2,81901
2972,12409;2,82664
2970,07293;2,82861
2968,02177;2,8238
2965,97062;2,82199
2963,91946;2,8264
2961,86831;2,82887
2959,81715;2,82301
2957,766;2,81914
2955,71484;2,82769
2953,66369;2,83285
2951,61253;2,82594
2949,56138;2,8224
2947,51022;2,82175
2945,45907;2,81781
2943,40791;2,81483
2941,35675;2,81368
2939,3056;2,81455
2937,25444;2,81796
2935,20329;2,8248
2933,15213;2,83465
2931,10098;2,837
2929,04982;2,82774
2926,99867;2,81696
2924,94751;2,80648
2922,89636;2,79454
2920,8452;2,78403
2918,79405;2,77344
2916,74289;2,77331
2914,69174;2,78586
2912,64058;2,79184
2910,58942;2,79026
2908,53827;2,78591
2906,48711;2,77657
2904,43596;2,77454
2902,3848;2,78098
2900,33365;2,77742
2898,28249;2,77002
2896,23134;2,77193
2894,18018;2,77193
2892,12903;2,76828
2890,07787;2,77083
2888,02672;2,77698
2885,97556;2,78471
2883,92441;2,79831
2881,87325;2,81058
2879,82209;2,81304
2877,77094;2,80512
2875,71978;2,79115
2873,66863;2,77909
2871,61747;2,77529
2869,56632;2,77447
2867,51516;2,77411
2865,46401;2,77536
2863,41285;2,77026
2861,3617;2,75825
2859,31054;2,75027
2857,25939;2,74785
2855,20823;2,74243
2853,15708;2,73382
2851,10592;2,72641
2849,05476;2,71509
2847,00361;2,70123
2844,95245;2,69093
2842,9013;2,68204
2840,85014;2,67108
2838,79899;2,65711
2836,74783;2,64192
2834,69668;2,631
2832,64552;2,62468
2830,59437;2,61732
2828,54321;2,60952
2826,49206;2,60044
2824,4409;2,58855
2822,38975;2,57818
2820,33859;2,57019
2818,28743;2,56456
2816,23628;2,56191
2814,18512;2,56162
2812,13397;2,55848
2810,08281;2,54907
2808,03166;2,53978
2805,9805;2,53411
2803,92935;2,53229
2801,87819;2,53355
2799,82704;2,5331
2797,77588;2,52957
2795,72473;2,52345
2793,67357;2,51523
2791,62242;2,50801
2789,57126;2,50328
2787,5201;2,49727
2785,46895;2,48854
2783,41779;2,48135
2781,36664;2,47745
2779,31548;2,47557
2777,26433;2,47554
2775,21317;2,47556
2773,16202;2,46911
2771,11086;2,45924
2769,05971;2,45651
2767,00855;2,45936
2764,9574;2,4594
2762,90624;2,4545
2760,85509;2,44786
2758,80393;2,44356
2756,75277;2,44274
2754,70162;2,44185
2752,65046;2,4409
2750,59931;2,44215
2748,54815;2,44232
2746,497;2,43787
2744,44584;2,43014
2742,39469;2,42433
2740,34353;2,42295
2738,29238;2,42195
2736,24122;2,42012
2734,19007;2,42073
2732,13891;2,421
2730,08776;2,4175
2728,0366;2,41257
2725,98544;2,40807
2723,93429;2,40481
2721,88313;2,40318
2719,83198;2,40181
2717,78082;2,40004
2715,72967;2,39713
2713,67851;2,39414
2711,62736;2,39422
2709,5762;2,3957
2707,52505;2,39547
2705,47389;2,39387
2703,42274;2,3915
2701,37158;2,38856
2699,32043;2,38638
2697,26927;2,38623
2695,21811;2,38795
2693,16696;2,38835
2691,1158;2,38565
2689,06465;2,38375
2687,01349;2,38316
2684,96234;2,38174
2682,91118;2,38139
2680,86003;2,38269
2678,80887;2,38299
2676,75772;2,38325
2674,70656;2,38573
2672,65541;2,3865
2670,60425;2,38298
2668,55309;2,3802
2666,50194;2,3816
2664,45078;2,38531
2662,39963;2,38967
2660,34847;2,39232
2658,29732;2,39231
2656,24616;2,39303
2654,19501;2,39532
2652,14385;2,39784
2650,0927;2,40053
2648,04154;2,40394
2645,99039;2,40706
2643,93923;2,40929
2641,88808;2,41503
2639,83692;2,42514
2637,78576;2,43594
2635,73461;2,44909
2633,68345;2,46575
2631,6323;2,4824
2629,58114;2,495
2627,52999;2,50267
2625,47883;2,51107
2623,42768;2,52209
2621,37652;2,53021
2619,32537;2,53533
2617,27421;2,54109
2615,22306;2,54612
2613,1719;2,54799
2611,12075;2,5496
2609,06959;2,55695
2607,01843;2,56874
2604,96728;2,57358
2602,91612;2,56905
2600,86497;2,56713
2598,81381;2,5704
2596,76266;2,57311
2594,7115;2,57633
2592,66035;2,58084
2590,60919;2,58486
2588,55804;2,58765
2586,50688;2,5891
2584,45573;2,59126
2582,40457;2,59306
2580,35342;2,59256
2578,30226;2,59403
2576,2511;2,59922
2574,19995;2,60506
2572,14879;2,60685
2570,09764;2,60538
2568,04648;2,60679
2565,99533;2,60728
2563,94417;2,60477
2561,89302;2,60726
2559,84186;2,61328
2557,79071;2,61803
2555,73955;2,62556
2553,6884;2,63492
2551,63724;2,64051
2549,58609;2,64284
2547,53493;2,64287
2545,48377;2,64306
2543,43262;2,64818
2541,38146;2,6588
2539,33031;2,6715
2537,27915;2,68205
2535,228;2,6894
2533,17684;2,69841
2531,12569;2,71298
2529,07453;2,72825
2527,02338;2,73819
2524,97222;2,74523
2522,92107;2,75292
2520,86991;2,76064
2518,81876;2,76592
2516,7676;2,7648
2514,71644;2,76017
2512,66529;2,75484
2510,61413;2,74584
2508,56298;2,73718
2506,51182;2,73201
2504,46067;2,72529
2502,40951;2,7125
2500,35836;2,69519
2498,3072;2,67711
2496,25605;2,65792
2494,20489;2,63787
2492,15374;2,62129
2490,10258;2,6075
2488,05143;2,59125
2486,00027;2,57257
2483,94911;2,55407
2481,89796;2,53633
2479,8468;2,52069
2477,79565;2,50595
2475,74449;2,48977
2473,69334;2,47391
2471,64218;2,45883
2469,59103;2,44362
2467,53987;2,4293
2465,48872;2,41777
2463,43756;2,41118
2461,38641;2,40713
2459,33525;2,39919
2457,2841;2,3871
2455,23294;2,37695
2453,18178;2,36896
2451,13063;2,36127
2449,07947;2,35629
2447,02832;2,35219
2444,97716;2,34632
2442,92601;2,34146
2440,87485;2,33718
2438,8237;2,33219
2436,77254;2,32767
2434,72139;2,32219
2432,67023;2,31609
2430,61908;2,31053
2428,56792;2,30537
2426,51677;2,30127
2424,46561;2,29798
2422,41445;2,2954
2420,3633;2,2938
2418,31214;2,2921
2416,26099;2,2885
2414,20983;2,28427
2412,15868;2,2827
2410,10752;2,28158
2408,05637;2,2779
2406,00521;2,2746
2403,95406;2,2735
2401,9029;2,27261
2399,85175;2,27195
2397,80059;2,27233
2395,74944;2,27294
2393,69828;2,27216
2391,64712;2,26958
2389,59597;2,26651
2387,54481;2,26442
2385,49366;2,26335
2383,4425;2,26275
2381,39135;2,26275
2379,34019;2,26321
2377,28904;2,26273
2375,23788;2,26086
2373,18673;2,26062
2371,13557;2,26491
2369,08442;2,2719
2367,03326;2,27644
2364,9821;2,27347
2362,93095;2,26345
2360,87979;2,25516
2358,82864;2,25508
2356,77748;2,25968
2354,72633;2,26316
2352,67517;2,26466
2350,62402;2,26624
2348,57286;2,26861
2346,52171;2,27099
2344,47055;2,27154
2342,4194;2,26838
2340,36824;2,26432
2338,31709;2,26385
2336,26593;2,26581
2334,21477;2,26652
2332,16362;2,2657
2330,11246;2,26554
2328,06131;2,26747
2326,01015;2,26925
2323,959;2,26879
2321,90784;2,269
2319,85669;2,27111
2317,80553;2,2728
2315,75438;2,27355
2313,70322;2,27307
2311,65207;2,27133
2309,60091;2,27016
2307,54976;2,27061
2305,4986;2,27199
2303,44744;2,27216
2301,39629;2,26991
2299,34513;2,26791
2297,29398;2,26772
2295,24282;2,26731
2293,19167;2,26625
2291,14051;2,26504
2289,08936;2,26274
2287,0382;2,26014
2284,98705;2,25991
2282,93589;2,26213
2280,88474;2,26362
2278,83358;2,26281
2276,78243;2,26206
2274,73127;2,2635
2272,68011;2,26645
2270,62896;2,26953
2268,5778;2,27187
2266,52665;2,27343
2264,47549;2,27477
2262,42434;2,27656
2260,37318;2,27967
2258,32203;2,28287
2256,27087;2,28485
2254,21972;2,28735
2252,16856;2,29084
2250,11741;2,29308
2248,06625;2,29289
2246,0151;2,29186
2243,96394;2,29339
2241,91278;2,29747
2239,86163;2,3014
2237,81047;2,30328
2235,75932;2,30463
2233,70816;2,30771
2231,65701;2,31205
2229,60585;2,31616
2227,5547;2,31814
2225,50354;2,31758
2223,45239;2,31762
2221,40123;2,32044
2219,35008;2,32503
2217,29892;2,32964
2215,24777;2,33175
2213,19661;2,33169
2211,14545;2,33193
2209,0943;2,33242
2207,04314;2,33326
2204,99199;2,33427
2202,94083;2,3352
2200,88968;2,33623
2198,83852;2,33663
2196,78737;2,33779
2194,73621;2,34081
2192,68506;2,34396
2190,6339;2,34574
2188,58275;2,34534
2186,53159;2,34407
2184,48044;2,34488
2182,42928;2,34786
2180,37812;2,3505
2178,32697;2,35245
2176,27581;2,3549
2174,22466;2,35776
2172,1735;2,36114
2170,12235;2,36527
2168,07119;2,36996
2166,02004;2,37457
2163,96888;2,37806
2161,91773;2,38205
2159,86657;2,38938
2157,81542;2,39826
2155,76426;2,40634
2153,71311;2,41526
2151,66195;2,42446
2149,61079;2,43229
2147,55964;2,4393
2145,50848;2,44452
2143,45733;2,4464
2141,40617;2,44621
2139,35502;2,44656
2137,30386;2,44691
2135,25271;2,44419
2133,20155;2,43853
2131,1504;2,43369
2129,09924;2,43031
2127,04809;2,42467
2124,99693;2,41659
2122,94578;2,40835
2120,89462;2,39903
2118,84346;2,38838
2116,79231;2,37863
2114,74115;2,37086
2112,69;2,36451
2110,63884;2,35989
2108,58769;2,35747
2106,53653;2,35713
2104,48538;2,35834
2102,43422;2,35941
2100,38307;2,35879
2098,33191;2,35753
2096,28076;2,35653
2094,2296;2,35358
2092,17844;2,34985
2090,12729;2,34979
2088,07613;2,35176
2086,02498;2,3531
2083,97382;2,35496
2081,92267;2,35641
2079,87151;2,35632
2077,82036;2,35685
2075,7692;2,35802
2073,71805;2,35738
2071,66689;2,3568
2069,61574;2,35912
2067,56458;2,36166
2065,51343;2,36077
2063,46227;2,35902
2061,41111;2,36117
2059,35996;2,36538
2057,3088;2,36699
2055,25765;2,36689
2053,20649;2,36803
2051,15534;2,37066
2049,10418;2,37379
2047,05303;2,37662
2045,00187;2,37738
2042,95072;2,37555
2040,89956;2,37394
2038,84841;2,37374
2036,79725;2,37495
2034,7461;2,37865
2032,69494;2,38249
2030,64378;2,38358
2028,59263;2,38343
2026,54147;2,38358
2024,49032;2,38402
2022,43916;2,38554
2020,38801;2,38747
2018,33685;2,38844
2016,2857;2,39011
2014,23454;2,39371
2012,18339;2,39644
2010,13223;2,39637
2008,08108;2,39546
2006,02992;2,3959
2003,97877;2,39776
2001,92761;2,40015
1999,87645;2,40182
1997,8253;2,40309
1995,77414;2,40506
1993,72299;2,4061
1991,67183;2,40563
1989,62068;2,40451
1987,56952;2,40274
1985,51837;2,4035
1983,46721;2,40699
1981,41606;2,41008
1979,3649;2,41272
1977,31375;2,41554
1975,26259;2,41728
1973,21144;2,41808
1971,16028;2,42044
1969,10912;2,4255
1967,05797;2,43451
1965,00681;2,44889
1962,95566;2,46216
1960,9045;2,4658
1958,85335;2,4607
1956,80219;2,45294
1954,75104;2,44511
1952,69988;2,44017
1950,64873;2,43984
1948,59757;2,44031
1946,54642;2,44064
1944,49526;2,44158
1942,44411;2,44225
1940,39295;2,44477
1938,34179;2,44856
1936,29064;2,45128
1934,23948;2,45289
1932,18833;2,45541
1930,13717;2,45896
1928,08602;2,46096
1926,03486;2,46137
1923,98371;2,46278
1921,93255;2,46582
1919,8814;2,46646
1917,83024;2,46624
1915,77909;2,47058
1913,72793;2,47496
1911,67678;2,47708
1909,62562;2,48049
1907,57446;2,4849
1905,52331;2,4859
1903,47215;2,48563
1901,421;2,48898
1899,36984;2,49303
1897,31869;2,49539
1895,26753;2,49948
1893,21638;2,50496
1891,16522;2,50767
1889,11407;2,50991
1887,06291;2,51513
1885,01176;2,5202
1882,9606;2,52361
1880,90945;2,52611
1878,85829;2,52866
1876,80713;2,5323
1874,75598;2,53888
1872,70482;2,54889
1870,65367;2,55677
1868,60251;2,5592
1866,55136;2,55999
1864,5002;2,563
1862,44905;2,56986
1860,39789;2,57705
1858,34674;2,58099
1856,29558;2,58508
1854,24443;2,59135
1852,19327;2,59679
1850,14212;2,60048
1848,09096;2,60518
1846,0398;2,61379
1843,98865;2,6286
1841,93749;2,64555
1839,88634;2,65374
1837,83518;2,65578
1835,78403;2,66147
1833,73287;2,67075
1831,68172;2,68027
1829,63056;2,69402
1827,57941;2,71282
1825,52825;2,73021
1823,4771;2,74834
1821,42594;2,7668
1819,37478;2,77846
1817,32363;2,78493
1815,27247;2,79527
1813,22132;2,81161
1811,17016;2,83091
1809,11901;2,85078
1807,06785;2,86888
1805,0167;2,88871
1802,96554;2,91235
1800,91439;2,93272
1798,86323;2,94729
1796,81208;2,95896
1794,76092;2,96485
1792,70977;2,96252
1790,65861;2,95158
1788,60745;2,92899
1786,5563;2,89983
1784,50514;2,87759
1782,45399;2,86674
1780,40283;2,85988
1778,35168;2,85284
1776,30052;2,84679
1774,24937;2,8424
1772,19821;2,84246
1770,14706;2,85239
1768,0959;2,8654
1766,04475;2,87257
1763,99359;2,87205
1761,94244;2,86946
1759,89128;2,87121
1757,84012;2,87184
1755,78897;2,87231
1753,73781;2,87992
1751,68666;2,88994
1749,6355;2,89514
1747,58435;2,89579
1745,53319;2,89925
1743,48204;2,90967
1741,43088;2,92078
1739,37973;2,92634
1737,32857;2,92977
1735,27742;2,93123
1733,22626;2,93612
1731,17511;2,94539
1729,12395;2,95141
1727,07279;2,95602
1725,02164;2,96184
1722,97048;2,96697
1720,91933;2,96581
1718,86817;2,95992
1716,81702;2,96443
1714,76586;2,98133
1712,71471;3,00057
1710,66355;3,01755
1708,6124;3,03142
1706,56124;3,04969
1704,51009;3,07604
1702,45893;3,09872
1700,40778;3,12505
1698,35662;3,17009
1696,30546;3,19908
1694,25431;3,19668
1692,20315;3,18516
1690,152;3,18383
1688,10084;3,19913
1686,04969;3,20489
1683,99853;3,1745
1681,94738;3,13942
1679,89622;3,12765
1677,84507;3,12726
1675,79391;3,12438
1673,74276;3,12247
1671,6916;3,1197
1669,64045;3,10692
1667,58929;3,08931
1665,53813;3,07314
1663,48698;3,05181
1661,43582;3,02817
1659,38467;3,01219
1657,33351;2,99995
1655,28236;2,97535
1653,2312;2,94191
1651,18005;2,93663
1649,12889;2,94516
1647,07774;2,94143
1645,02658;2,93344
1642,97543;2,92675
1640,92427;2,91751
1638,87312;2,90471
1636,82196;2,88971
1634,7708;2,88185
1632,71965;2,8827
1630,66849;2,87989
1628,61734;2,87072
1626,56618;2,86144
1624,51503;2,85393
1622,46387;2,84746
1620,41272;2,84041
1618,36156;2,83124
1616,31041;2,82686
1614,25925;2,82702
1612,2081;2,82332
1610,15694;2,82001
1608,10579;2,81945
1606,05463;2,81612
1604,00347;2,81138
1601,95232;2,80916
1599,90116;2,8069
1597,85001;2,80172
1595,79885;2,7935
1593,7477;2,78277
1591,69654;2,77308
1589,64539;2,7688
1587,59423;2,76614
1585,54308;2,75868
1583,49192;2,74838
1581,44077;2,73877
1579,38961;2,72854
1577,33846;2,71533
1575,2873;2,7067
1573,23614;2,70452
1571,18499;2,69589
1569,13383;2,6858
1567,08268;2,6827
1565,03152;2,6794
1562,98037;2,67363
1560,92921;2,65992
1558,87806;2,64201
1556,8269;2,63938
1554,77575;2,64285
1552,72459;2,64378
1550,67344;2,64055
1548,62228;2,63363
1546,57113;2,62729
1544,51997;2,62579
1542,46881;2,62536
1540,41766;2,615
1538,3665;2,60609
1536,31535;2,60508
1534,26419;2,60169
1532,21304;2,60055
1530,16188;2,60041
1528,11073;2,59456
1526,05957;2,58877
1524,00842;2,58409
1521,95726;2,57687
1519,90611;2,57558
1517,85495;2,57647
1515,80379;2,57272
1513,75264;2,56715
1511,70148;2,56151
1509,65033;2,55379
1507,59917;2,53747
1505,54802;2,52376
1503,49686;2,52196
1501,44571;2,51866
1499,39455;2,51117
1497,3434;2,50827
1495,29224;2,51511
1493,24109;2,52302
1491,18993;2,52276
1489,13878;2,51921
1487,08762;2,51959
1485,03646;2,52535
1482,98531;2,53343
1480,93415;2,5412
1478,883;2,54954
1476,83184;2,55865
1474,78069;2,56791
1472,72953;2,57883
1470,67838;2,59292
1468,62722;2,60338
1466,57607;2,60775
1464,52491;2,61374
1462,47376;2,62568
1460,4226;2,63478
1458,37145;2,63385
1456,32029;2,63199
1454,26913;2,63652
1452,21798;2,63699
1450,16682;2,63266
1448,11567;2,63213
1446,06451;2,63883
1444,01336;2,64387
1441,9622;2,63954
1439,91105;2,62948
1437,85989;2,61924
1435,80874;2,61379
1433,75758;2,61042
1431,70643;2,60371
1429,65527;2,59896
1427,60412;2,59724
1425,55296;2,59259
1423,5018;2,58735
1421,45065;2,58268
1419,39949;2,57613
1417,34834;2,57539
1415,29718;2,58078
1413,24603;2,5853
1411,19487;2,58751
1409,14372;2,59091
1407,09256;2,59918
1405,04141;2,61347
1402,99025;2,63041
1400,9391;2,64321
1398,88794;2,65114
1396,83679;2,65543
1394,78563;2,65813
1392,73447;2,6665
1390,68332;2,67764
1388,63216;2,68473
1386,58101;2,6891
1384,52985;2,69253
1382,4787;2,69539
1380,42754;2,69899
1378,37639;2,70241
1376,32523;2,70464
1374,27408;2,70678
1372,22292;2,71201
1370,17177;2,7204
1368,12061;2,72852
1366,06946;2,73098
1364,0183;2,72607
1361,96714;2,72181
1359,91599;2,72271
1357,86483;2,72369
1355,81368;2,72393
1353,76252;2,72507
1351,71137;2,72436
1349,66021;2,71977
1347,60906;2,71722
1345,5579;2,72382
1343,50675;2,73452
1341,45559;2,7386
1339,40444;2,73746
1337,35328;2,73753
1335,30213;2,73612
1333,25097;2,73249
1331,19981;2,73047
1329,14866;2,7302
1327,0975;2,73187
1325,04635;2,74049
1322,99519;2,75453
1320,94404;2,76051
1318,89288;2,75496
1316,84173;2,75246
1314,79057;2,75712
1312,73942;2,75641
1310,68826;2,74867
1308,63711;2,74253
1306,58595;2,74021
1304,5348;2,74139
1302,48364;2,7447
1300,43248;2,74695
1298,38133;2,74608
1296,33017;2,74153
1294,27902;2,73596
1292,22786;2,73353
1290,17671;2,73454
1288,12555;2,7347
1286,0744;2,73548
1284,02324;2,7419
1281,97209;2,74804
1279,92093;2,74844
1277,86978;2,74705
1275,81862;2,74275
1273,76747;2,73611
1271,71631;2,73475
1269,66515;2,73873
1267,614;2,74473
1265,56284;2,75298
1263,51169;2,76158
1261,46053;2,76799
1259,40938;2,77212
1257,35822;2,77454
1255,30707;2,77375
1253,25591;2,7702
1251,20476;2,76931
1249,1536;2,77445
1247,10245;2,7819
1245,05129;2,78618
1243,00013;2,78879
1240,94898;2,79022
1238,89782;2,78412
1236,84667;2,77411
1234,79551;2,77106
1232,74436;2,77252
1230,6932;2,76993
1228,64205;2,76481
1226,59089;2,76002
1224,53974;2,75347
1222,48858;2,74606
1220,43743;2,74111
1218,38627;2,7417
1216,33512;2,74818
1214,28396;2,7544
1212,2328;2,75565
1210,18165;2,75604
1208,13049;2,75783
1206,07934;2,75599
1204,02818;2,75215
1201,97703;2,75369
1199,92587;2,76106
1197,87472;2,76934
1195,82356;2,77564
1193,77241;2,78185
1191,72125;2,78498
1189,6701;2,78537
1187,61894;2,7922
1185,56779;2,80497
1183,51663;2,81218
1181,46547;2,80744
1179,41432;2,80631
1177,36316;2,81775
1175,31201;2,82387
1173,26085;2,82446
1171,2097;2,8279
1169,15854;2,82548
1167,10739;2,81907
1165,05623;2,8172
1163,00508;2,81905
1160,95392;2,82176
1158,90277;2,82647
1156,85161;2,83015
1154,80046;2,82516
1152,7493;2,81534
1150,69814;2,81154
1148,64699;2,81365
1146,59583;2,81823
1144,54468;2,82361
1142,49352;2,82585
1140,44237;2,82735
1138,39121;2,82775
1136,34006;2,82605
1134,2889;2,8311
1132,23775;2,85018
1130,18659;2,87404
1128,13544;2,87911
1126,08428;2,86241
1124,03313;2,84741
1121,98197;2,84783
1119,93081;2,85966
1117,87966;2,87466
1115,8285;2,88416
1113,77735;2,88318
1111,72619;2,87307
1109,67504;2,8608
1107,62388;2,85656
1105,57273;2,85984
1103,52157;2,85687
1101,47042;2,85094
1099,41926;2,85951
1097,36811;2,86957
1095,31695;2,86194
1093,2658;2,85377
1091,21464;2,86073
1089,16348;2,86927
1087,11233;2,86249
1085,06117;2,84958
1083,01002;2,84414
1080,95886;2,84204
1078,90771;2,83617
1076,85655;2,83012
1074,8054;2,8287
1072,75424;2,82264
1070,70309;2,80759
1068,65193;2,79064
1066,60078;2,77058
1064,54962;2,75014
1062,49847;2,73644
1060,44731;2,72808
1058,39615;2,71745
1056,345;2,70263
1054,29384;2,69089
1052,24269;2,6796
1050,19153;2,66321
1048,14038;2,65068
1046,08922;2,64542
1044,03807;2,63745
1041,98691;2,63013
1039,93576;2,634
1037,8846;2,63916
1035,83345;2,63388
1033,78229;2,62835
1031,73114;2,63301
1029,67998;2,63979
1027,62882;2,63789
1025,57767;2,63465
1023,52651;2,64192
1021,47536;2,65079
1019,4242;2,64887
1017,37305;2,64091
1015,32189;2,63694
1013,27074;2,6387
1011,21958;2,64159
1009,16843;2,64351
1007,11727;2,64202
1005,06612;2,63746
1003,01496;2,63805
1000,96381;2,64968
998,91265;2,66357
996,86149;2,66728
994,81034;2,6672
992,75918;2,67081
990,70803;2,67619
988,65687;2,68283
986,60572;2,68695
984,55456;2,68742
982,50341;2,68984
980,45225;2,69915
978,4011;2,71086
976,34994;2,71414
974,29879;2,71149
972,24763;2,71003
970,19647;2,7113
968,14532;2,71881
966,09416;2,72319
964,04301;2,71834
961,99185;2,72075
959,9407;2,73099
957,88954;2,73529
955,83839;2,73238
953,78723;2,73235
951,73608;2,74231
949,68492;2,75384
947,63377;2,75946
945,58261;2,75963
943,53146;2,75953
941,4803;2,76402
939,42914;2,76921
937,37799;2,77596
935,32683;2,78376
933,27568;2,78617
931,22452;2,78933
929,17337;2,7943
927,12221;2,79143
925,07106;2,78399
923,0199;2,78705
920,96875;2,80148
918,91759;2,80387
916,86644;2,78882
914,81528;2,77832
912,76413;2,77052
910,71297;2,76192
908,66181;2,763
906,61066;2,76462
904,5595;2,75678
902,50835;2,74556
900,45719;2,73219
898,40604;2,71256
896,35488;2,69262
894,30373;2,68226
892,25257;2,67145
890,20142;2,64696
888,15026;2,631
886,09911;2,64198
884,04795;2,66477
881,9968;2,69053
879,94564;2,71642
877,89448;2,73423
875,84333;2,7537
873,79217;2,76848
871,74102;2,76864
869,68986;2,77946
867,63871;2,80304
865,58755;2,80916
863,5364;2,79577
861,48524;2,78613
859,43409;2,78991
857,38293;2,79846
855,33178;2,8057
853,28062;2,81604
851,22947;2,82458
849,17831;2,82562
847,12715;2,82578
845,076;2,82292
843,02484;2,81524
840,97369;2,8161
838,92253;2,82364
836,87138;2,81914
834,82022;2,80187
832,76907;2,79788
830,71791;2,81006
828,66676;2,8187
826,6156;2,82156
824,56445;2,8214
822,51329;2,81941
820,46214;2,83105
818,41098;2,84646
816,35982;2,84986
814,30867;2,85149
812,25751;2,8572
810,20636;2,85957
808,1552;2,85166
806,10405;2,84808
804,05289;2,8722
802,00174;2,89834
799,95058;2,8775
797,89943;2,84594
795,84827;2,8483
793,79712;2,86395
791,74596;2,87791
789,69481;2,89556
787,64365;2,90495
785,59249;2,89552
783,54134;2,87887
781,49018;2,87226
779,43903;2,87551
777,38787;2,87169
775,33672;2,86492
773,28556;2,8737
771,23441;2,8882
769,18325;2,8964
767,1321;2,90596
765,08094;2,90677
763,02979;2,8831
760,97863;2,86941
758,92748;2,89299
756,87632;2,9232
754,82516;2,93506
752,77401;2,94244
750,72285;2,93649
748,6717;2,91359
746,62054;2,91065
744,56939;2,92826
742,51823;2,9273
740,46708;2,92257
738,41592;2,9441
736,36477;2,95899
734,31361;2,95235
732,26246;2,95183
730,2113;2,94376
728,16015;2,9234
726,10899;2,91049
724,05783;2,92699
722,00668;2,95915
719,95552;2,98274
717,90437;2,99767
715,85321;3,00172
713,80206;2,98848
711,7509;2,98779
709,69975;3,01342
707,64859;3,01983
705,59744;2,97526
703,54628;2,91912
701,49513;2,90534
699,44397;2,93727
697,39281;2,96222
695,34166;2,95227
693,2905;2,94056
691,23935;2,9415
689,18819;2,9294
687,13704;2,90929
685,08588;2,91913
683,03473;2,95525
680,98357;2,97999
678,93242;2,97181
676,88126;2,94002
674,83011;2,9128
672,77895;2,91092
670,7278;2,91872
668,67664;2,91296
666,62548;2,91369
664,57433;2,94456
662,52317;2,98727
660,47202;3,00141
658,42086;2,98057
656,36971;2,96625
654,31855;2,96515
652,2674;2,95756
650,21624;2,97125
648,16509;3,02586
646,11393;3,06438
644,06278;3,03232
642,01162;2,96659
639,96047;2,92344
637,90931;2,90566
635,85815;2,89413
633,807;2,90026
631,75584;2,93608
629,70469;2,96262
627,65353;2,95051
625,60238;2,92685
623,55122;2,89104
621,50007;2,86131
619,44891;2,85545
617,39776;2,86296
615,3466;2,86971
613,29545;2,88581
611,24429;2,93619
609,19314;2,98602
607,14198;2,95729
605,09082;2,88744
603,03967;2,85822
600,98851;2,87003
598,93736;2,88113
596,8862;2,86153
594,83505;2,84068
592,78389;2,83397
590,73274;2,83198
588,68158;2,8477
586,63043;2,85462
584,57927;2,83185
582,52812;2,80041
580,47696;2,77951
578,42581;2,78376
576,37465;2,79605
574,32349;2,7957
572,27234;2,7842
570,22118;2,76905
568,17003;2,74794
566,11887;2,71797
564,06772;2,72224
562,01656;2,76506
559,96541;2,77244
557,91425;2,74501
555,8631;2,74681
553,81194;2,7618
551,76079;2,74978
549,70963;2,73091
547,65848;2,72101
545,60732;2,70493
543,55616;2,6775
541,50501;2,66095
539,45385;2,66882
537,4027;2,68209
535,35154;2,67674
533,30039;2,65034
531,24923;2,63231
529,19808;2,62935
527,14692;2,61059
525,09577;2,57733
523,04461;2,55725
520,99346;2,55967
518,9423;2,58243
516,89115;2,60272
514,83999;2,61209
512,78883;2,62498
510,73768;2,64383
508,68652;2,65128
506,63537;2,65443
504,58421;2,66092
502,53306;2,66738
500,4819;2,68441
498,43075;2,69641
496,37959;2,69544
494,32844;2,69525
492,27728;2,68267
490,22613;2,64664
488,17497;2,60064
486,12382;2,57199
484,07266;2,56288
482,0215;2,54486
479,97035;2,52385
477,91919;2,51867
475,86804;2,51152
473,81688;2,49362
471,76573;2,47687
469,71457;2,45404
467,66342;2,41974
465,61226;2,39086
463,56111;2,38258
461,50995;2,38774
459,4588;2,3974
457,40764;2,41474
455,35649;2,43199
453,30533;2,44639
451,25417;2,46997
449,20302;2,48369
447,15186;2,4615
445,10071;2,43022
443,04955;2,41881
440,9984;2,42024
438,94724;2,42896
436,89609;2,45248
434,84493;2,4738
432,79378;2,47273
430,74262;2,46484
428,69147;2,46538
426,64031;2,46542
424,58916;2,46997
422,538;2,50624
420,48684;2,55667
418,43569;2,55716
416,38453;2,49849
414,33338;2,44338
412,28222;2,42204
410,23107;2,41388
408,17991;2,40514
406,12876;2,39529
404,0776;2,37727
402,02645;2,35135
399,97529;2,33503
