3997,70175;1,88211
3995,6506;1,88203
3993,59944;1,88243
3991,54829;1,88401
3989,49713;1,88655
3987,44598;1,88924
3985,39482;1,89054
3983,34367;1,88948
3981,29251;1,88698
3979,24136;1,88579
3977,1902;1,8869
3975,13905;1,88898
3973,08789;1,89093
3971,03673;1,89155
3968,98558;1,89131
3966,93442;1,89237
3964,88327;1,89439
3962,83211;1,89586
3960,78096;1,89736
3958,7298;1,89935
3956,67865;1,9015
3954,62749;1,90398
3952,57634;1,90682
3950,52518;1,90872
3948,47403;1,90929
3946,42287;1,9106
3944,37172;1,9114
3942,32056;1,90919
3940,2694;1,90521
3938,21825;1,90153
3936,16709;1,89953
3934,11594;1,89937
3932,06478;1,89947
3930,01363;1,89744
3927,96247;1,89289
3925,91132;1,88697
3923,86016;1,88147
3921,80901;1,87715
3919,75785;1,8729
3917,7067;1,86829
3915,65554;1,86433
3913,60439;1,86109
3911,55323;1,85784
3909,50207;1,85616
3907,45092;1,85657
3905,39976;1,85595
3903,34861;1,85318
3901,29745;1,85017
3899,2463;1,84709
3897,19514;1,84511
3895,14399;1,84457
3893,09283;1,84348
3891,04168;1,8425
3888,99052;1,84347
3886,93937;1,84204
3884,88821;1,83965
3882,83706;1,84023
3880,7859;1,84089
3878,73474;1,84125
3876,68359;1,84088
3874,63243;1,84046
3872,58128;1,84092
3870,53012;1,83863
3868,47897;1,83649
3866,42781;1,83545
3864,37666;1,83345
3862,3255;1,83138
3860,27435;1,83015
3858,22319;1,83033
3856,17204;1,82874
3854,12088;1,82447
3852,06973;1,82373
3850,01857;1,82495
3847,96741;1,82422
3845,91626;1,82388
3843,8651;1,82595
3841,81395;1,82828
3839,76279;1,82707
3837,71164;1,82475
3835,66048;1,82517
3833,60933;1,82535
3831,55817;1,82422
3829,50702;1,8246
3827,45586;1,82631
3825,40471;1,82904
3823,35355;1,82963
3821,3024;1,8276
3819,25124;1,82828
3817,20008;1,82717
3815,14893;1,82455
3813,09777;1,825
3811,04662;1,82659
3808,99546;1,82706
3806,94431;1,82776
3804,89315;1,8322
3802,842;1,835
3800,79084;1,83584
3798,73969;1,83717
3796,68853;1,83573
3794,63738;1,8341
3792,58622;1,83412
3790,53506;1,83528
3788,48391;1,83696
3786,43275;1,83796
3784,3816;1,8388
3782,33044;1,84052
3780,27929;1,84179
3778,22813;1,84299
3776,17698;1,84412
3774,12582;1,84488
3772,07467;1,84581
3770,02351;1,84737
3767,97236;1,85035
3765,9212;1,85259
3763,87005;1,85434
3761,81889;1,85633
3759,76773;1,85959
3757,71658;1,86469
3755,66542;1,86925
3753,61427;1,87205
3751,56311;1,87482
3749,51196;1,87902
3747,4608;1,88178
3745,40965;1,88045
3743,35849;1,88463
3741,30734;1,89506
3739,25618;1,90278
3737,20503;1,90754
3735,15387;1,91091
3733,10272;1,91338
3731,05156;1,91713
3729,0004;1,92253
3726,94925;1,92816
3724,89809;1,93628
3722,84694;1,94673
3720,79578;1,95743
3718,74463;1,96738
3716,69347;1,97754
3714,64232;1,98888
3712,59116;2,00361
3710,54001;2,02421
3708,48885;2,04623
3706,4377;2,06634
3704,38654;2,08831
3702,33539;2,11755
3700,28423;2,15402
3698,23307;2,19013
3696,18192;2,22092
3694,13076;2,24449
3692,07961;2,25736
3690,02845;2,25878
3687,9773;2,25654
3685,92614;2,26019
3683,87499;2,269
3681,82383;2,28234
3679,77268;2,30208
3677,72152;2,32716
3675,67037;2,3545
3673,61921;2,38093
3671,56806;2,39812
3669,5169;2,41005
3667,46574;2,42772
3665,41459;2,44741
3663,36343;2,46298
3661,31228;2,47573
3659,26112;2,48866
3657,20997;2,5023
3655,15881;2,52166
3653,10766;2,54883
3651,0565;2,57957
3649,00535;2,60815
3646,95419;2,62335
3644,90304;2,62667
3642,85188;2,62797
3640,80073;2,63081
3638,74957;2,634
3636,69841;2,63727
3634,64726;2,64171
3632,5961;2,65041
3630,54495;2,65958
3628,49379;2,66161
3626,44264;2,65856
3624,39148;2,65729
3622,34033;2,66008
3620,28917;2,66405
3618,23802;2,66994
3616,18686;2,67657
3614,13571;2,67473
3612,08455;2,66395
3610,0334;2,65409
3607,98224;2,65293
3605,93108;2,66242
3603,87993;2,6752
3601,82877;2,6818
3599,77762;2,67957
3597,72646;2,67157
3595,67531;2,66355
3593,62415;2,66034
3591,573;2,6638
3589,52184;2,67208
3587,47069;2,6776
3585,41953;2,67769
3583,36838;2,6811
3581,31722;2,68861
3579,26607;2,68988
3577,21491;2,68348
3575,16375;2,67956
3573,1126;2,68233
3571,06144;2,68702
3569,01029;2,68752
3566,95913;2,68454
3564,90798;2,6864
3562,85682;2,69303
3560,80567;2,69761
3558,75451;2,69659
3556,70336;2,69037
3554,6522;2,68488
3552,60105;2,68553
3550,54989;2,69443
3548,49874;2,70688
3546,44758;2,71142
3544,39642;2,70628
3542,34527;2,7018
3540,29411;2,7087
3538,24296;2,72459
3536,1918;2,73134
3534,14065;2,724
3532,08949;2,71875
3530,03834;2,72459
3527,98718;2,73187
3525,93603;2,72993
3523,88487;2,72464
3521,83372;2,72281
3519,78256;2,72016
3517,73141;2,71537
3515,68025;2,71344
3513,62909;2,7148
3511,57794;2,7129
3509,52678;2,70787
3507,47563;2,70627
3505,42447;2,71044
3503,37332;2,71942
3501,32216;2,72611
3499,27101;2,72376
3497,21985;2,71433
3495,1687;2,70524
3493,11754;2,70329
3491,06639;2,70752
3489,01523;2,70971
3486,96407;2,70724
3484,91292;2,70696
3482,86176;2,71155
3480,81061;2,71218
3478,75945;2,70601
3476,7083;2,70616
3474,65714;2,71735
3472,60599;2,72738
3470,55483;2,73156
3468,50368;2,73509
3466,45252;2,73696
3464,40137;2,73558
3462,35021;2,73171
3460,29906;2,72519
3458,2479;2,71994
3456,19674;2,72093
3454,14559;2,72866
3452,09443;2,73661
3450,04328;2,73916
3447,99212;2,73878
3445,94097;2,73831
3443,88981;2,737
3441,83866;2,73806
3439,7875;2,74212
3437,73635;2,74022
3435,68519;2,73704
3433,63404;2,74039
3431,58288;2,73575
3429,53173;2,7195
3427,48057;2,71337
3425,42941;2,72519
3423,37826;2,73909
3421,3271;2,74234
3419,27595;2,73892
3417,22479;2,73382
3415,17364;2,72805
3413,12248;2,72144
3411,07133;2,72032
3409,02017;2,73079
3406,96902;2,74079
3404,91786;2,73927
3402,86671;2,73317
3400,81555;2,7304
3398,7644;2,72859
3396,71324;2,72439
3394,66208;2,7192
3392,61093;2,71518
3390,55977;2,71721
3388,50862;2,72451
3386,45746;2,73043
3384,40631;2,72824
3382,35515;2,71825
3380,304;2,71558
3378,25284;2,72771
3376,20169;2,74101
3374,15053;2,7382
3372,09938;2,72174
3370,04822;2,71238
3367,99707;2,71593
3365,94591;2,72232
3363,89475;2,72816
3361,8436;2,73132
3359,79244;2,72461
3357,74129;2,7131
3355,69013;2,70822
3353,63898;2,71304
3351,58782;2,72313
3349,53667;2,72721
3347,48551;2,72262
3345,43436;2,72347
3343,3832;2,7314
3341,33205;2,73374
3339,28089;2,73045
3337,22974;2,72598
3335,17858;2,72147
3333,12742;2,71939
3331,07627;2,71822
3329,02511;2,71687
3326,97396;2,71698
3324,9228;2,72108
3322,87165;2,73042
3320,82049;2,73709
3318,76934;2,73353
3316,71818;2,72445
3314,66703;2,72034
3312,61587;2,72294
3310,56472;2,72438
3308,51356;2,72371
3306,46241;2,72184
3304,41125;2,71472
3302,36009;2,70727
3300,30894;2,70686
3298,25778;2,71109
3296,20663;2,71522
3294,15547;2,71756
3292,10432;2,71835
3290,05316;2,71687
3288,00201;2,70906
3285,95085;2,69809
3283,8997;2,69496
3281,84854;2,69866
3279,79739;2,70079
3277,74623;2,70174
3275,69508;2,70424
3273,64392;2,70537
3271,59276;2,70084
3269,54161;2,69107
3267,49045;2,68392
3265,4393;2,68427
3263,38814;2,68671
3261,33699;2,68914
3259,28583;2,69585
3257,23468;2,70233
3255,18352;2,70309
3253,13237;2,70237
3251,08121;2,69862
3249,03006;2,68796
3246,9789;2,68009
3244,92775;2,68184
3242,87659;2,68795
3240,82543;2,69451
3238,77428;2,69604
3236,72312;2,69182
3234,67197;2,68774
3232,62081;2,68083
3230,56966;2,67281
3228,5185;2,67208
3226,46735;2,67742
3224,41619;2,68188
3222,36504;2,68251
3220,31388;2,68211
3218,26273;2,68305
3216,21157;2,68458
3214,16041;2,68397
3212,10926;2,67975
3210,0581;2,67592
3208,00695;2,67596
3205,95579;2,67839
3203,90464;2,67844
3201,85348;2,67397
3199,80233;2,67371
3197,75117;2,68168
3195,70002;2,68688
3193,64886;2,68393
3191,59771;2,6781
3189,54655;2,67399
3187,4954;2,67435
3185,44424;2,67754
3183,39308;2,67976
3181,34193;2,67705
3179,29077;2,67085
3177,23962;2,66849
3175,18846;2,66932
3173,13731;2,67215
3171,08615;2,68119
3169,035;2,68811
3166,98384;2,68457
3164,93269;2,67534
3162,88153;2,66669
3160,83038;2,66566
3158,77922;2,67327
3156,72807;2,67791
3154,67691;2,67523
3152,62575;2,67009
3150,5746;2,66006
3148,52344;2,65064
3146,47229;2,65417
3144,42113;2,66313
3142,36998;2,66714
3140,31882;2,67299
3138,26767;2,68024
3136,21651;2,68045
3134,16536;2,67547
3132,1142;2,67208
3130,06305;2,67256
3128,01189;2,67122
3125,96074;2,66424
3123,90958;2,65921
3121,85842;2,66063
3119,80727;2,66384
3117,75611;2,66641
3115,70496;2,66774
3113,6538;2,66744
3111,60265;2,66679
3109,55149;2,66535
3107,50034;2,66218
3105,44918;2,66098
3103,39803;2,66378
3101,34687;2,66506
3099,29572;2,66476
3097,24456;2,66882
3095,19341;2,67467
3093,14225;2,67678
3091,09109;2,67395
3089,03994;2,66704
3086,98878;2,65903
3084,93763;2,6522
3082,88647;2,64722
3080,83532;2,64855
3078,78416;2,65979
3076,73301;2,6694
3074,68185;2,66673
3072,6307;2,6595
3070,57954;2,65513
3068,52839;2,65405
3066,47723;2,65448
3064,42608;2,65345
3062,37492;2,65249
3060,32376;2,65386
3058,27261;2,65622
3056,22145;2,65744
3054,1703;2,65642
3052,11914;2,6533
3050,06799;2,65164
3048,01683;2,65482
3045,96568;2,65733
3043,91452;2,65563
3041,86337;2,6569
3039,81221;2,66048
3037,76106;2,6589
3035,7099;2,65477
3033,65875;2,65346
3031,60759;2,6544
3029,55643;2,65848
3027,50528;2,6679
3025,45412;2,67836
3023,40297;2,68275
3021,35181;2,67852
3019,30066;2,66898
3017,2495;2,66394
3015,19835;2,66839
3013,14719;2,67505
3011,09604;2,67828
3009,04488;2,67794
3006,99373;2,67129
3004,94257;2,66231
3002,89142;2,66146
3000,84026;2,66714
2998,7891;2,67055
2996,73795;2,67268
2994,68679;2,67883
2992,63564;2,68121
2990,58448;2,6767
2988,53333;2,67479
2986,48217;2,67571
2984,43102;2,67747
2982,37986;2,68394
2980,32871;2,69052
2978,27755;2,69203
2976,2264;2,69241
2974,17524;2,69272
2972,12409;2,69527
2970,07293;2,70523
2968,02177;2,71517
2965,97062;2,71684
2963,91946;2,71709
2961,86831;2,71953
2959,81715;2,7181
2957,766;2,71499
2955,71484;2,71261
2953,66369;2,70688
2951,61253;2,70552
2949,56138;2,7143
2947,51022;2,72467
2945,45907;2,73005
2943,40791;2,72813
2941,35675;2,72575
2939,3056;2,72674
2937,25444;2,72177
2935,20329;2,71789
2933,15213;2,71859
2931,10098;2,71036
2929,04982;2,69799
2926,99867;2,68699
2924,94751;2,67192
2922,89636;2,65454
2920,8452;2,64062
2918,79405;2,63515
2916,74289;2,6347
2914,69174;2,63287
2912,64058;2,63299
2910,58942;2,63603
2908,53827;2,6396
2906,48711;2,64572
2904,43596;2,65048
2902,3848;2,64795
2900,33365;2,64135
2898,28249;2,63792
2896,23134;2,63841
2894,18018;2,63787
2892,12903;2,63637
2890,07787;2,63801
2888,02672;2,6442
2885,97556;2,64758
2883,92441;2,64301
2881,87325;2,63682
2879,82209;2,63769
2877,77094;2,64583
2875,71978;2,65437
2873,66863;2,66094
2871,61747;2,66469
2869,56632;2,6619
2867,51516;2,65872
2865,46401;2,66376
2863,41285;2,66923
2861,3617;2,66687
2859,31054;2,66804
2857,25939;2,6737
2855,20823;2,66817
2853,15708;2,65335
2851,10592;2,64139
2849,05476;2,63326
2847,00361;2,6274
2844,95245;2,6233
2842,9013;2,61885
2840,85014;2,61613
2838,79899;2,61661
2836,74783;2,6162
2834,69668;2,612
2832,64552;2,60487
2830,59437;2,59668
2828,54321;2,58758
2826,49206;2,5798
2824,4409;2,57886
2822,38975;2,58063
2820,33859;2,57722
2818,28743;2,57087
2816,23628;2,56384
2814,18512;2,55463
2812,13397;2,54575
2810,08281;2,54058
2808,03166;2,53809
2805,9805;2,53594
2803,92935;2,53481
2801,87819;2,53709
2799,82704;2,53789
2797,77588;2,52986
2795,72473;2,51743
2793,67357;2,50975
2791,62242;2,50716
2789,57126;2,5046
2787,5201;2,50262
2785,46895;2,50234
2783,41779;2,5028
2781,36664;2,5045
2779,31548;2,50425
2777,26433;2,49875
2775,21317;2,49318
2773,16202;2,49243
2771,11086;2,49199
2769,05971;2,48707
2767,00855;2,48192
2764,9574;2,48267
2762,90624;2,48471
2760,85509;2,47945
2758,80393;2,4711
2756,75277;2,46615
2754,70162;2,46195
2752,65046;2,45943
2750,59931;2,46073
2748,54815;2,46277
2746,497;2,46303
2744,44584;2,46169
2742,39469;2,46057
2740,34353;2,45832
2738,29238;2,4553
2736,24122;2,45556
2734,19007;2,45812
2732,13891;2,45785
2730,08776;2,45394
2728,0366;2,44895
2725,98544;2,44434
2723,93429;2,44285
2721,88313;2,44351
2719,83198;2,44111
2717,78082;2,43787
2715,72967;2,43674
2713,67851;2,4339
2711,62736;2,43083
2709,5762;2,43006
2707,52505;2,43006
2705,47389;2,4317
2703,42274;2,4325
2701,37158;2,42871
2699,32043;2,4234
2697,26927;2,42283
2695,21811;2,426
2693,16696;2,42652
2691,1158;2,42523
2689,06465;2,42473
2687,01349;2,42349
2684,96234;2,42166
2682,91118;2,41872
2680,86003;2,4162
2678,80887;2,41889
2676,75772;2,42274
2674,70656;2,42143
2672,65541;2,41917
2670,60425;2,41904
2668,55309;2,4174
2666,50194;2,41518
2664,45078;2,41552
2662,39963;2,41689
2660,34847;2,41783
2658,29732;2,41802
2656,24616;2,41702
2654,19501;2,41571
2652,14385;2,41652
2650,0927;2,41968
2648,04154;2,42206
2645,99039;2,4222
2643,93923;2,42173
2641,88808;2,42271
2639,83692;2,42647
2637,78576;2,43089
2635,73461;2,43368
2633,68345;2,43808
2631,6323;2,44418
2629,58114;2,44745
2627,52999;2,44912
2625,47883;2,45327
2623,42768;2,45958
2621,37652;2,46363
2619,32537;2,46295
2617,27421;2,46164
2615,22306;2,46338
2613,1719;2,46588
2611,12075;2,46631
2609,06959;2,46508
2607,01843;2,46463
2604,96728;2,46587
2602,91612;2,46655
2600,86497;2,46816
2598,81381;2,47297
2596,76266;2,47613
2594,7115;2,47474
2592,66035;2,47409
2590,60919;2,47702
2588,55804;2,47991
2586,50688;2,48141
2584,45573;2,4833
2582,40457;2,48596
2580,35342;2,48751
2578,30226;2,48688
2576,2511;2,48492
2574,19995;2,48285
2572,14879;2,4815
2570,09764;2,48096
2568,04648;2,48309
2565,99533;2,48757
2563,94417;2,4912
2561,89302;2,49308
2559,84186;2,49432
2557,79071;2,49684
2555,73955;2,50076
2553,6884;2,50339
2551,63724;2,50423
2549,58609;2,50614
2547,53493;2,50804
2545,48377;2,50836
2543,43262;2,5091
2541,38146;2,50986
2539,33031;2,5112
2537,27915;2,51602
2535,228;2,52356
2533,17684;2,52882
2531,12569;2,53111
2529,07453;2,53663
2527,02338;2,54766
2524,97222;2,55697
2522,92107;2,55768
2520,86991;2,55507
2518,81876;2,55766
2516,7676;2,564
2514,71644;2,56822
2512,66529;2,56502
2510,61413;2,55456
2508,56298;2,54497
2506,51182;2,53885
2504,46067;2,53163
2502,40951;2,52262
2500,35836;2,51349
2498,3072;2,50392
2496,25605;2,49322
2494,20489;2,47981
2492,15374;2,46473
2490,10258;2,45278
2488,05143;2,44476
2486,00027;2,4384
2483,94911;2,4312
2481,89796;2,42249
2479,8468;2,41371
2477,79565;2,40422
2475,74449;2,39497
2473,69334;2,38656
2471,64218;2,37694
2469,59103;2,36638
2467,53987;2,35685
2465,48872;2,3497
2463,43756;2,34411
2461,38641;2,33783
2459,33525;2,33104
2457,2841;2,32567
2455,23294;2,32197
2453,18178;2,31933
2451,13063;2,3172
2449,07947;2,31468
2447,02832;2,30924
2444,97716;2,29998
2442,92601;2,29303
2440,87485;2,29218
2438,8237;2,29295
2436,77254;2,29036
2434,72139;2,28451
2432,67023;2,2799
2430,61908;2,27865
2428,56792;2,27867
2426,51677;2,27809
2424,46561;2,2762
2422,41445;2,2733
2420,3633;2,27053
2418,31214;2,26846
2416,26099;2,26606
2414,20983;2,26291
2412,15868;2,26138
2410,10752;2,26141
2408,05637;2,25997
2406,00521;2,25808
2403,95406;2,25744
2401,9029;2,25729
2399,85175;2,25657
2397,80059;2,25476
2395,74944;2,25319
2393,69828;2,25286
2391,64712;2,25202
2389,59597;2,24963
2387,54481;2,2476
2385,49366;2,24745
2383,4425;2,24802
2381,39135;2,24822
2379,34019;2,24929
2377,28904;2,25234
2375,23788;2,25658
2373,18673;2,26072
2371,13557;2,26308
2369,08442;2,26205
2367,03326;2,25753
2364,9821;2,25029
2362,93095;2,24413
2360,87979;2,24392
2358,82864;2,24776
2356,77748;2,25068
2354,72633;2,25143
2352,67517;2,25151
2350,62402;2,25266
2348,57286;2,25407
2346,52171;2,25335
2344,47055;2,25026
2342,4194;2,24723
2340,36824;2,24634
2338,31709;2,24705
2336,26593;2,24826
2334,21477;2,25099
2332,16362;2,25483
2330,11246;2,25676
2328,06131;2,25611
2326,01015;2,2551
2323,959;2,25464
2321,90784;2,25409
2319,85669;2,25371
2317,80553;2,25437
2315,75438;2,25395
2313,70322;2,25066
2311,65207;2,24774
2309,60091;2,24701
2307,54976;2,24729
2305,4986;2,24898
2303,44744;2,25188
2301,39629;2,25382
2299,34513;2,25381
2297,29398;2,2526
2295,24282;2,25111
2293,19167;2,2501
2291,14051;2,24928
2289,08936;2,24774
2287,0382;2,24637
2284,98705;2,24676
2282,93589;2,24824
2280,88474;2,24892
2278,83358;2,24836
2276,78243;2,2484
2274,73127;2,25057
2272,68011;2,25246
2270,62896;2,25141
2268,5778;2,24942
2266,52665;2,24967
2264,47549;2,25156
2262,42434;2,25337
2260,37318;2,25533
2258,32203;2,25702
2256,27087;2,25754
2254,21972;2,25795
2252,16856;2,25962
2250,11741;2,26178
2248,06625;2,26307
2246,0151;2,26289
2243,96394;2,26254
2241,91278;2,26342
2239,86163;2,26484
2237,81047;2,26561
2235,75932;2,26676
2233,70816;2,26849
2231,65701;2,26973
2229,60585;2,27173
2227,5547;2,27432
2225,50354;2,27554
2223,45239;2,27582
2221,40123;2,27648
2219,35008;2,27733
2217,29892;2,27741
2215,24777;2,27737
2213,19661;2,27954
2211,14545;2,28314
2209,0943;2,2845
2207,04314;2,28348
2204,99199;2,28162
2202,94083;2,28076
2200,88968;2,2822
2198,83852;2,28415
2196,78737;2,28559
2194,73621;2,28686
2192,68506;2,28819
2190,6339;2,28933
2188,58275;2,28975
2186,53159;2,29045
2184,48044;2,29346
2182,42928;2,29733
2180,37812;2,29833
2178,32697;2,29748
2176,27581;2,29689
2174,22466;2,29797
2172,1735;2,30131
2170,12235;2,3044
2168,07119;2,30657
2166,02004;2,30779
2163,96888;2,30819
2161,91773;2,30986
2159,86657;2,31406
2157,81542;2,32035
2155,76426;2,32568
2153,71311;2,32831
2151,66195;2,33148
2149,61079;2,33726
2147,55964;2,34231
2145,50848;2,3437
2143,45733;2,34389
2141,40617;2,34506
2139,35502;2,34658
2137,30386;2,34704
2135,25271;2,34517
2133,20155;2,34241
2131,1504;2,3395
2129,09924;2,33522
2127,04809;2,3305
2124,99693;2,32653
2122,94578;2,32168
2120,89462;2,31521
2118,84346;2,31027
2116,79231;2,30807
2114,74115;2,30723
2112,69;2,30732
2110,63884;2,30818
2108,58769;2,30838
2106,53653;2,30566
2104,48538;2,30107
2102,43422;2,29818
2100,38307;2,29754
2098,33191;2,29751
2096,28076;2,29752
2094,2296;2,29736
2092,17844;2,29717
2090,12729;2,29792
2088,07613;2,29906
2086,02498;2,29848
2083,97382;2,2969
2081,92267;2,29653
2079,87151;2,29753
2077,82036;2,29946
2075,7692;2,30112
2073,71805;2,3016
2071,66689;2,30236
2069,61574;2,30317
2067,56458;2,30334
2065,51343;2,30475
2063,46227;2,30773
2061,41111;2,31017
2059,35996;2,31136
2057,3088;2,31118
2055,25765;2,30885
2053,20649;2,30594
2051,15534;2,30477
2049,10418;2,30588
2047,05303;2,30936
2045,00187;2,31294
2042,95072;2,31401
2040,89956;2,31371
2038,84841;2,31423
2036,79725;2,31502
2034,7461;2,31533
2032,69494;2,31618
2030,64378;2,31809
2028,59263;2,32008
2026,54147;2,32091
2024,49032;2,32081
2022,43916;2,32082
2020,38801;2,32151
2018,33685;2,32287
2016,2857;2,32355
2014,23454;2,32289
2012,18339;2,32273
2010,13223;2,32449
2008,08108;2,32661
2006,02992;2,32791
2003,97877;2,32853
2001,92761;2,32763
1999,87645;2,32572
1997,8253;2,32576
1995,77414;2,32769
1993,72299;2,32885
1991,67183;2,33025
1989,62068;2,33263
1987,56952;2,33347
1985,51837;2,33302
1983,46721;2,33341
1981,41606;2,33512
1979,3649;2,33731
1977,31375;2,33998
1975,26259;2,34255
1973,21144;2,3433
1971,16028;2,34308
1969,10912;2,34369
1967,05797;2,34582
1965,00681;2,35116
1962,95566;2,358
1960,9045;2,3608
1958,85335;2,35741
1956,80219;2,35278
1954,75104;2,35162
1952,69988;2,35279
1950,64873;2,35401
1948,59757;2,3551
1946,54642;2,35631
1944,49526;2,35662
1942,44411;2,35535
1940,39295;2,35582
1938,34179;2,35938
1936,29064;2,36324
1934,23948;2,36522
1932,18833;2,36538
1930,13717;2,36448
1928,08602;2,36461
1926,03486;2,36663
1923,98371;2,36874
1921,93255;2,37005
1919,8814;2,36781
1917,83024;2,36344
1915,77909;2,36436
1913,72793;2,36949
1911,67678;2,37432
1909,62562;2,37739
1907,57446;2,38041
1905,52331;2,38373
1903,47215;2,38461
1901,421;2,38372
1899,36984;2,38364
1897,31869;2,38456
1895,26753;2,38812
1893,21638;2,39465
1891,16522;2,39907
1889,11407;2,40042
1887,06291;2,40085
1885,01176;2,39999
1882,9606;2,40046
1880,90945;2,40449
1878,85829;2,41132
1876,80713;2,41785
1874,75598;2,4212
1872,70482;2,42399
1870,65367;2,42824
1868,60251;2,43238
1866,55136;2,43526
1864,5002;2,43655
1862,44905;2,43705
1860,39789;2,43757
1858,34674;2,43935
1856,29558;2,44251
1854,24443;2,44544
1852,19327;2,44871
1850,14212;2,4545
1848,09096;2,46175
1846,0398;2,46647
1843,98865;2,4692
1841,93749;2,47352
1839,88634;2,47782
1837,83518;2,48224
1835,78403;2,48918
1833,73287;2,49878
1831,68172;2,50843
1829,63056;2,51718
1827,57941;2,52646
1825,52825;2,53621
1823,4771;2,54685
1821,42594;2,55528
1819,37478;2,56037
1817,32363;2,56567
1815,27247;2,57215
1813,22132;2,57822
1811,17016;2,58506
1809,11901;2,59394
1807,06785;2,60331
1805,0167;2,6125
1802,96554;2,62109
1800,91439;2,62789
1798,86323;2,63254
1796,81208;2,63736
1794,76092;2,64264
1792,70977;2,64184
1790,65861;2,63551
1788,60745;2,63131
1786,5563;2,62926
1784,50514;2,6279
1782,45399;2,6261
1780,40283;2,6223
1778,35168;2,61896
1776,30052;2,61938
1774,24937;2,62388
1772,19821;2,63167
1770,14706;2,64255
1768,0959;2,65466
1766,04475;2,66912
1763,99359;2,68725
1761,94244;2,70922
1759,89128;2,73
1757,84012;2,74145
1755,78897;2,74636
1753,73781;2,75004
1751,68666;2,75194
1749,6355;2,75097
1747,58435;2,74415
1745,53319;2,73099
1743,48204;2,71312
1741,43088;2,69343
1739,37973;2,67964
1737,32857;2,67497
1735,27742;2,6693
1733,22626;2,66264
1731,17511;2,65968
1729,12395;2,65607
1727,07279;2,65361
1725,02164;2,65397
1722,97048;2,65723
1720,91933;2,66199
1718,86817;2,66318
1716,81702;2,66313
1714,76586;2,66591
1712,71471;2,66915
1710,66355;2,67357
1708,6124;2,67959
1706,56124;2,68343
1704,51009;2,68766
1702,45893;2,69598
1700,40778;2,70801
1698,35662;2,72021
1696,30546;2,71796
1694,25431;2,70997
1692,20315;2,70945
1690,152;2,71394
1688,10084;2,72152
1686,04969;2,72834
1683,99853;2,73374
1681,94738;2,74012
1679,89622;2,74209
1677,84507;2,736
1675,79391;2,72202
1673,74276;2,71102
1671,6916;2,70748
1669,64045;2,70401
1667,58929;2,69909
1665,53813;2,69324
1663,48698;2,68701
1661,43582;2,68363
1659,38467;2,68271
1657,33351;2,68168
1655,28236;2,67196
1653,2312;2,65267
1651,18005;2,64729
1649,12889;2,64943
1647,07774;2,64172
1645,02658;2,63082
1642,97543;2,62512
1640,92427;2,62374
1638,87312;2,6224
1636,82196;2,61385
1634,7708;2,60207
1632,71965;2,5961
1630,66849;2,59082
1628,61734;2,58405
1626,56618;2,57869
1624,51503;2,57238
1622,46387;2,56612
1620,41272;2,56425
1618,36156;2,56109
1616,31041;2,55456
1614,25925;2,55135
1612,2081;2,55064
1610,15694;2,54953
1608,10579;2,54866
1606,05463;2,54754
1604,00347;2,54401
1601,95232;2,5392
1599,90116;2,53576
1597,85001;2,53302
1595,79885;2,52937
1593,7477;2,52534
1591,69654;2,5221
1589,64539;2,52004
1587,59423;2,51828
1585,54308;2,51389
1583,49192;2,50607
1581,44077;2,49861
1579,38961;2,4918
1577,33846;2,48145
1575,2873;2,47536
1573,23614;2,47901
1571,18499;2,4794
1569,13383;2,47424
1567,08268;2,47144
1565,03152;2,47175
1562,98037;2,47519
1560,92921;2,47616
1558,87806;2,47267
1556,8269;2,4732
1554,77575;2,4739
1552,72459;2,47189
1550,67344;2,46745
1548,62228;2,46393
1546,57113;2,46297
1544,51997;2,46081
1542,46881;2,45502
1540,41766;2,44636
1538,3665;2,44457
1536,31535;2,44785
1534,26419;2,44483
1532,21304;2,43878
1530,16188;2,43529
1528,11073;2,43345
1526,05957;2,43265
1524,00842;2,43105
1521,95726;2,42806
1519,90611;2,42688
1517,85495;2,42223
1515,80379;2,41403
1513,75264;2,41059
1511,70148;2,41441
1509,65033;2,41938
1507,59917;2,41367
1505,54802;2,4044
1503,49686;2,40553
1501,44571;2,4106
1499,39455;2,41409
1497,3434;2,41524
1495,29224;2,41648
1493,24109;2,41881
1491,18993;2,42063
1489,13878;2,42371
1487,08762;2,42635
1485,03646;2,4273
1482,98531;2,42905
1480,93415;2,43432
1478,883;2,44408
1476,83184;2,45686
1474,78069;2,47165
1472,72953;2,48593
1470,67838;2,49609
1468,62722;2,49855
1466,57607;2,49279
1464,52491;2,48513
1462,47376;2,48398
1460,4226;2,48722
1458,37145;2,48767
1456,32029;2,48313
1454,26913;2,47622
1452,21798;2,46948
1450,16682;2,46603
1448,11567;2,46524
1446,06451;2,46466
1444,01336;2,46279
1441,9622;2,4597
1439,91105;2,45417
1437,85989;2,44417
1435,80874;2,43808
1433,75758;2,44029
1431,70643;2,44035
1429,65527;2,43598
1427,60412;2,43255
1425,55296;2,43091
1423,5018;2,43133
1421,45065;2,43411
1419,39949;2,43816
1417,34834;2,44527
1415,29718;2,45294
1413,24603;2,45739
1411,19487;2,45861
1409,14372;2,46037
1407,09256;2,46479
1405,04141;2,46968
1402,99025;2,47418
1400,9391;2,4781
1398,88794;2,48152
1396,83679;2,48367
1394,78563;2,48334
1392,73447;2,48395
1390,68332;2,48679
1388,63216;2,49122
1386,58101;2,49725
1384,52985;2,50228
1382,4787;2,50351
1380,42754;2,50208
1378,37639;2,50196
1376,32523;2,50337
1374,27408;2,50351
1372,22292;2,50431
1370,17177;2,5049
1368,12061;2,50294
1366,06946;2,50135
1364,0183;2,50075
1361,96714;2,50022
1359,91599;2,50067
1357,86483;2,50265
1355,81368;2,50503
1353,76252;2,50494
1351,71137;2,50333
1349,66021;2,50303
1347,60906;2,50277
1345,5579;2,50216
1343,50675;2,50474
1341,45559;2,50943
1339,40444;2,51014
1337,35328;2,50759
1335,30213;2,50742
1333,25097;2,50954
1331,19981;2,50871
1329,14866;2,50413
1327,0975;2,50293
1325,04635;2,5082
1322,99519;2,51399
1320,94404;2,51732
1318,89288;2,5216
1316,84173;2,52763
1314,79057;2,53049
1312,73942;2,52804
1310,68826;2,52548
1308,63711;2,52591
1306,58595;2,52693
1304,5348;2,52764
1302,48364;2,52943
1300,43248;2,53305
1298,38133;2,5382
1296,33017;2,54316
1294,27902;2,54609
1292,22786;2,54652
1290,17671;2,54647
1288,12555;2,54739
1286,0744;2,5463
1284,02324;2,5438
1281,97209;2,54533
1279,92093;2,54947
1277,86978;2,55234
1275,81862;2,55576
1273,76747;2,55897
1271,71631;2,55945
1269,66515;2,55968
1267,614;2,56107
1265,56284;2,5623
1263,51169;2,56486
1261,46053;2,57049
1259,40938;2,57422
1257,35822;2,57175
1255,30707;2,56957
1253,25591;2,57361
1251,20476;2,57878
1249,1536;2,58049
1247,10245;2,58061
1245,05129;2,57985
1243,00013;2,57895
1240,94898;2,57749
1238,89782;2,57356
1236,84667;2,5694
1234,79551;2,56722
1232,74436;2,56774
1230,6932;2,5692
1228,64205;2,56844
1226,59089;2,56499
1224,53974;2,55932
1222,48858;2,5539
1220,43743;2,55174
1218,38627;2,55143
1216,33512;2,55093
1214,28396;2,55128
1212,2328;2,55267
1210,18165;2,55299
1208,13049;2,55109
1206,07934;2,54821
1204,02818;2,54516
1201,97703;2,54365
1199,92587;2,54699
1197,87472;2,55309
1195,82356;2,55986
1193,77241;2,56897
1191,72125;2,57641
1189,6701;2,57871
1187,61894;2,57876
1185,56779;2,57913
1183,51663;2,57942
1181,46547;2,57873
1179,41432;2,58021
1177,36316;2,58405
1175,31201;2,58624
1173,26085;2,58822
1171,2097;2,58971
1169,15854;2,5872
1167,10739;2,58476
1165,05623;2,5857
1163,00508;2,58528
1160,95392;2,58258
1158,90277;2,58084
1156,85161;2,57823
1154,80046;2,57426
1152,7493;2,57261
1150,69814;2,57374
1148,64699;2,57452
1146,59583;2,57324
1144,54468;2,57155
1142,49352;2,57082
1140,44237;2,57157
1138,39121;2,57182
1136,34006;2,56988
1134,2889;2,57015
1132,23775;2,57526
1130,18659;2,58372
1128,13544;2,58956
1126,08428;2,58901
1124,03313;2,58902
1121,98197;2,59171
1119,93081;2,59376
1117,87966;2,59774
1115,8285;2,60206
1113,77735;2,59946
1111,72619;2,59439
1109,67504;2,59722
1107,62388;2,60245
1105,57273;2,59714
1103,52157;2,58573
1101,47042;2,57775
1099,41926;2,57197
1097,36811;2,56825
1095,31695;2,56713
1093,2658;2,56962
1091,21464;2,57755
1089,16348;2,58034
1087,11233;2,57142
1085,06117;2,56092
1083,01002;2,55439
1080,95886;2,55103
1078,90771;2,55007
1076,85655;2,54885
1074,8054;2,54463
1072,75424;2,53676
1070,70309;2,53042
1068,65193;2,5268
1066,60078;2,52115
1064,54962;2,51551
1062,49847;2,51136
1060,44731;2,50741
1058,39615;2,50154
1056,345;2,48822
1054,29384;2,46853
1052,24269;2,4529
1050,19153;2,44327
1048,14038;2,4321
1046,08922;2,4215
1044,03807;2,4158
1041,98691;2,40955
1039,93576;2,40085
1037,8846;2,39523
1035,83345;2,3933
1033,78229;2,39251
1031,73114;2,39024
1029,67998;2,38437
1027,62882;2,3793
1025,57767;2,37803
1023,52651;2,37714
1021,47536;2,37567
1019,4242;2,37445
1017,37305;2,37247
1015,32189;2,37053
1013,27074;2,36845
1011,21958;2,36432
1009,16843;2,36121
1007,11727;2,36271
1005,06612;2,36582
1003,01496;2,36723
1000,96381;2,36788
998,91265;2,36956
996,86149;2,37262
994,81034;2,37524
992,75918;2,3756
990,70803;2,37534
988,65687;2,37762
986,60572;2,3834
984,55456;2,38723
982,50341;2,38488
980,45225;2,38302
978,4011;2,38485
976,34994;2,38965
974,29879;2,39967
972,24763;2,40822
970,19647;2,40836
968,14532;2,40504
966,09416;2,40423
964,04301;2,4064
961,99185;2,40977
959,9407;2,41206
957,88954;2,41362
955,83839;2,41757
953,78723;2,41985
951,73608;2,41658
949,68492;2,41581
947,63377;2,42232
945,58261;2,42925
943,53146;2,43391
941,4803;2,44087
939,42914;2,44968
937,37799;2,45501
935,32683;2,45417
933,27568;2,44988
931,22452;2,44634
929,17337;2,44668
927,12221;2,44843
925,07106;2,44825
923,0199;2,45103
920,96875;2,45454
918,91759;2,45316
916,86644;2,4481
914,81528;2,44223
912,76413;2,44263
910,71297;2,44713
908,66181;2,44533
906,61066;2,43979
904,5595;2,43846
902,50835;2,43907
900,45719;2,43468
898,40604;2,4271
896,35488;2,42355
894,30373;2,42184
892,25257;2,41639
890,20142;2,40987
888,15026;2,40763
886,09911;2,41265
884,04795;2,42006
881,9968;2,42306
879,94564;2,42376
877,89448;2,42497
875,84333;2,42709
873,79217;2,4297
871,74102;2,43347
869,68986;2,44317
867,63871;2,45486
865,58755;2,45767
863,5364;2,45312
861,48524;2,44951
859,43409;2,45155
857,38293;2,45959
855,33178;2,46873
853,28062;2,47292
851,22947;2,47328
849,17831;2,47296
847,12715;2,47423
845,076;2,48181
843,02484;2,49147
840,97369;2,49478
838,92253;2,49265
836,87138;2,4895
834,82022;2,48846
832,76907;2,49053
830,71791;2,49483
828,66676;2,49967
826,6156;2,50157
824,56445;2,49927
822,51329;2,49766
820,46214;2,50171
818,41098;2,50952
816,35982;2,51504
814,30867;2,51605
812,25751;2,5138
810,20636;2,5078
808,1552;2,49954
806,10405;2,49344
804,05289;2,49063
802,00174;2,49097
799,95058;2,49969
797,89943;2,50958
795,84827;2,50611
793,79712;2,50157
791,74596;2,50449
789,69481;2,5021
787,64365;2,49445
785,59249;2,49676
783,54134;2,50698
781,49018;2,50456
779,43903;2,49184
777,38787;2,49068
775,33672;2,50166
773,28556;2,5116
771,23441;2,51514
769,18325;2,51362
767,1321;2,51246
765,08094;2,50997
763,02979;2,50377
760,97863;2,4999
758,92748;2,49762
756,87632;2,4992
754,82516;2,50628
752,77401;2,51002
750,72285;2,51344
748,6717;2,52077
746,62054;2,5248
744,56939;2,52371
742,51823;2,52
740,46708;2,51746
738,41592;2,52103
736,36477;2,52927
734,31361;2,53084
732,26246;2,52283
730,2113;2,52153
728,16015;2,53047
726,10899;2,53373
724,05783;2,52489
722,00668;2,51585
719,95552;2,51346
717,90437;2,51133
715,85321;2,51083
713,80206;2,51953
711,7509;2,52706
709,69975;2,52162
707,64859;2,5143
705,59744;2,51923
703,54628;2,5303
701,49513;2,53216
699,44397;2,52242
697,39281;2,51264
695,34166;2,5099
693,2905;2,51098
691,23935;2,5083
689,18819;2,50268
687,13704;2,50814
685,08588;2,5238
683,03473;2,5324
680,98357;2,53254
678,93242;2,53352
676,88126;2,53413
674,83011;2,53007
672,77895;2,52535
670,7278;2,52585
668,67664;2,53505
666,62548;2,54598
664,57433;2,54535
662,52317;2,53772
660,47202;2,53084
658,42086;2,52004
656,36971;2,51017
654,31855;2,51529
652,2674;2,53219
650,21624;2,54595
648,16509;2,54729
646,11393;2,53975
644,06278;2,53158
642,01162;2,52855
639,96047;2,53158
637,90931;2,53345
635,85815;2,52856
633,807;2,52578
631,75584;2,53169
629,70469;2,53375
627,65353;2,52879
625,60238;2,53526
623,55122;2,5464
621,50007;2,54756
619,44891;2,5456
617,39776;2,54575
615,3466;2,54373
613,29545;2,5439
611,24429;2,54246
609,19314;2,53086
607,14198;2,51606
605,09082;2,50989
603,03967;2,50933
600,98851;2,51082
598,93736;2,51903
596,8862;2,52801
594,83505;2,53274
592,78389;2,53484
590,73274;2,53041
588,68158;2,51841
586,63043;2,50326
584,57927;2,48846
582,52812;2,48621
580,47696;2,50729
578,42581;2,53229
576,37465;2,52655
574,32349;2,49697
572,27234;2,47974
570,22118;2,48036
568,17003;2,47792
566,11887;2,46442
564,06772;2,45459
562,01656;2,45123
559,96541;2,44697
557,91425;2,45242
555,8631;2,46792
553,81194;2,47219
551,76079;2,46556
549,70963;2,45347
547,65848;2,43053
545,60732;2,41287
543,55616;2,4194
541,50501;2,42361
539,45385;2,39738
537,4027;2,36276
535,35154;2,3456
533,30039;2,34902
531,24923;2,35968
529,19808;2,36337
527,14692;2,36132
525,09577;2,35409
523,04461;2,33907
520,99346;2,32768
518,9423;2,32617
516,89115;2,32844
514,83999;2,33305
512,78883;2,33583
510,73768;2,33235
508,68652;2,32932
506,63537;2,33867
504,58421;2,35434
502,53306;2,35406
500,4819;2,35057
498,43075;2,36114
496,37959;2,3683
494,32844;2,36641
492,27728;2,36235
490,22613;2,35265
488,17497;2,3405
486,12382;2,34102
484,07266;2,34653
482,0215;2,33622
479,97035;2,32344
477,91919;2,32012
475,86804;2,30578
473,81688;2,26938
471,76573;2,23332
469,71457;2,21612
467,66342;2,20497
465,61226;2,19074
463,56111;2,18507
461,50995;2,1928
459,4588;2,19781
457,40764;2,18659
455,35649;2,17013
453,30533;2,16308
451,25417;2,16527
449,20302;2,17071
447,15186;2,17987
445,10071;2,18769
443,04955;2,18421
440,9984;2,17956
438,94724;2,18812
436,89609;2,19949
434,84493;2,19507
432,79378;2,17728
430,74262;2,16788
428,69147;2,17734
426,64031;2,19498
424,58916;2,20345
422,538;2,18924
420,48684;2,15565
418,43569;2,13668
416,38453;2,15291
414,33338;2,16749
412,28222;2,1588
410,23107;2,15177
408,17991;2,16544
406,12876;2,1831
404,0776;2,18987
402,02645;2,19695
399,97529;2,2078
