3997,70175;1,80738
3995,6506;1,80907
3993,59944;1,81027
3991,54829;1,81068
3989,49713;1,81052
3987,44598;1,81089
3985,39482;1,81199
3983,34367;1,81373
3981,29251;1,8157
3979,24136;1,81723
3977,1902;1,81891
3975,13905;1,82102
3973,08789;1,82262
3971,03673;1,82384
3968,98558;1,82503
3966,93442;1,8256
3964,88327;1,82635
3962,83211;1,82893
3960,78096;1,83296
3958,7298;1,83623
3956,67865;1,83825
3954,62749;1,83973
3952,57634;1,84051
3950,52518;1,84093
3948,47403;1,84203
3946,42287;1,84361
3944,37172;1,84354
3942,32056;1,84245
3940,2694;1,84251
3938,21825;1,84272
3936,16709;1,84219
3934,11594;1,84028
3932,06478;1,8368
3930,01363;1,8334
3927,96247;1,83099
3925,91132;1,82786
3923,86016;1,82377
3921,80901;1,8206
3919,75785;1,81822
3917,7067;1,81516
3915,65554;1,81156
3913,60439;1,80768
3911,55323;1,80364
3909,50207;1,8017
3907,45092;1,80206
3905,39976;1,8019
3903,34861;1,80076
3901,29745;1,79956
3899,2463;1,79764
3897,19514;1,79566
3895,14399;1,79372
3893,09283;1,79099
3891,04168;1,78912
3888,99052;1,78979
3886,93937;1,78954
3884,88821;1,78985
3882,83706;1,79105
3880,7859;1,78918
3878,73474;1,78813
3876,68359;1,78946
3874,63243;1,79107
3872,58128;1,79159
3870,53012;1,78831
3868,47897;1,78633
3866,42781;1,78638
3864,37666;1,78533
3862,3255;1,78445
3860,27435;1,78399
3858,22319;1,78348
3856,17204;1,78021
3854,12088;1,77459
3852,06973;1,77401
3850,01857;1,77693
3847,96741;1,77794
3845,91626;1,77741
3843,8651;1,77764
3841,81395;1,78025
3839,76279;1,78245
3837,71164;1,78236
3835,66048;1,78186
3833,60933;1,78127
3831,55817;1,78135
3829,50702;1,78246
3827,45586;1,78241
3825,40471;1,78317
3823,35355;1,78467
3821,3024;1,78544
3819,25124;1,78776
3817,20008;1,78708
3815,14893;1,78425
3813,09777;1,78313
3811,04662;1,78324
3808,99546;1,78501
3806,94431;1,78855
3804,89315;1,79344
3802,842;1,79423
3800,79084;1,79332
3798,73969;1,79497
3796,68853;1,79589
3794,63738;1,79653
3792,58622;1,7966
3790,53506;1,79612
3788,48391;1,79625
3786,43275;1,7971
3784,3816;1,7992
3782,33044;1,80211
3780,27929;1,80403
3778,22813;1,8061
3776,17698;1,80835
3774,12582;1,80993
3772,07467;1,81107
3770,02351;1,81256
3767,97236;1,81593
3765,9212;1,8188
3763,87005;1,82124
3761,81889;1,82382
3759,76773;1,82653
3757,71658;1,83004
3755,66542;1,83309
3753,61427;1,83428
3751,56311;1,8362
3749,51196;1,84297
3747,4608;1,84994
3745,40965;1,84952
3743,35849;1,85086
3741,30734;1,85938
3739,25618;1,86795
3737,20503;1,87505
3735,15387;1,88113
3733,10272;1,88484
3731,05156;1,88805
3729,0004;1,89379
3726,94925;1,90198
3724,89809;1,91224
3722,84694;1,92114
3720,79578;1,92886
3718,74463;1,93867
3716,69347;1,95107
3714,64232;1,96415
3712,59116;1,97809
3710,54001;1,99596
3708,48885;2,0172
3706,4377;2,03946
3704,38654;2,06471
3702,33539;2,09779
3700,28423;2,13803
3698,23307;2,17623
3696,18192;2,20612
3694,13076;2,2263
3692,07961;2,23616
3690,02845;2,23775
3687,9773;2,23777
3685,92614;2,24294
3683,87499;2,25152
3681,82383;2,26201
3679,77268;2,27596
3677,72152;2,29446
3675,67037;2,31898
3673,61921;2,34882
3671,56806;2,37428
3669,5169;2,39673
3667,46574;2,41971
3665,41459;2,44004
3663,36343;2,4591
3661,31228;2,47778
3659,26112;2,49658
3657,20997;2,51594
3655,15881;2,53468
3653,10766;2,55233
3651,0565;2,5794
3649,00535;2,62098
3646,95419;2,65304
3644,90304;2,67045
3642,85188;2,68324
3640,80073;2,68811
3638,74957;2,68262
3636,69841;2,67456
3634,64726;2,67315
3632,5961;2,68357
3630,54495;2,69778
3628,49379;2,70703
3626,44264;2,71962
3624,39148;2,73379
3622,34033;2,73542
3620,28917;2,72787
3618,23802;2,72798
3616,18686;2,73394
3614,13571;2,7369
3612,08455;2,74061
3610,0334;2,7462
3607,98224;2,7467
3605,93108;2,74026
3603,87993;2,73421
3601,82877;2,73552
3599,77762;2,74312
3597,72646;2,75095
3595,67531;2,75763
3593,62415;2,76955
3591,573;2,7834
3589,52184;2,78664
3587,47069;2,77806
3585,41953;2,76483
3583,36838;2,75782
3581,31722;2,76453
3579,26607;2,77744
3577,21491;2,78465
3575,16375;2,78973
3573,1126;2,80427
3571,06144;2,82447
3569,01029;2,83347
3566,95913;2,82935
3564,90798;2,82596
3562,85682;2,82402
3560,80567;2,82043
3558,75451;2,82025
3556,70336;2,82348
3554,6522;2,82511
3552,60105;2,828
3550,54989;2,83646
3548,49874;2,84775
3546,44758;2,85506
3544,39642;2,85061
3542,34527;2,8433
3540,29411;2,84953
3538,24296;2,86492
3536,1918;2,87477
3534,14065;2,87514
3532,08949;2,87309
3530,03834;2,87409
3527,98718;2,87352
3525,93603;2,86883
3523,88487;2,86334
3521,83372;2,86189
3519,78256;2,86935
3517,73141;2,8786
3515,68025;2,88442
3513,62909;2,89344
3511,57794;2,89759
3509,52678;2,88292
3507,47563;2,8668
3505,42447;2,86857
3503,37332;2,87882
3501,32216;2,88237
3499,27101;2,87925
3497,21985;2,87785
3495,1687;2,87971
3493,11754;2,88161
3491,06639;2,88533
3489,01523;2,88751
3486,96407;2,88739
3484,91292;2,89755
3482,86176;2,91119
3480,81061;2,90797
3478,75945;2,89526
3476,7083;2,89295
3474,65714;2,90009
3472,60599;2,90401
3470,55483;2,89997
3468,50368;2,89444
3466,45252;2,89479
3464,40137;2,90457
3462,35021;2,92173
3460,29906;2,9303
3458,2479;2,92015
3456,19674;2,9047
3454,14559;2,8928
3452,09443;2,88032
3450,04328;2,87465
3447,99212;2,88281
3445,94097;2,88806
3443,88981;2,87928
3441,83866;2,87857
3439,7875;2,89004
3437,73635;2,89372
3435,68519;2,89569
3433,63404;2,90508
3431,58288;2,91187
3429,53173;2,91858
3427,48057;2,92918
3425,42941;2,92752
3423,37826;2,91086
3421,3271;2,89866
3419,27595;2,89886
3417,22479;2,91036
3415,17364;2,92546
3413,12248;2,92451
3411,07133;2,90542
3409,02017;2,88699
3406,96902;2,88161
3404,91786;2,88717
3402,86671;2,88893
3400,81555;2,88365
3398,7644;2,8876
3396,71324;2,89662
3394,66208;2,90247
3392,61093;2,91389
3390,55977;2,92176
3388,50862;2,91146
3386,45746;2,89668
3384,40631;2,892
3382,35515;2,90048
3380,304;2,91363
3378,25284;2,91582
3376,20169;2,91567
3374,15053;2,91958
3372,09938;2,913
3370,04822;2,90003
3367,99707;2,89825
3365,94591;2,90616
3363,89475;2,91062
3361,8436;2,91407
3359,79244;2,92665
3357,74129;2,94348
3355,69013;2,95232
3353,63898;2,94738
3351,58782;2,93447
3349,53667;2,91743
3347,48551;2,90221
3345,43436;2,90278
3343,3832;2,91315
3341,33205;2,91465
3339,28089;2,9098
3337,22974;2,90674
3335,17858;2,90557
3333,12742;2,90268
3331,07627;2,89744
3329,02511;2,89936
3326,97396;2,90385
3324,9228;2,89909
3322,87165;2,8947
3320,82049;2,90147
3318,76934;2,91414
3316,71818;2,92046
3314,66703;2,91715
3312,61587;2,91496
3310,56472;2,91973
3308,51356;2,92492
3306,46241;2,92675
3304,41125;2,92381
3302,36009;2,91258
3300,30894;2,90107
3298,25778;2,90161
3296,20663;2,90995
3294,15547;2,90862
3292,10432;2,90147
3290,05316;2,90133
3288,00201;2,89723
3285,95085;2,88798
3283,8997;2,8866
3281,84854;2,88976
3279,79739;2,89004
3277,74623;2,89262
3275,69508;2,89439
3273,64392;2,8854
3271,59276;2,87339
3269,54161;2,87247
3267,49045;2,88252
3265,4393;2,88832
3263,38814;2,88004
3261,33699;2,8652
3259,28583;2,85824
3257,23468;2,86129
3255,18352;2,86638
3253,13237;2,87217
3251,08121;2,8785
3249,03006;2,87927
3246,9789;2,87982
3244,92775;2,88068
3242,87659;2,86907
3240,82543;2,85454
3238,77428;2,85438
3236,72312;2,86108
3234,67197;2,8593
3232,62081;2,85508
3230,56966;2,85704
3228,5185;2,85926
3226,46735;2,8559
3224,41619;2,84953
3222,36504;2,84665
3220,31388;2,84644
3218,26273;2,84877
3216,21157;2,85039
3214,16041;2,84255
3212,10926;2,83277
3210,0581;2,83291
3208,00695;2,84418
3205,95579;2,86002
3203,90464;2,86782
3201,85348;2,86249
3199,80233;2,85332
3197,75117;2,84413
3195,70002;2,83224
3193,64886;2,82178
3191,59771;2,81226
3189,54655;2,80457
3187,4954;2,80476
3185,44424;2,80675
3183,39308;2,80759
3181,34193;2,81247
3179,29077;2,82225
3177,23962;2,82927
3175,18846;2,82489
3173,13731;2,81441
3171,08615;2,80629
3169,035;2,80599
3166,98384;2,81213
3164,93269;2,81308
3162,88153;2,80711
3160,83038;2,80131
3158,77922;2,79943
3156,72807;2,79964
3154,67691;2,79849
3152,62575;2,79426
3150,5746;2,79031
3148,52344;2,79155
3146,47229;2,7936
3144,42113;2,79143
3142,36998;2,78912
3140,31882;2,79065
3138,26767;2,79475
3136,21651;2,79674
3134,16536;2,79391
3132,1142;2,78757
3130,06305;2,7784
3128,01189;2,7714
3125,96074;2,77582
3123,90958;2,78456
3121,85842;2,78617
3119,80727;2,78693
3117,75611;2,78756
3115,70496;2,78492
3113,6538;2,77887
3111,60265;2,771
3109,55149;2,76918
3107,50034;2,77389
3105,44918;2,77757
3103,39803;2,77692
3101,34687;2,77402
3099,29572;2,76897
3097,24456;2,7611
3095,19341;2,75645
3093,14225;2,75798
3091,09109;2,75997
3089,03994;2,75805
3086,98878;2,75388
3084,93763;2,75214
3082,88647;2,7556
3080,83532;2,76133
3078,78416;2,76176
3076,73301;2,7574
3074,68185;2,75489
3072,6307;2,75104
3070,57954;2,74297
3068,52839;2,74151
3066,47723;2,75372
3064,42608;2,76903
3062,37492;2,77212
3060,32376;2,76238
3058,27261;2,75358
3056,22145;2,75227
3054,1703;2,75079
3052,11914;2,74899
3050,06799;2,75075
3048,01683;2,7473
3045,96568;2,73678
3043,91452;2,72765
3041,86337;2,72455
3039,81221;2,72972
3037,76106;2,73694
3035,7099;2,73446
3033,65875;2,72483
3031,60759;2,72101
3029,55643;2,72225
3027,50528;2,71969
3025,45412;2,71621
3023,40297;2,71816
3021,35181;2,72161
3019,30066;2,72145
3017,2495;2,71973
3015,19835;2,71805
3013,14719;2,71478
3011,09604;2,70873
3009,04488;2,70462
3006,99373;2,70603
3004,94257;2,70813
3002,89142;2,70661
3000,84026;2,70449
2998,7891;2,70729
2996,73795;2,71291
2994,68679;2,71738
2992,63564;2,72257
2990,58448;2,72839
2988,53333;2,73697
2986,48217;2,74688
2984,43102;2,75264
2982,37986;2,75737
2980,32871;2,76208
2978,27755;2,76342
2976,2264;2,76232
2974,17524;2,75707
2972,12409;2,75442
2970,07293;2,76312
2968,02177;2,77173
2965,97062;2,77084
2963,91946;2,76526
2961,86831;2,75994
2959,81715;2,76397
2957,766;2,77369
2955,71484;2,76997
2953,66369;2,75474
2951,61253;2,74527
2949,56138;2,74664
2947,51022;2,7491
2945,45907;2,74867
2943,40791;2,75075
2941,35675;2,75543
2939,3056;2,75884
2937,25444;2,75484
2935,20329;2,74367
2933,15213;2,73876
2931,10098;2,74204
2929,04982;2,73882
2926,99867;2,72846
2924,94751;2,72372
2922,89636;2,72907
2920,8452;2,73607
2918,79405;2,73284
2916,74289;2,72254
2914,69174;2,71414
2912,64058;2,70935
2910,58942;2,70876
2908,53827;2,71012
2906,48711;2,70941
2904,43596;2,70877
2902,3848;2,70812
2900,33365;2,7036
2898,28249;2,69532
2896,23134;2,68712
2894,18018;2,68413
2892,12903;2,68936
2890,07787;2,69822
2888,02672;2,70269
2885,97556;2,70474
2883,92441;2,70923
2881,87325;2,71013
2879,82209;2,70692
2877,77094;2,70871
2875,71978;2,71337
2873,66863;2,71287
2871,61747;2,70928
2869,56632;2,70742
2867,51516;2,70659
2865,46401;2,70299
2863,41285;2,69102
2861,3617;2,6723
2859,31054;2,65633
2857,25939;2,64976
2855,20823;2,6501
2853,15708;2,64946
2851,10592;2,64433
2849,05476;2,63381
2847,00361;2,62076
2844,95245;2,61097
2842,9013;2,60336
2840,85014;2,59395
2838,79899;2,58231
2836,74783;2,57236
2834,69668;2,56787
2832,64552;2,56442
2830,59437;2,55708
2828,54321;2,5487
2826,49206;2,54153
2824,4409;2,53491
2822,38975;2,52927
2820,33859;2,52763
2818,28743;2,52947
2816,23628;2,52719
2814,18512;2,52023
2812,13397;2,51534
2810,08281;2,51132
2808,03166;2,50575
2805,9805;2,50204
2803,92935;2,50061
2801,87819;2,49904
2799,82704;2,49325
2797,77588;2,48322
2795,72473;2,47788
2793,67357;2,47768
2791,62242;2,47416
2789,57126;2,46862
2787,5201;2,46685
2785,46895;2,46562
2783,41779;2,46109
2781,36664;2,45794
2779,31548;2,45841
2777,26433;2,4591
2775,21317;2,45855
2773,16202;2,45409
2771,11086;2,44549
2769,05971;2,43879
2767,00855;2,43837
2764,9574;2,43994
2762,90624;2,43728
2760,85509;2,43238
2758,80393;2,42869
2756,75277;2,42778
2754,70162;2,42687
2752,65046;2,42206
2750,59931;2,41675
2748,54815;2,41463
2746,497;2,41278
2744,44584;2,40851
2742,39469;2,40571
2740,34353;2,4051
2738,29238;2,40358
2736,24122;2,40202
2734,19007;2,40127
2732,13891;2,39928
2730,08776;2,39583
2728,0366;2,39277
2725,98544;2,38932
2723,93429;2,38606
2721,88313;2,38525
2719,83198;2,38485
2717,78082;2,38269
2715,72967;2,37894
2713,67851;2,37347
2711,62736;2,3683
2709,5762;2,36646
2707,52505;2,36677
2705,47389;2,36472
2703,42274;2,36065
2701,37158;2,3596
2699,32043;2,36284
2697,26927;2,36572
2695,21811;2,36346
2693,16696;2,35948
2691,1158;2,35764
2689,06465;2,35576
2687,01349;2,35305
2684,96234;2,35121
2682,91118;2,35058
2680,86003;2,34961
2678,80887;2,34826
2676,75772;2,34892
2674,70656;2,35086
2672,65541;2,34963
2670,60425;2,34588
2668,55309;2,34527
2666,50194;2,3488
2664,45078;2,35158
2662,39963;2,35153
2660,34847;2,3517
2658,29732;2,35368
2656,24616;2,3548
2654,19501;2,35472
2652,14385;2,35618
2650,0927;2,35752
2648,04154;2,35818
2645,99039;2,35967
2643,93923;2,36065
2641,88808;2,36283
2639,83692;2,36875
2637,78576;2,37635
2635,73461;2,38349
2633,68345;2,39072
2631,6323;2,3969
2629,58114;2,40041
2627,52999;2,40451
2625,47883;2,40998
2623,42768;2,41367
2621,37652;2,416
2619,32537;2,41759
2617,27421;2,41934
2615,22306;2,42297
2613,1719;2,42542
2611,12075;2,42609
2609,06959;2,42936
2607,01843;2,43319
2604,96728;2,43329
2602,91612;2,43253
2600,86497;2,43572
2598,81381;2,44124
2596,76266;2,44344
2594,7115;2,44423
2592,66035;2,44775
2590,60919;2,45156
2588,55804;2,45415
2586,50688;2,45763
2584,45573;2,45988
2582,40457;2,45863
2580,35342;2,4595
2578,30226;2,46369
2576,2511;2,46691
2574,19995;2,46972
2572,14879;2,47289
2570,09764;2,47348
2568,04648;2,47076
2565,99533;2,46894
2563,94417;2,47101
2561,89302;2,47541
2559,84186;2,47822
2557,79071;2,48004
2555,73955;2,48593
2553,6884;2,4952
2551,63724;2,50284
2549,58609;2,50804
2547,53493;2,5133
2545,48377;2,51847
2543,43262;2,52083
2541,38146;2,52273
2539,33031;2,52951
2537,27915;2,53992
2535,228;2,54941
2533,17684;2,55762
2531,12569;2,5687
2529,07453;2,58095
2527,02338;2,58729
2524,97222;2,59084
2522,92107;2,5991
2520,86991;2,61054
2518,81876;2,61683
2516,7676;2,61345
2514,71644;2,60519
2512,66529;2,59765
2510,61413;2,58756
2508,56298;2,57439
2506,51182;2,56485
2504,46067;2,55458
2502,40951;2,53753
2500,35836;2,51974
2498,3072;2,50276
2496,25605;2,48341
2494,20489;2,46598
2492,15374;2,45188
2490,10258;2,4365
2488,05143;2,41878
2486,00027;2,40119
2483,94911;2,38732
2481,89796;2,37755
2479,8468;2,36849
2477,79565;2,35761
2475,74449;2,34459
2473,69334;2,33128
2471,64218;2,31974
2469,59103;2,31025
2467,53987;2,30168
2465,48872;2,2928
2463,43756;2,28507
2461,38641;2,28024
2459,33525;2,27562
2457,2841;2,27035
2455,23294;2,26716
2453,18178;2,26473
2451,13063;2,26092
2449,07947;2,25737
2447,02832;2,25445
2444,97716;2,25111
2442,92601;2,24775
2440,87485;2,24415
2438,8237;2,24045
2436,77254;2,23804
2434,72139;2,23673
2432,67023;2,23475
2430,61908;2,23075
2428,56792;2,22714
2426,51677;2,22638
2424,46561;2,2249
2422,41445;2,22092
2420,3633;2,21735
2418,31214;2,21594
2416,26099;2,2161
2414,20983;2,21529
2412,15868;2,21234
2410,10752;2,20944
2408,05637;2,20783
2406,00521;2,20587
2403,95406;2,20416
2401,9029;2,20375
2399,85175;2,20344
2397,80059;2,20283
2395,74944;2,20195
2393,69828;2,20079
2391,64712;2,19938
2389,59597;2,19806
2387,54481;2,19722
2385,49366;2,19752
2383,4425;2,19901
2381,39135;2,19989
2379,34019;2,19963
2377,28904;2,19993
2375,23788;2,20079
2373,18673;2,20073
2371,13557;2,19886
2369,08442;2,19544
2367,03326;2,19403
2364,9821;2,19702
2362,93095;2,20083
2360,87979;2,20226
2358,82864;2,20256
2356,77748;2,20242
2354,72633;2,20103
2352,67517;2,2002
2350,62402;2,20222
2348,57286;2,20552
2346,52171;2,20719
2344,47055;2,20687
2342,4194;2,20619
2340,36824;2,20588
2338,31709;2,20557
2336,26593;2,20564
2334,21477;2,20693
2332,16362;2,20822
2330,11246;2,20787
2328,06131;2,2062
2326,01015;2,20446
2323,959;2,20399
2321,90784;2,20448
2319,85669;2,20519
2317,80553;2,20735
2315,75438;2,21053
2313,70322;2,21212
2311,65207;2,21138
2309,60091;2,20932
2307,54976;2,20691
2305,4986;2,20548
2303,44744;2,20604
2301,39629;2,20769
2299,34513;2,20919
2297,29398;2,21043
2295,24282;2,21114
2293,19167;2,21087
2291,14051;2,21004
2289,08936;2,20943
2287,0382;2,20915
2284,98705;2,20781
2282,93589;2,20557
2280,88474;2,20606
2278,83358;2,21002
2276,78243;2,21374
2274,73127;2,21543
2272,68011;2,2159
2270,62896;2,21586
2268,5778;2,2165
2266,52665;2,21925
2264,47549;2,22274
2262,42434;2,22467
2260,37318;2,22557
2258,32203;2,22687
2256,27087;2,22918
2254,21972;2,23181
2252,16856;2,23311
2250,11741;2,23436
2248,06625;2,23696
2246,0151;2,23847
2243,96394;2,23922
2241,91278;2,24063
2239,86163;2,24061
2237,81047;2,2391
2235,75932;2,2395
2233,70816;2,24212
2231,65701;2,24393
2229,60585;2,24547
2227,5547;2,24964
2225,50354;2,25431
2223,45239;2,25615
2221,40123;2,25578
2219,35008;2,25481
2217,29892;2,25482
2215,24777;2,25565
2213,19661;2,25739
2211,14545;2,26189
2209,0943;2,26627
2207,04314;2,26607
2204,99199;2,26315
2202,94083;2,26236
2200,88968;2,26463
2198,83852;2,26701
2196,78737;2,26885
2194,73621;2,27112
2192,68506;2,27211
2190,6339;2,2721
2188,58275;2,27254
2186,53159;2,2734
2184,48044;2,27573
2182,42928;2,27806
2180,37812;2,27888
2178,32697;2,28125
2176,27581;2,2852
2174,22466;2,28817
2172,1735;2,29008
2170,12235;2,29075
2168,07119;2,29181
2166,02004;2,29527
2163,96888;2,29927
2161,91773;2,30249
2159,86657;2,30586
2157,81542;2,31024
2155,76426;2,31653
2153,71311;2,32413
2151,66195;2,32977
2149,61079;2,33241
2147,55964;2,33378
2145,50848;2,33438
2143,45733;2,33463
2141,40617;2,33495
2139,35502;2,33401
2137,30386;2,33161
2135,25271;2,32908
2133,20155;2,32733
2131,1504;2,32534
2129,09924;2,32225
2127,04809;2,31988
2124,99693;2,31714
2122,94578;2,31276
2120,89462;2,30865
2118,84346;2,30585
2116,79231;2,30328
2114,74115;2,30003
2112,69;2,2979
2110,63884;2,29732
2108,58769;2,29673
2106,53653;2,29598
2104,48538;2,29462
2102,43422;2,29279
2100,38307;2,29221
2098,33191;2,29276
2096,28076;2,29365
2094,2296;2,29431
2092,17844;2,29332
2090,12729;2,29214
2088,07613;2,29299
2086,02498;2,29428
2083,97382;2,29473
2081,92267;2,29483
2079,87151;2,29371
2077,82036;2,29161
2075,7692;2,29116
2073,71805;2,29247
2071,66689;2,29291
2069,61574;2,29259
2067,56458;2,29386
2065,51343;2,29543
2063,46227;2,29625
2061,41111;2,29895
2059,35996;2,30276
2057,3088;2,30319
2055,25765;2,30085
2053,20649;2,30045
2051,15534;2,3027
2049,10418;2,30512
2047,05303;2,30673
2045,00187;2,30754
2042,95072;2,30714
2040,89956;2,30616
2038,84841;2,3066
2036,79725;2,30924
2034,7461;2,31184
2032,69494;2,31258
2030,64378;2,31254
2028,59263;2,31249
2026,54147;2,31362
2024,49032;2,31592
2022,43916;2,31575
2020,38801;2,31305
2018,33685;2,31199
2016,2857;2,31366
2014,23454;2,31557
2012,18339;2,31662
2010,13223;2,31767
2008,08108;2,31868
2006,02992;2,32056
2003,97877;2,32316
2001,92761;2,32383
1999,87645;2,32331
1997,8253;2,32389
1995,77414;2,32492
1993,72299;2,32567
1991,67183;2,32664
1989,62068;2,32743
1987,56952;2,3279
1985,51837;2,33008
1983,46721;2,33375
1981,41606;2,33698
1979,3649;2,33877
1977,31375;2,33887
1975,26259;2,33856
1973,21144;2,33909
1971,16028;2,34074
1969,10912;2,34349
1967,05797;2,34706
1965,00681;2,35179
1962,95566;2,35672
1960,9045;2,3595
1958,85335;2,35891
1956,80219;2,35655
1954,75104;2,354
1952,69988;2,35225
1950,64873;2,35227
1948,59757;2,3521
1946,54642;2,35027
1944,49526;2,3489
1942,44411;2,35116
1940,39295;2,35632
1938,34179;2,35901
1936,29064;2,35892
1934,23948;2,36021
1932,18833;2,36386
1930,13717;2,36616
1928,08602;2,36637
1926,03486;2,36805
1923,98371;2,3715
1921,93255;2,37537
1919,8814;2,37786
1917,83024;2,37845
1915,77909;2,37943
1913,72793;2,3799
1911,67678;2,37943
1909,62562;2,38088
1907,57446;2,38599
1905,52331;2,39128
1903,47215;2,39433
1901,421;2,39689
1899,36984;2,39971
1897,31869;2,40109
1895,26753;2,40279
1893,21638;2,4087
1891,16522;2,41614
1889,11407;2,4209
1887,06291;2,42161
1885,01176;2,41896
1882,9606;2,41731
1880,90945;2,41963
1878,85829;2,42522
1876,80713;2,43284
1874,75598;2,44028
1872,70482;2,44504
1870,65367;2,44746
1868,60251;2,44964
1866,55136;2,45188
1864,5002;2,45315
1862,44905;2,45488
1860,39789;2,45853
1858,34674;2,46306
1856,29558;2,46659
1854,24443;2,469
1852,19327;2,47256
1850,14212;2,47851
1848,09096;2,48576
1846,0398;2,49266
1843,98865;2,50082
1841,93749;2,51144
1839,88634;2,51869
1837,83518;2,52236
1835,78403;2,52916
1833,73287;2,54228
1831,68172;2,55884
1829,63056;2,57628
1827,57941;2,59292
1825,52825;2,60613
1823,4771;2,61708
1821,42594;2,6255
1819,37478;2,63366
1817,32363;2,64722
1815,27247;2,66326
1813,22132;2,67314
1811,17016;2,67746
1809,11901;2,68573
1807,06785;2,70222
1805,0167;2,72318
1802,96554;2,7447
1800,91439;2,76632
1798,86323;2,78724
1796,81208;2,80204
1794,76092;2,8047
1792,70977;2,79261
1790,65861;2,77068
1788,60745;2,74655
1786,5563;2,72466
1784,50514;2,70851
1782,45399;2,69535
1780,40283;2,68114
1778,35168;2,67012
1776,30052;2,6662
1774,24937;2,66775
1772,19821;2,67027
1770,14706;2,67014
1768,0959;2,66856
1766,04475;2,67014
1763,99359;2,67235
1761,94244;2,6737
1759,89128;2,67924
1757,84012;2,69018
1755,78897;2,70482
1753,73781;2,7154
1751,68666;2,71781
1749,6355;2,7205
1747,58435;2,72729
1745,53319;2,73566
1743,48204;2,74282
1741,43088;2,74593
1739,37973;2,75036
1737,32857;2,76237
1735,27742;2,77449
1733,22626;2,785
1731,17511;2,79321
1729,12395;2,79338
1727,07279;2,79072
1725,02164;2,79307
1722,97048;2,80492
1720,91933;2,82136
1718,86817;2,83381
1716,81702;2,84909
1714,76586;2,87375
1712,71471;2,89782
1710,66355;2,91531
1708,6124;2,92938
1706,56124;2,94419
1704,51009;2,96869
1702,45893;3,00341
1700,40778;3,03544
1698,35662;3,06133
1696,30546;3,08577
1694,25431;3,109
1692,20315;3,12275
1690,152;3,12712
1688,10084;3,12357
1686,04969;3,10308
1683,99853;3,07842
1681,94738;3,0824
1679,89622;3,09983
1677,84507;3,11064
1675,79391;3,11393
1673,74276;3,1101
1671,6916;3,0972
1669,64045;3,07976
1667,58929;3,06448
1665,53813;3,04447
1663,48698;3,01766
1661,43582;2,99996
1659,38467;2,99599
1657,33351;2,99351
1655,28236;2,9848
1653,2312;2,97648
1651,18005;2,97812
1649,12889;2,97049
1647,07774;2,94766
1645,02658;2,93128
1642,97543;2,92101
1640,92427;2,90424
1638,87312;2,88618
1636,82196;2,87426
1634,7708;2,86852
1632,71965;2,86081
1630,66849;2,84498
1628,61734;2,82872
1626,56618;2,82191
1624,51503;2,82113
1622,46387;2,82048
1620,41272;2,81833
1618,36156;2,81168
1616,31041;2,80603
1614,25925;2,80511
1612,2081;2,80151
1610,15694;2,79601
1608,10579;2,79181
1606,05463;2,78411
1604,00347;2,77244
1601,95232;2,76645
1599,90116;2,76764
1597,85001;2,764
1595,79885;2,75117
1593,7477;2,73929
1591,69654;2,73455
1589,64539;2,73301
1587,59423;2,7298
1585,54308;2,72238
1583,49192;2,71344
1581,44077;2,70616
1579,38961;2,69748
1577,33846;2,68386
1575,2873;2,67253
1573,23614;2,66836
1571,18499;2,66112
1569,13383;2,65143
1567,08268;2,64801
1565,03152;2,64682
1562,98037;2,64185
1560,92921;2,63052
1558,87806;2,62324
1556,8269;2,62743
1554,77575;2,62438
1552,72459;2,61473
1550,67344;2,60673
1548,62228;2,60245
1546,57113;2,60191
1544,51997;2,6033
1542,46881;2,5977
1540,41766;2,57641
1538,3665;2,56144
1536,31535;2,56213
1534,26419;2,55864
1532,21304;2,54947
1530,16188;2,54348
1528,11073;2,53982
1526,05957;2,53643
1524,00842;2,53119
1521,95726;2,52468
1519,90611;2,52479
1517,85495;2,52815
1515,80379;2,52654
1513,75264;2,5202
1511,70148;2,51526
1509,65033;2,51285
1507,59917;2,50309
1505,54802;2,49082
1503,49686;2,48872
1501,44571;2,48923
1499,39455;2,48703
1497,3434;2,48425
1495,29224;2,48357
1493,24109;2,48375
1491,18993;2,48198
1489,13878;2,4808
1487,08762;2,48188
1485,03646;2,48431
1482,98531;2,48733
1480,93415;2,49168
1478,883;2,49772
1476,83184;2,50498
1474,78069;2,51426
1472,72953;2,52322
1470,67838;2,52997
1468,62722;2,53373
1466,57607;2,5346
1464,52491;2,53649
1462,47376;2,54268
1460,4226;2,54901
1458,37145;2,55057
1456,32029;2,54991
1454,26913;2,55
1452,21798;2,54839
1450,16682;2,5451
1448,11567;2,5417
1446,06451;2,54182
1444,01336;2,54417
1441,9622;2,54542
1439,91105;2,54411
1437,85989;2,53636
1435,80874;2,52656
1433,75758;2,52108
1431,70643;2,51567
1429,65527;2,5113
1427,60412;2,51171
1425,55296;2,51319
1423,5018;2,51281
1421,45065;2,51169
1419,39949;2,51085
1417,34834;2,51146
1415,29718;2,51219
1413,24603;2,51315
1411,19487;2,51412
1409,14372;2,51576
1407,09256;2,51985
1405,04141;2,52572
1402,99025;2,5329
1400,9391;2,5402
1398,88794;2,54667
1396,83679;2,55205
1394,78563;2,5561
1392,73447;2,56139
1390,68332;2,56684
1388,63216;2,56928
1386,58101;2,5716
1384,52985;2,57671
1382,4787;2,58094
1380,42754;2,58379
1378,37639;2,58803
1376,32523;2,59189
1374,27408;2,59306
1372,22292;2,59317
1370,17177;2,59216
1368,12061;2,59143
1366,06946;2,59333
1364,0183;2,59516
1361,96714;2,59433
1359,91599;2,5919
1357,86483;2,58963
1355,81368;2,58909
1353,76252;2,59111
1351,71137;2,5946
1349,66021;2,59684
1347,60906;2,59678
1345,5579;2,59678
1343,50675;2,59963
1341,45559;2,60571
1339,40444;2,61182
1337,35328;2,61327
1335,30213;2,61076
1333,25097;2,60759
1331,19981;2,60573
1329,14866;2,6069
1327,0975;2,60864
1325,04635;2,60811
1322,99519;2,60898
1320,94404;2,61571
1318,89288;2,624
1316,84173;2,62771
1314,79057;2,62907
1312,73942;2,63052
1310,68826;2,63118
1308,63711;2,63062
1306,58595;2,62789
1304,5348;2,62591
1302,48364;2,6288
1300,43248;2,63157
1298,38133;2,62702
1296,33017;2,61919
1294,27902;2,61767
1292,22786;2,6241
1290,17671;2,63017
1288,12555;2,62911
1286,0744;2,62489
1284,02324;2,62439
1281,97209;2,62938
1279,92093;2,6335
1277,86978;2,62902
1275,81862;2,62223
1273,76747;2,62093
1271,71631;2,62127
1269,66515;2,62144
1267,614;2,62519
1265,56284;2,6326
1263,51169;2,64037
1261,46053;2,64497
1259,40938;2,64605
1257,35822;2,64918
1255,30707;2,65618
1253,25591;2,66145
1251,20476;2,66537
1249,1536;2,67018
1247,10245;2,67038
1245,05129;2,66446
1243,00013;2,66034
1240,94898;2,6634
1238,89782;2,67001
1236,84667;2,67484
1234,79551;2,67542
1232,74436;2,67209
1230,6932;2,66762
1228,64205;2,66181
1226,59089;2,65459
1224,53974;2,65222
1222,48858;2,65683
1220,43743;2,66132
1218,38627;2,65977
1216,33512;2,65283
1214,28396;2,64638
1212,2328;2,64686
1210,18165;2,65018
1208,13049;2,65168
1206,07934;2,65452
1204,02818;2,65614
1201,97703;2,65563
1199,92587;2,65881
1197,87472;2,66549
1195,82356;2,66983
1193,77241;2,67236
1191,72125;2,67741
1189,6701;2,68307
1187,61894;2,68705
1185,56779;2,68846
1183,51663;2,68916
1181,46547;2,69247
1179,41432;2,69462
1177,36316;2,69723
1175,31201;2,70377
1173,26085;2,70901
1171,2097;2,71436
1169,15854;2,72312
1167,10739;2,72852
1165,05623;2,72511
1163,00508;2,72208
1160,95392;2,72925
1158,90277;2,73875
1156,85161;2,74394
1154,80046;2,74561
1152,7493;2,7443
1150,69814;2,7424
1148,64699;2,73921
1146,59583;2,73749
1144,54468;2,73989
1142,49352;2,74432
1140,44237;2,74692
1138,39121;2,74906
1136,34006;2,75898
1134,2889;2,77116
1132,23775;2,77348
1130,18659;2,7676
1128,13544;2,7598
1126,08428;2,75398
1124,03313;2,7546
1121,98197;2,76017
1119,93081;2,76204
1117,87966;2,75943
1115,8285;2,76264
1113,77735;2,77315
1111,72619;2,77622
1109,67504;2,76778
1107,62388;2,76133
1105,57273;2,7668
1103,52157;2,773
1101,47042;2,76947
1099,41926;2,76227
1097,36811;2,75266
1095,31695;2,74222
1093,2658;2,73566
1091,21464;2,73218
1089,16348;2,72469
1087,11233;2,71182
1085,06117;2,70419
1083,01002;2,70505
1080,95886;2,70252
1078,90771;2,69728
1076,85655;2,69761
1074,8054;2,69411
1072,75424;2,6776
1070,70309;2,65304
1068,65193;2,63264
1066,60078;2,61751
1064,54962;2,60152
1062,49847;2,58602
1060,44731;2,57022
1058,39615;2,55382
1056,345;2,53768
1054,29384;2,5193
1052,24269;2,50195
1050,19153;2,48939
1048,14038;2,48101
1046,08922;2,47725
1044,03807;2,47648
1041,98691;2,47474
1039,93576;2,47179
1037,8846;2,47086
1035,83345;2,47254
1033,78229;2,47465
1031,73114;2,47545
1029,67998;2,47596
1027,62882;2,47929
1025,57767;2,48264
1023,52651;2,48206
1021,47536;2,47964
1019,4242;2,48162
1017,37305;2,48984
1015,32189;2,49574
1013,27074;2,49451
1011,21958;2,49207
1009,16843;2,49186
1007,11727;2,49271
1005,06612;2,49595
1003,01496;2,50275
1000,96381;2,51238
998,91265;2,5231
996,86149;2,52758
994,81034;2,52492
992,75918;2,52703
990,70803;2,53634
988,65687;2,54516
986,60572;2,55015
984,55456;2,55133
982,50341;2,55442
980,45225;2,56275
978,4011;2,56871
976,34994;2,57172
974,29879;2,57795
972,24763;2,58147
970,19647;2,58158
968,14532;2,58666
966,09416;2,59336
964,04301;2,59911
961,99185;2,60633
959,9407;2,61151
957,88954;2,61412
955,83839;2,61676
953,78723;2,6205
951,73608;2,62615
949,68492;2,62993
947,63377;2,63228
945,58261;2,63658
943,53146;2,64206
941,4803;2,64706
939,42914;2,64785
937,37799;2,6488
935,32683;2,65472
933,27568;2,66224
931,22452;2,6665
929,17337;2,66429
927,12221;2,65771
925,07106;2,65775
923,0199;2,67071
920,96875;2,67969
918,91759;2,67193
916,86644;2,6591
914,81528;2,65492
912,76413;2,65873
910,71297;2,66109
908,66181;2,66044
906,61066;2,65726
904,5595;2,64719
902,50835;2,63364
900,45719;2,62512
898,40604;2,61942
896,35488;2,60922
894,30373;2,599
892,25257;2,59059
890,20142;2,5796
888,15026;2,5745
886,09911;2,5827
884,04795;2,59655
881,9968;2,60646
879,94564;2,61338
877,89448;2,61619
875,84333;2,60944
873,79217;2,59961
871,74102;2,60058
869,68986;2,61918
867,63871;2,64732
865,58755;2,66906
863,5364;2,67746
861,48524;2,67746
859,43409;2,67635
857,38293;2,68155
855,33178;2,69506
853,28062;2,70574
851,22947;2,70976
849,17831;2,71293
847,12715;2,71441
845,076;2,70832
843,02484;2,69602
840,97369;2,68882
838,92253;2,69568
836,87138;2,71224
834,82022;2,72201
832,76907;2,71722
830,71791;2,70985
828,66676;2,70781
826,6156;2,70883
824,56445;2,71497
822,51329;2,73085
820,46214;2,74375
818,41098;2,73512
816,35982;2,71934
814,30867;2,7196
812,25751;2,73421
810,20636;2,74995
808,1552;2,75473
806,10405;2,74927
804,05289;2,74498
802,00174;2,74456
799,95058;2,74351
797,89943;2,73535
795,84827;2,73382
793,79712;2,75028
791,74596;2,76955
789,69481;2,77098
787,64365;2,75587
785,59249;2,74687
783,54134;2,75171
781,49018;2,76398
779,43903;2,78439
777,38787;2,79657
775,33672;2,78297
773,28556;2,76119
771,23441;2,75241
769,18325;2,75707
767,1321;2,7594
765,08094;2,75383
763,02979;2,75497
760,97863;2,76962
758,92748;2,78027
756,87632;2,77874
754,82516;2,77311
752,77401;2,76748
750,72285;2,77431
748,6717;2,79981
746,62054;2,8226
744,56939;2,82198
742,51823;2,81402
740,46708;2,82644
738,41592;2,8396
736,36477;2,82335
734,31361;2,79917
732,26246;2,79075
730,2113;2,79665
728,16015;2,8132
726,10899;2,82607
724,05783;2,83223
722,00668;2,84362
719,95552;2,8634
717,90437;2,87885
715,85321;2,87236
713,80206;2,84603
711,7509;2,81625
709,69975;2,79191
707,64859;2,77851
705,59744;2,77989
703,54628;2,79606
701,49513;2,82221
699,44397;2,84287
697,39281;2,85359
695,34166;2,85388
693,2905;2,8347
691,23935;2,80811
689,18819;2,79196
687,13704;2,78596
685,08588;2,7912
683,03473;2,80063
680,98357;2,79514
678,93242;2,78672
676,88126;2,79465
674,83011;2,80796
672,77895;2,81324
670,7278;2,80655
668,67664;2,79969
666,62548;2,82055
664,57433;2,84933
662,52317;2,84555
660,47202;2,81579
658,42086;2,79883
656,36971;2,80954
654,31855;2,82473
652,2674;2,82827
650,21624;2,83148
648,16509;2,83703
646,11393;2,83658
644,06278;2,83616
642,01162;2,82974
639,96047;2,80644
637,90931;2,79083
635,85815;2,80704
633,807;2,83331
631,75584;2,83731
629,70469;2,81078
627,65353;2,7684
625,60238;2,74798
623,55122;2,74229
621,50007;2,72661
619,44891;2,71864
617,39776;2,72265
615,3466;2,72292
613,29545;2,71402
611,24429;2,70708
609,19314;2,71544
607,14198;2,71251
605,09082;2,67731
603,03967;2,6644
600,98851;2,69781
598,93736;2,72148
596,8862;2,71186
594,83505;2,70383
592,78389;2,70834
590,73274;2,70732
588,68158;2,69721
586,63043;2,68173
584,57927;2,66653
582,52812;2,65957
580,47696;2,65551
578,42581;2,6416
576,37465;2,62642
574,32349;2,62721
572,27234;2,63379
570,22118;2,6358
568,17003;2,64449
566,11887;2,6494
564,06772;2,63516
562,01656;2,61556
559,96541;2,60462
557,91425;2,59514
555,8631;2,57864
553,81194;2,56981
551,76079;2,56872
549,70963;2,5478
547,65848;2,52196
545,60732;2,51904
543,55616;2,5126
541,50501;2,47984
539,45385;2,4524
537,4027;2,44476
535,35154;2,43957
533,30039;2,43505
531,24923;2,42619
529,19808;2,40734
527,14692;2,39472
525,09577;2,39769
523,04461;2,41063
520,99346;2,42597
518,9423;2,43204
516,89115;2,42485
514,83999;2,41882
512,78883;2,42276
510,73768;2,43237
508,68652;2,43952
506,63537;2,43679
504,58421;2,42598
502,53306;2,42231
500,4819;2,43556
498,43075;2,45248
496,37959;2,46996
494,32844;2,49264
492,27728;2,49309
490,22613;2,4616
488,17497;2,42997
486,12382;2,40658
484,07266;2,38161
482,0215;2,36041
479,97035;2,34858
477,91919;2,33923
475,86804;2,3212
473,81688;2,29021
471,76573;2,25818
469,71457;2,23618
467,66342;2,21935
465,61226;2,208
463,56111;2,20742
461,50995;2,2129
459,4588;2,21818
457,40764;2,22869
455,35649;2,23789
453,30533;2,23795
451,25417;2,24148
449,20302;2,24746
447,15186;2,24106
445,10071;2,22651
443,04955;2,22034
440,9984;2,23235
438,94724;2,25374
436,89609;2,26374
434,84493;2,25367
432,79378;2,23518
430,74262;2,22103
428,69147;2,21621
426,64031;2,219
424,58916;2,22738
422,538;2,2442
420,48684;2,25309
418,43569;2,23492
416,38453;2,21581
414,33338;2,22028
412,28222;2,25383
410,23107;2,28562
408,17991;2,27145
406,12876;2,23767
404,0776;2,24019
402,02645;2,26984
399,97529;2,28102
