Data from IndigoWhite_Reflection__2__54.txt Node;
"Date: Fri Sep 12 11:52:37 CEST 2025 User: sycur Spectrometer: SR400348 Trigger mode: 0 Integration Time (sec): 2,000000E-2 Scans to average: 20 Electric dark correction enabled: true Nonlinearity correction enabled: false Boxcar width: 10 XAxis mode: Wavelengths Number of Pixels in Spectrum: 3648 >>>>>Begin Spectral Data<<<<<";
186,01;-95,23
186,281;-2069,12
186,552;106,92
186,822;94,97
187,093;-145,45
187,364;-31,57
187,635;11903,19
187,905;127,13
188,176;51,33
188,447;46,33
188,717;41,71
188,988;41,54
189,258;38,95
189,529;39,15
189,8;37,72
190,07;36,06
190,341;34,13
190,611;33,15
190,882;30,64
191,152;31,21
191,423;31,68
191,693;30,47
191,964;30,09
192,234;30,57
192,505;29,57
192,775;28,81
193,045;28
193,316;27,09
193,586;25,83
193,856;26,35
194,127;25,52
194,397;24,82
194,667;25,21
194,938;25,42
195,208;25,02
195,478;24,77
195,748;24,56
196,019;24,62
196,289;24,23
196,559;24,43
196,829;23,86
197,099;23,66
197,37;23,84
197,64;23,82
197,91;23,34
198,18;23,12
198,45;22,57
198,72;22,42
198,99;22,14
199,26;22,1
199,53;21,96
199,8;22,38
200,07;22,44
200,34;22,16
200,61;21,76
200,88;21,62
201,15;21,52
201,42;21,25
201,69;20,99
201,96;20,8
202,23;20,26
202,499;20,06
202,769;19,81
203,039;19,51
203,309;19,33
203,579;19
203,849;18,9
204,118;18,96
204,388;18,7
204,658;18,47
204,927;18,23
205,197;18,04
205,467;17,56
205,736;17,41
206,006;17,15
206,276;16,93
206,545;16,6
206,815;16,38
207,085;16,23
207,354;16,16
207,624;16,13
207,893;16,07
208,163;15,88
208,432;15,84
208,702;15,73
208,971;15,63
209,241;15,61
209,51;15,49
209,78;15,44
210,049;15,44
210,318;15,35
210,588;15,3
210,857;15,16
211,127;15,12
211,396;15,06
211,665;14,84
211,935;14,86
212,204;14,82
212,473;14,72
212,742;14,66
213,012;14,58
213,281;14,47
213,55;14,33
213,819;14,32
214,088;14,19
214,358;14,08
214,627;13,99
214,896;13,86
215,165;13,71
215,434;13,57
215,703;13,42
215,972;13,33
216,241;13,21
216,51;13,14
216,779;13,01
217,048;12,93
217,317;12,93
217,586;12,88
217,855;12,82
218,124;12,76
218,393;12,7
218,662;12,59
218,931;12,5
219,2;12,46
219,469;12,36
219,738;12,31
220,006;12,31
220,275;12,29
220,544;12,26
220,813;12,27
221,082;12,23
221,35;12,25
221,619;12,25
221,888;12,28
222,157;12,23
222,425;12,25
222,694;12,21
222,963;12,22
223,231;12,19
223,5;12,2
223,769;12,2
224,037;12,18
224,306;12,17
224,574;12,18
224,843;12,19
225,111;12,23
225,38;12,22
225,648;12,2
225,917;12,16
226,185;12,18
226,454;12,17
226,722;12,19
226,991;12,18
227,259;12,18
227,528;12,16
227,796;12,2
228,064;12,18
228,333;12,18
228,601;12,19
228,869;12,18
229,138;12,17
229,406;12,19
229,674;12,21
229,942;12,24
230,211;12,25
230,479;12,24
230,747;12,23
231,015;12,22
231,283;12,25
231,552;12,28
231,82;12,26
232,088;12,27
232,356;12,28
232,624;12,27
232,892;12,26
233,16;12,28
233,428;12,28
233,696;12,29
233,964;12,28
234,232;12,28
234,5;12,29
234,768;12,29
235,036;12,27
235,304;12,28
235,572;12,26
235,84;12,28
236,108;12,27
236,376;12,28
236,644;12,3
236,912;12,3
237,179;12,29
237,447;12,3
237,715;12,3
237,983;12,31
238,251;12,3
238,518;12,29
238,786;12,28
239,054;12,26
239,322;12,27
239,589;12,29
239,857;12,3
240,125;12,31
240,392;12,31
240,66;12,32
240,927;12,3
241,195;12,29
241,463;12,28
241,73;12,29
241,998;12,26
242,265;12,26
242,533;12,24
242,8;12,23
243,068;12,22
243,335;12,21
243,603;12,19
243,87;12,19
244,138;12,2
244,405;12,19
244,672;12,18
244,94;12,16
245,207;12,14
245,474;12,12
245,742;12,09
246,009;12,08
246,276;12,06
246,544;12,06
246,811;12,05
247,078;12,04
247,345;12,03
247,613;12,02
247,88;12,01
248,147;12,01
248,414;12,01
248,681;12
248,948;12
249,215;11,98
249,483;11,96
249,75;11,94
250,017;11,93
250,284;11,92
250,551;11,9
250,818;11,88
251,085;11,86
251,352;11,85
251,619;11,84
251,886;11,83
252,153;11,79
252,42;11,79
252,687;11,78
252,953;11,77
253,22;11,76
253,487;11,75
253,754;11,72
254,021;11,71
254,288;11,68
254,555;11,67
254,821;11,66
255,088;11,65
255,355;11,64
255,622;11,63
255,888;11,62
256,155;11,61
256,422;11,6
256,688;11,6
256,955;11,58
257,222;11,57
257,488;11,55
257,755;11,57
258,022;11,55
258,288;11,54
258,555;11,5
258,821;11,49
259,088;11,48
259,354;11,46
259,621;11,44
259,887;11,44
260,154;11,42
260,42;11,41
260,687;11,39
260,953;11,38
261,219;11,35
261,486;11,34
261,752;11,32
262,019;11,33
262,285;11,31
262,551;11,29
262,818;11,29
263,084;11,28
263,35;11,26
263,616;11,24
263,883;11,24
264,149;11,24
264,415;11,23
264,681;11,23
264,947;11,21
265,214;11,21
265,48;11,19
265,746;11,2
266,012;11,18
266,278;11,17
266,544;11,17
266,81;11,17
267,076;11,16
267,342;11,16
267,608;11,14
267,874;11,14
268,14;11,14
268,406;11,13
268,672;11,13
268,938;11,12
269,204;11,11
269,47;11,1
269,736;11,09
270,002;11,08
270,268;11,07
270,533;11,06
270,799;11,06
271,065;11,06
271,331;11,04
271,597;11,03
271,862;11,03
272,128;11,04
272,394;11,02
272,66;11,01
272,925;11,01
273,191;11
273,457;10,99
273,722;11
273,988;11
274,254;10,98
274,519;10,97
274,785;10,97
275,05;10,95
275,316;10,95
275,582;10,94
275,847;10,93
276,113;10,93
276,378;10,92
276,644;10,91
276,909;10,91
277,174;10,91
277,44;10,91
277,705;10,89
277,971;10,89
278,236;10,89
278,501;10,87
278,767;10,87
279,032;10,86
279,297;10,83
279,563;10,83
279,828;10,82
280,093;10,82
280,358;10,81
280,624;10,82
280,889;10,8
281,154;10,8
281,419;10,78
281,684;10,77
281,95;10,76
282,215;10,75
282,48;10,74
282,745;10,73
283,01;10,71
283,275;10,71
283,54;10,69
283,805;10,68
284,07;10,67
284,335;10,66
284,6;10,64
284,865;10,64
285,13;10,62
285,395;10,61
285,66;10,6
285,925;10,6
286,19;10,58
286,455;10,58
286,72;10,57
286,985;10,58
287,249;10,57
287,514;10,56
287,779;10,56
288,044;10,53
288,309;10,52
288,573;10,52
288,838;10,51
289,103;10,5
289,367;10,5
289,632;10,49
289,897;10,49
290,161;10,49
290,426;10,47
290,691;10,47
290,955;10,47
291,22;10,45
291,484;10,44
291,749;10,43
292,014;10,42
292,278;10,42
292,543;10,41
292,807;10,4
293,072;10,4
293,336;10,39
293,6;10,38
293,865;10,38
294,129;10,37
294,394;10,37
294,658;10,37
294,922;10,36
295,187;10,35
295,451;10,33
295,715;10,33
295,98;10,33
296,244;10,32
296,508;10,31
296,773;10,3
297,037;10,3
297,301;10,29
297,565;10,28
297,829;10,26
298,094;10,25
298,358;10,24
298,622;10,22
298,886;10,21
299,15;10,21
299,414;10,19
299,678;10,19
299,942;10,17
300,206;10,15
300,47;10,15
300,734;10,13
300,998;10,13
301,262;10,11
301,526;10,1
301,79;10,09
302,054;10,08
302,318;10,06
302,582;10,05
302,846;10,02
303,11;10,02
303,374;10,01
303,637;10
303,901;10
304,165;9,98
304,429;9,97
304,693;9,95
304,956;9,95
305,22;9,92
305,484;9,91
305,747;9,91
306,011;9,89
306,275;9,89
306,538;9,87
306,802;9,86
307,066;9,85
307,329;9,83
307,593;9,83
307,856;9,82
308,12;9,81
308,384;9,81
308,647;9,79
308,911;9,78
309,174;9,78
309,438;9,76
309,701;9,75
309,964;9,74
310,228;9,72
310,491;9,7
310,755;9,7
311,018;9,7
311,281;9,69
311,545;9,67
311,808;9,66
312,071;9,64
312,335;9,63
312,598;9,61
312,861;9,6
313,124;9,56
313,388;9,56
313,651;9,56
313,914;9,54
314,177;9,52
314,44;9,51
314,704;9,49
314,967;9,48
315,23;9,47
315,493;9,45
315,756;9,43
316,019;9,42
316,282;9,42
316,545;9,4
316,808;9,39
317,071;9,39
317,334;9,37
317,597;9,36
317,86;9,35
318,123;9,33
318,386;9,32
318,649;9,32
318,912;9,3
319,175;9,27
319,437;9,26
319,7;9,26
319,963;9,23
320,226;9,21
320,489;9,2
320,751;9,18
321,014;9,16
321,277;9,16
321,54;9,14
321,802;9,13
322,065;9,11
322,328;9,09
322,59;9,05
322,853;9,05
323,116;9,03
323,378;9,03
323,641;9,02
323,903;9,01
324,166;9
324,428;8,98
324,691;8,97
324,953;8,95
325,216;8,93
325,478;8,92
325,741;8,92
326,003;8,91
326,266;8,9
326,528;8,9
326,791;8,89
327,053;8,87
327,315;8,86
327,578;8,84
327,84;8,83
328,102;8,83
328,365;8,82
328,627;8,8
328,889;8,78
329,151;8,76
329,414;8,73
329,676;8,73
329,938;8,7
330,2;8,7
330,462;8,68
330,725;8,67
330,987;8,64
331,249;8,61
331,511;8,6
331,773;8,58
332,035;8,55
332,297;8,53
332,559;8,52
332,821;8,5
333,083;8,49
333,345;8,47
333,607;8,45
333,869;8,43
334,131;8,41
334,393;8,41
334,655;8,39
334,917;8,39
335,179;8,38
335,44;8,38
335,702;8,36
335,964;8,36
336,226;8,35
336,488;8,36
336,749;8,37
337,011;8,37
337,273;8,37
337,535;8,36
337,796;8,34
338,058;8,35
338,32;8,35
338,581;8,34
338,843;8,33
339,105;8,34
339,366;8,36
339,628;8,36
339,889;8,35
340,151;8,35
340,412;8,33
340,674;8,32
340,935;8,32
341,197;8,33
341,458;8,32
341,72;8,32
341,981;8,3
342,243;8,29
342,504;8,27
342,766;8,26
343,027;8,25
343,288;8,25
343,55;8,23
343,811;8,21
344,072;8,19
344,334;8,17
344,595;8,15
344,856;8,12
345,117;8,1
345,379;8,09
345,64;8,07
345,901;8,06
346,162;8,03
346,423;8,01
346,684;7,97
346,946;7,95
347,207;7,94
347,468;7,94
347,729;7,92
347,99;7,92
348,251;7,9
348,512;7,88
348,773;7,86
349,034;7,84
349,295;7,83
349,556;7,82
349,817;7,81
350,078;7,8
350,339;7,8
350,6;7,79
350,86;7,79
351,121;7,78
351,382;7,77
351,643;7,77
351,904;7,78
352,165;7,8
352,425;7,78
352,686;7,77
352,947;7,75
353,208;7,75
353,468;7,75
353,729;7,75
353,99;7,75
354,25;7,76
354,511;7,75
354,772;7,76
355,032;7,78
355,293;7,77
355,553;7,76
355,814;7,76
356,074;7,75
356,335;7,73
356,596;7,72
356,856;7,72
357,116;7,73
357,377;7,73
357,637;7,72
357,898;7,73
358,158;7,74
358,419;7,75
358,679;7,75
358,939;7,74
359,2;7,75
359,46;7,75
359,72;7,74
359,981;7,75
360,241;7,75
360,501;7,74
360,761;7,74
361,022;7,73
361,282;7,73
361,542;7,74
361,802;7,75
362,062;7,74
362,323;7,74
362,583;7,74
362,843;7,71
363,103;7,72
363,363;7,71
363,623;7,71
363,883;7,7
364,143;7,69
364,403;7,7
364,663;7,7
364,923;7,69
365,183;7,68
365,443;7,68
365,703;7,68
365,963;7,69
366,223;7,68
366,483;7,7
366,743;7,71
367,002;7,69
367,262;7,7
367,522;7,7
367,782;7,7
368,042;7,69
368,301;7,7
368,561;7,69
368,821;7,71
369,081;7,7
369,34;7,7
369,6;7,7
369,86;7,69
370,119;7,69
370,379;7,68
370,638;7,69
370,898;7,67
371,158;7,68
371,417;7,67
371,677;7,68
371,936;7,69
372,196;7,7
372,455;7,71
372,715;7,7
372,974;7,72
373,234;7,74
373,493;7,78
373,753;7,78
374,012;7,8
374,271;7,78
374,531;7,8
374,79;7,82
375,049;7,83
375,309;7,83
375,568;7,83
375,827;7,86
376,086;7,88
376,346;7,9
376,605;7,92
376,864;7,94
377,123;7,96
377,383;7,95
377,642;7,95
377,901;7,95
378,16;7,95
378,419;7,92
378,678;7,92
378,937;7,89
379,196;7,89
379,455;7,88
379,714;7,9
379,973;7,89
380,232;7,9
380,491;7,91
380,75;7,92
381,009;7,93
381,268;7,92
381,527;7,93
381,786;7,95
382,045;7,93
382,304;7,94
382,563;7,95
382,821;7,95
383,08;7,98
383,339;7,99
383,598;7,99
383,857;8,03
384,115;8,05
384,374;8,08
384,633;8,1
384,891;8,12
385,15;8,11
385,409;8,13
385,667;8,14
385,926;8,14
386,185;8,16
386,443;8,16
386,702;8,17
386,96;8,18
387,219;8,17
387,477;8,19
387,736;8,2
387,994;8,22
388,253;8,24
388,511;8,24
388,77;8,25
389,028;8,26
389,287;8,27
389,545;8,28
389,803;8,27
390,062;8,29
390,32;8,28
390,578;8,29
390,837;8,31
391,095;8,32
391,353;8,34
391,612;8,35
391,87;8,35
392,128;8,36
392,386;8,37
392,644;8,39
392,903;8,39
393,161;8,39
393,419;8,38
393,677;8,38
393,935;8,37
394,193;8,39
394,451;8,4
394,709;8,4
394,967;8,42
395,225;8,44
395,483;8,42
395,741;8,45
395,999;8,46
396,257;8,46
396,515;8,45
396,773;8,46
397,031;8,46
397,289;8,48
397,547;8,47
397,805;8,47
398,062;8,48
398,32;8,48
398,578;8,49
398,836;8,51
399,094;8,51
399,351;8,52
399,609;8,52
399,867;8,53
400,124;8,54
400,382;8,56
400,64;8,58
400,897;8,6
401,155;8,6
401,413;8,63
401,67;8,65
401,928;8,68
402,185;8,69
402,443;8,72
402,701;8,73
402,958;8,78
403,216;8,79
403,473;8,81
403,73;8,82
403,988;8,87
404,245;8,88
404,503;8,92
404,76;8,95
405,018;8,96
405,275;8,98
405,532;9
405,79;9,01
406,047;9,01
406,304;9,02
406,561;9,04
406,819;9,05
407,076;9,06
407,333;9,06
407,59;9,05
407,848;9,06
408,105;9,08
408,362;9,08
408,619;9,1
408,876;9,1
409,133;9,11
409,39;9,1
409,647;9,1
409,904;9,09
410,161;9,09
410,418;9,1
410,675;9,13
410,932;9,13
411,189;9,12
411,446;9,15
411,703;9,17
411,96;9,19
412,217;9,2
412,474;9,21
412,731;9,23
412,988;9,24
413,245;9,25
413,501;9,24
413,758;9,24
414,015;9,24
414,272;9,26
414,529;9,26
414,785;9,28
415,042;9,31
415,299;9,31
415,555;9,31
415,812;9,33
416,069;9,31
416,325;9,33
416,582;9,34
416,838;9,36
417,095;9,33
417,352;9,33
417,608;9,35
417,865;9,35
418,121;9,36
418,378;9,4
418,634;9,41
418,891;9,45
419,147;9,48
419,403;9,49
419,66;9,49
419,916;9,51
420,173;9,53
420,429;9,54
420,685;9,56
420,942;9,58
421,198;9,58
421,454;9,61
421,711;9,64
421,967;9,66
422,223;9,64
422,479;9,68
422,735;9,67
422,992;9,66
423,248;9,67
423,504;9,67
423,76;9,66
424,016;9,66
424,272;9,66
424,528;9,66
424,784;9,7
425,041;9,7
425,297;9,69
425,553;9,68
425,809;9,69
426,065;9,7
426,32;9,7
426,576;9,73
426,832;9,74
427,088;9,72
427,344;9,73
427,6;9,75
427,856;9,74
428,112;9,77
428,368;9,79
428,623;9,79
428,879;9,78
429,135;9,78
429,391;9,79
429,646;9,8
429,902;9,79
430,158;9,78
430,414;9,78
430,669;9,79
430,925;9,78
431,181;9,79
431,436;9,78
431,692;9,79
431,947;9,76
432,203;9,76
432,458;9,77
432,714;9,77
432,97;9,76
433,225;9,76
433,481;9,74
433,736;9,73
433,991;9,73
434,247;9,74
434,502;9,75
434,758;9,75
435,013;9,75
435,268;9,76
435,524;9,76
435,779;9,78
436,034;9,79
436,29;9,81
436,545;9,79
436,8;9,78
437,056;9,78
437,311;9,8
437,566;9,78
437,821;9,78
438,076;9,77
438,331;9,77
438,587;9,78
438,842;9,79
439,097;9,78
439,352;9,79
439,607;9,79
439,862;9,79
440,117;9,8
440,372;9,78
440,627;9,77
440,882;9,78
441,137;9,77
441,392;9,77
441,647;9,77
441,902;9,79
442,157;9,79
442,412;9,79
442,667;9,77
442,921;9,8
443,176;9,82
443,431;9,83
443,686;9,82
443,941;9,81
444,195;9,81
444,45;9,82
444,705;9,81
444,96;9,8
445,214;9,79
445,469;9,79
445,724;9,79
445,978;9,79
446,233;9,77
446,487;9,76
446,742;9,75
446,997;9,74
447,251;9,71
447,506;9,74
447,76;9,74
448,015;9,74
448,269;9,7
448,524;9,67
448,778;9,65
449,033;9,64
449,287;9,65
449,541;9,64
449,796;9,62
450,05;9,62
450,305;9,6
450,559;9,6
450,813;9,59
451,067;9,58
451,322;9,58
451,576;9,58
451,83;9,56
452,084;9,55
452,339;9,53
452,593;9,54
452,847;9,49
453,101;9,5
453,355;9,5
453,609;9,48
453,864;9,49
454,118;9,49
454,372;9,48
454,626;9,49
454,88;9,47
455,134;9,48
455,388;9,49
455,642;9,5
455,896;9,49
456,15;9,49
456,404;9,5
456,658;9,49
456,912;9,49
457,165;9,51
457,419;9,5
457,673;9,53
457,927;9,51
458,181;9,52
458,435;9,53
458,688;9,52
458,942;9,52
459,196;9,49
459,45;9,49
459,703;9,48
459,957;9,47
460,211;9,46
460,464;9,47
460,718;9,46
460,972;9,48
461,225;9,46
461,479;9,46
461,732;9,47
461,986;9,46
462,239;9,46
462,493;9,47
462,746;9,49
463;9,46
463,253;9,47
463,507;9,46
463,76;9,45
464,014;9,45
464,267;9,45
464,52;9,47
464,774;9,48
465,027;9,48
465,28;9,49
465,534;9,49
465,787;9,49
466,04;9,47
466,294;9,45
466,547;9,46
466,8;9,45
467,053;9,44
467,306;9,44
467,56;9,43
467,813;9,43
468,066;9,42
468,319;9,45
468,572;9,44
468,825;9,44
469,078;9,45
469,331;9,45
469,584;9,46
469,837;9,46
470,09;9,46
470,343;9,48
470,596;9,48
470,849;9,49
471,102;9,49
471,355;9,51
471,608;9,53
471,861;9,54
472,114;9,55
472,367;9,55
472,619;9,56
472,872;9,58
473,125;9,58
473,378;9,6
473,631;9,6
473,883;9,61
474,136;9,62
474,389;9,63
474,641;9,65
474,894;9,66
475,147;9,67
475,399;9,68
475,652;9,7
475,905;9,71
476,157;9,71
476,41;9,71
476,662;9,74
476,915;9,73
477,167;9,72
477,42;9,75
477,672;9,77
477,925;9,8
478,177;9,81
478,43;9,81
478,682;9,81
478,934;9,82
479,187;9,83
479,439;9,85
479,691;9,84
479,944;9,85
480,196;9,85
480,448;9,87
480,701;9,87
480,953;9,88
481,205;9,89
481,457;9,91
481,709;9,93
481,962;9,96
482,214;10
482,466;10,08
482,718;10,14
482,97;10,23
483,222;10,31
483,474;10,38
483,726;10,44
483,978;10,49
484,23;10,52
484,482;10,56
484,734;10,58
484,986;10,59
485,238;10,59
485,49;10,61
485,742;10,61
485,994;10,62
486,246;10,62
486,498;10,62
486,75;10,63
487,001;10,62
487,253;10,6
487,505;10,59
487,757;10,55
488,009;10,52
488,26;10,46
488,512;10,4
488,764;10,33
489,015;10,28
489,267;10,23
489,519;10,19
489,77;10,15
490,022;10,12
490,274;10,11
490,525;10,12
490,777;10,1
491,028;10,1
491,28;10,08
491,531;10,07
491,783;10,06
492,034;10,07
492,286;10,06
492,537;10,07
492,789;10,07
493,04;10,07
493,291;10,05
493,543;10,05
493,794;10,05
494,045;10,05
494,297;10,06
494,548;10,06
494,799;10,06
495,051;10,07
495,302;10,06
495,553;10,06
495,804;10,06
496,056;10,07
496,307;10,06
496,558;10,07
496,809;10,07
497,06;10,09
497,311;10,09
497,562;10,1
497,813;10,1
498,064;10,1
498,316;10,09
498,567;10,09
498,818;10,08
499,069;10,09
499,319;10,09
499,57;10,08
499,821;10,07
500,072;10,07
500,323;10,07
500,574;10,08
500,825;10,07
501,076;10,06
501,327;10,05
501,577;10,05
501,828;10,05
502,079;10,04
502,33;10,03
502,58;10,02
502,831;10
503,082;10
503,333;10
503,583;10
503,834;10
504,084;10,01
504,335;10
504,586;9,99
504,836;9,97
505,087;9,97
505,337;9,96
505,588;9,95
505,838;9,94
506,089;9,94
506,339;9,93
506,59;9,93
506,84;9,92
507,091;9,92
507,341;9,91
507,591;9,91
507,842;9,89
508,092;9,89
508,343;9,88
508,593;9,88
508,843;9,87
509,093;9,87
509,344;9,84
509,594;9,83
509,844;9,81
510,094;9,81
510,345;9,8
510,595;9,79
510,845;9,78
511,095;9,77
511,345;9,76
511,595;9,75
511,845;9,74
512,095;9,73
512,345;9,71
512,595;9,71
512,845;9,7
513,095;9,71
513,345;9,69
513,595;9,68
513,845;9,67
514,095;9,65
514,345;9,64
514,595;9,63
514,845;9,61
515,095;9,62
515,345;9,61
515,594;9,61
515,844;9,61
516,094;9,61
516,344;9,6
516,593;9,59
516,843;9,57
517,093;9,57
517,343;9,56
517,592;9,55
517,842;9,53
518,092;9,52
518,341;9,5
518,591;9,5
518,84;9,5
519,09;9,5
519,34;9,5
519,589;9,5
519,839;9,49
520,088;9,5
520,338;9,48
520,587;9,47
520,836;9,45
521,086;9,44
521,335;9,43
521,585;9,42
521,834;9,42
522,083;9,42
522,333;9,4
522,582;9,4
522,831;9,38
523,081;9,38
523,33;9,37
523,579;9,37
523,828;9,37
524,078;9,37
524,327;9,35
524,576;9,35
524,825;9,33
525,074;9,32
525,323;9,3
525,573;9,31
525,822;9,3
526,071;9,31
526,32;9,3
526,569;9,31
526,818;9,3
527,067;9,3
527,316;9,27
527,565;9,27
527,814;9,26
528,063;9,26
528,312;9,26
528,56;9,25
528,809;9,23
529,058;9,22
529,307;9,2
529,556;9,2
529,805;9,18
530,053;9,18
530,302;9,18
530,551;9,18
530,8;9,18
531,048;9,19
531,297;9,17
531,546;9,16
531,794;9,15
532,043;9,14
532,292;9,13
532,54;9,14
532,789;9,13
533,037;9,14
533,286;9,13
533,535;9,13
533,783;9,13
534,032;9,13
534,28;9,12
534,528;9,12
534,777;9,11
535,025;9,12
535,274;9,11
535,522;9,1
535,771;9,09
536,019;9,09
536,267;9,07
536,516;9,07
536,764;9,06
537,012;9,05
537,26;9,05
537,509;9,06
537,757;9,04
538,005;9,04
538,253;9,04
538,501;9,04
538,75;9,02
538,998;9,02
539,246;9,02
539,494;9,02
539,742;9,02
539,99;9,01
540,238;9,01
540,486;9,01
540,734;9,01
540,982;9
541,23;8,97
541,478;8,99
541,726;8,98
541,974;8,99
542,222;8,98
542,47;8,98
542,718;8,97
542,966;8,98
543,213;8,95
543,461;8,94
543,709;8,93
543,957;8,93
544,205;8,93
544,452;8,93
544,7;8,92
544,948;8,92
545,196;8,91
545,443;8,91
545,691;8,9
545,939;8,9
546,186;8,9
546,434;8,9
546,681;8,88
546,929;8,89
547,176;8,89
547,424;8,89
547,671;8,88
547,919;8,89
548,166;8,87
548,414;8,89
548,661;8,9
548,909;8,91
549,156;8,9
549,404;8,9
549,651;8,89
549,898;8,91
550,146;8,91
550,393;8,92
550,64;8,91
550,888;8,91
551,135;8,92
551,382;8,92
551,629;8,92
551,876;8,93
552,124;8,91
552,371;8,91
552,618;8,89
552,865;8,9
553,112;8,89
553,359;8,89
553,606;8,89
553,854;8,88
554,101;8,87
554,348;8,87
554,595;8,86
554,842;8,86
555,089;8,85
555,336;8,84
555,582;8,84
555,829;8,83
556,076;8,82
556,323;8,82
556,57;8,82
556,817;8,82
557,064;8,8
557,311;8,8
557,557;8,79
557,804;8,8
558,051;8,79
558,298;8,79
558,544;8,78
558,791;8,78
559,038;8,77
559,284;8,77
559,531;8,77
559,778;8,78
560,024;8,76
560,271;8,75
560,517;8,74
560,764;8,74
561,011;8,74
561,257;8,74
561,504;8,73
561,75;8,74
561,997;8,74
562,243;8,75
562,489;8,74
562,736;8,76
562,982;8,74
563,229;8,73
563,475;8,73
563,721;8,73
563,968;8,73
564,214;8,73
564,46;8,73
564,707;8,73
564,953;8,72
565,199;8,73
565,445;8,74
565,691;8,75
565,938;8,75
566,184;8,76
566,43;8,76
566,676;8,78
566,922;8,78
567,168;8,79
567,414;8,8
567,66;8,82
567,906;8,83
568,152;8,86
568,398;8,88
568,644;8,9
568,89;8,92
569,136;8,93
569,382;8,94
569,628;8,96
569,874;8,97
570,12;8,99
570,366;9
570,612;9,02
570,857;9,02
571,103;9,04
571,349;9,05
571,595;9,06
571,84;9,06
572,086;9,08
572,332;9,08
572,578;9,09
572,823;9,07
573,069;9,09
573,315;9,09
573,56;9,09
573,806;9,09
574,051;9,1
574,297;9,1
574,542;9,12
574,788;9,13
575,034;9,14
575,279;9,15
575,524;9,15
575,77;9,15
576,015;9,16
576,261;9,16
576,506;9,16
576,752;9,16
576,997;9,16
577,242;9,16
577,488;9,16
577,733;9,15
577,978;9,17
578,223;9,16
578,469;9,17
578,714;9,17
578,959;9,17
579,204;9,18
579,45;9,18
579,695;9,18
579,94;9,18
580,185;9,16
580,43;9,16
580,675;9,15
580,92;9,16
581,165;9,14
581,41;9,13
581,655;9,12
581,9;9,12
582,145;9,11
582,39;9,11
582,635;9,1
582,88;9,09
583,125;9,08
583,37;9,07
583,615;9,05
583,86;9,04
584,105;9,02
584,349;9,01
584,594;8,99
584,839;8,98
585,084;8,96
585,328;8,95
585,573;8,94
585,818;8,93
586,063;8,91
586,307;8,91
586,552;8,89
586,797;8,88
587,041;8,87
587,286;8,86
587,53;8,83
587,775;8,81
588,019;8,8
588,264;8,79
588,508;8,77
588,753;8,76
588,997;8,74
589,242;8,73
589,486;8,71
589,731;8,7
589,975;8,68
590,22;8,67
590,464;8,66
590,708;8,65
590,953;8,64
591,197;8,63
591,441;8,63
591,685;8,62
591,93;8,61
592,174;8,62
592,418;8,61
592,662;8,61
592,907;8,61
593,151;8,61
593,395;8,6
593,639;8,6
593,883;8,59
594,127;8,59
594,371;8,58
594,615;8,57
594,859;8,56
595,103;8,55
595,347;8,54
595,591;8,54
595,835;8,52
596,079;8,51
596,323;8,5
596,567;8,48
596,811;8,48
597,055;8,48
597,299;8,47
597,542;8,47
597,786;8,47
598,03;8,47
598,274;8,46
598,518;8,47
598,761;8,46
599,005;8,46
599,249;8,46
599,492;8,45
599,736;8,46
599,98;8,46
600,223;8,46
600,467;8,47
600,711;8,47
600,954;8,47
601,198;8,47
601,441;8,47
601,685;8,46
601,928;8,46
602,172;8,45
602,415;8,44
602,659;8,44
602,902;8,43
603,145;8,43
603,389;8,43
603,632;8,42
603,876;8,42
604,119;8,43
604,362;8,42
604,606;8,41
604,849;8,41
605,092;8,39
605,335;8,39
605,579;8,38
605,822;8,37
606,065;8,34
606,308;8,34
606,551;8,33
606,794;8,32
607,037;8,3
607,281;8,31
607,524;8,3
607,767;8,29
608,01;8,28
608,253;8,28
608,496;8,27
608,739;8,26
608,982;8,24
609,225;8,23
609,468;8,22
609,711;8,22
609,953;8,21
610,196;8,21
610,439;8,2
610,682;8,19
610,925;8,18
611,168;8,19
611,41;8,18
611,653;8,2
611,896;8,19
612,139;8,19
612,381;8,18
612,624;8,18
612,867;8,17
613,109;8,16
613,352;8,16
613,595;8,16
613,837;8,15
614,08;8,14
614,322;8,14
614,565;8,14
614,807;8,13
615,05;8,13
615,292;8,12
615,535;8,12
615,777;8,11
616,02;8,11
616,262;8,11
616,505;8,11
616,747;8,09
616,989;8,09
617,232;8,09
617,474;8,09
617,716;8,07
617,959;8,08
618,201;8,08
618,443;8,08
618,685;8,07
618,927;8,09
619,17;8,08
619,412;8,08
619,654;8,08
619,896;8,09
620,138;8,08
620,38;8,1
620,622;8,09
620,864;8,1
621,107;8,09
621,349;8,1
621,591;8,1
621,833;8,11
622,075;8,11
622,316;8,11
622,558;8,11
622,8;8,12
623,042;8,11
623,284;8,11
623,526;8,1
623,768;8,1
624,01;8,09
624,251;8,09
624,493;8,07
624,735;8,06
624,977;8,06
625,218;8,05
625,46;8,04
625,702;8,03
625,943;8,02
626,185;8,02
626,427;8,01
626,668;8,01
626,91;7,99
627,152;7,98
627,393;7,97
627,635;7,97
627,876;7,96
628,118;7,96
628,359;7,95
628,601;7,95
628,842;7,93
629,084;7,93
629,325;7,92
629,566;7,92
629,808;7,92
630,049;7,92
630,29;7,9
630,532;7,9
630,773;7,88
631,014;7,89
631,256;7,87
631,497;7,86
631,738;7,84
631,979;7,83
632,22;7,82
632,462;7,81
632,703;7,79
632,944;7,79
633,185;7,78
633,426;7,78
633,667;7,77
633,908;7,77
634,149;7,76
634,39;7,76
634,631;7,74
634,872;7,74
635,113;7,72
635,354;7,72
635,595;7,7
635,836;7,71
636,077;7,69
636,318;7,7
636,559;7,68
636,8;7,69
637,04;7,69
637,281;7,69
637,522;7,68
637,763;7,69
638,003;7,68
638,244;7,69
638,485;7,68
638,726;7,67
638,966;7,66
639,207;7,66
639,448;7,64
639,688;7,66
639,929;7,65
640,169;7,65
640,41;7,65
640,65;7,65
640,891;7,64
641,131;7,63
641,372;7,61
641,612;7,62
641,853;7,6
642,093;7,6
642,334;7,59
642,574;7,6
642,814;7,58
643,055;7,59
643,295;7,58
643,535;7,58
643,776;7,58
644,016;7,58
644,256;7,58
644,496;7,59
644,737;7,57
644,977;7,58
645,217;7,57
645,457;7,58
645,697;7,58
645,938;7,59
646,178;7,6
646,418;7,61
646,658;7,6
646,898;7,61
647,138;7,61
647,378;7,62
647,618;7,62
647,858;7,62
648,098;7,62
648,338;7,64
648,578;7,63
648,818;7,63
649,057;7,63
649,297;7,64
649,537;7,63
649,777;7,64
650,017;7,64
650,257;7,64
650,496;7,64
650,736;7,64
650,976;7,62
661,028;7,72
661,267;7,72
661,506;7,72
661,744;7,72
661,983;7,71
662,222;7,72
662,461;7,71
662,7;7,71
662,939;7,71
663,177;7,72
663,416;7,72
663,655;7,73
663,894;7,74
664,132;7,74
664,371;7,73
664,61;7,73
664,848;7,74
665,087;7,74
665,326;7,75
665,564;7,76
665,803;7,77
666,041;7,77
666,28;7,76
666,518;7,75
666,757;7,76
666,995;7,77
667,234;7,77
667,472;7,78
667,711;7,78
667,949;7,79
668,187;7,79
668,426;7,8
668,664;7,79
668,902;7,78
669,141;7,8
669,379;7,8
669,617;7,83
669,856;7,83
670,094;7,84
670,332;7,84
670,57;7,84
670,808;7,85
671,046;7,86
671,285;7,86
671,523;7,87
671,761;7,87
671,999;7,88
672,237;7,88
672,475;7,89
672,713;7,89
672,951;7,89
673,189;7,89
673,427;7,89
673,665;7,9
673,903;7,92
674,141;7,92
674,379;7,93
674,617;7,93
674,854;7,94
675,092;7,94
675,33;7,95
675,568;7,96
675,806;7,97
676,043;7,98
676,281;8
676,519;8,01
676,756;8,03
676,994;8,04
677,232;8,05
677,469;8,06
677,707;8,09
677,945;8,11
678,182;8,13
678,42;8,14
678,657;8,15
678,895;8,15
679,132;8,17
679,37;8,19
679,607;8,2
679,845;8,2
680,082;8,22
680,32;8,22
680,557;8,23
680,794;8,24
681,032;8,25
681,269;8,25
681,507;8,27
681,744;8,28
681,981;8,3
682,218;8,31
682,456;8,33
682,693;8,33
682,93;8,34
683,167;8,34
683,404;8,35
683,642;8,37
683,879;8,39
684,116;8,41
684,353;8,43
684,59;8,43
684,827;8,45
685,064;8,47
685,301;8,49
685,538;8,5
685,775;8,53
686,012;8,53
686,249;8,55
686,486;8,55
686,723;8,56
686,96;8,57
687,197;8,59
687,433;8,6
687,67;8,62
687,907;8,64
688,144;8,66
688,381;8,68
688,617;8,71
688,854;8,72
689,091;8,73
689,327;8,76
689,564;8,78
689,801;8,81
690,037;8,83
690,274;8,84
690,511;8,88
690,747;8,89
690,984;8,92
691,22;8,94
691,457;8,98
691,693;9,01
691,93;9,05
692,166;9,07
692,403;9,09
692,639;9,11
692,876;9,13
693,112;9,15
693,348;9,18
693,585;9,21
693,821;9,25
694,057;9,28
694,294;9,3
694,53;9,34
694,766;9,38
695,002;9,4
695,239;9,44
695,475;9,46
695,711;9,51
695,947;9,53
696,183;9,58
696,419;9,61
696,656;9,64
696,892;9,68
697,128;9,73
697,364;9,79
697,6;9,83
697,836;9,86
698,072;9,91
698,308;9,96
698,544;10
698,78;10,03
699,016;10,08
699,251;10,11
699,487;10,16
699,723;10,21
699,959;10,26
700,195;10,32
700,431;10,38
700,666;10,42
700,902;10,48
701,138;10,53
701,374;10,59
701,609;10,63
701,845;10,69
702,081;10,73
702,316;10,79
702,552;10,84
702,788;10,92
703,023;10,97
703,259;11,04
703,494;11,1
703,73;11,17
703,965;11,25
704,201;11,33
704,436;11,4
704,672;11,48
704,907;11,56
705,143;11,65
705,378;11,74
705,613;11,83
705,849;11,91
706,084;12,01
706,319;12,08
706,555;12,19
706,79;12,27
707,025;12,37
707,26;12,46
707,496;12,57
707,731;12,65
707,966;12,76
708,201;12,86
708,436;12,97
708,671;13,07
708,907;13,17
709,142;13,28
709,377;13,39
709,612;13,5
709,847;13,6
710,082;13,7
710,317;13,82
710,552;13,93
710,787;14,06
711,022;14,17
711,257;14,3
711,492;14,42
711,726;14,54
711,961;14,67
712,196;14,81
712,431;14,95
712,666;15,1
712,901;15,23
713,135;15,37
713,37;15,5
713,605;15,65
713,839;15,79
714,074;15,94
714,309;16,07
714,543;16,22
714,778;16,38
715,013;16,56
715,247;16,72
715,482;16,89
715,716;17,06
715,951;17,24
716,185;17,41
716,42;17,61
716,654;17,81
716,889;18
717,123;18,17
717,358;18,34
717,592;18,52
717,827;18,72
718,061;18,91
718,295;19,11
718,53;19,31
718,764;19,52
718,998;19,72
719,232;19,94
719,467;20,15
719,701;20,36
719,935;20,56
720,169;20,77
720,403;20,97
720,638;21,22
720,872;21,43
721,106;21,66
721,34;21,88
721,574;22,1
721,808;22,33
722,042;22,59
722,276;22,83
722,51;23,08
722,744;23,34
722,978;23,61
723,212;23,88
723,446;24,15
723,68;24,42
723,914;24,7
724,147;24,95
724,381;25,21
724,615;25,48
724,849;25,77
725,083;26,06
725,316;26,36
725,55;26,61
725,784;26,92
726,018;27,22
726,251;27,51
726,485;27,81
726,719;28,11
726,952;28,41
727,186;28,7
727,419;29
727,653;29,33
727,887;29,61
728,12;29,92
728,354;30,22
728,587;30,54
728,821;30,86
729,054;31,18
729,287;31,5
729,521;31,81
729,754;32,11
729,988;32,41
730,221;32,7
730,454;33,03
730,688;33,32
730,921;33,61
731,154;33,91
731,387;34,22
731,621;34,54
731,854;34,84
732,087;35,17
732,32;35,5
732,553;35,79
732,787;36,13
733,02;36,44
733,253;36,75
733,486;37,05
733,719;37,35
733,952;37,67
734,185;37,98
734,418;38,32
734,651;38,63
734,884;38,93
735,117;39,26
735,35;39,58
735,583;39,9
735,816;40,22
736,049;40,54
736,281;40,84
736,514;41,16
736,747;41,48
736,98;41,79
737,213;42,09
737,445;42,4
737,678;42,68
737,911;42,97
738,144;43,28
738,376;43,6
738,609;43,91
738,842;44,19
739,074;44,51
739,307;44,8
739,539;45,11
739,772;45,45
740,004;45,75
740,237;46,04
740,469;46,35
740,702;46,64
740,934;46,94
741,167;47,26
741,399;47,55
741,632;47,86
741,864;48,18
742,096;48,5
742,329;48,82
742,561;49,16
742,793;49,45
743,026;49,76
743,258;50,06
743,49;50,37
743,723;50,67
743,955;50,96
744,187;51,25
744,419;51,54
744,651;51,83
744,883;52,14
745,115;52,43
745,348;52,7
745,58;52,97
745,812;53,25
746,044;53,52
746,276;53,84
746,508;54,1
746,74;54,39
746,972;54,64
747,204;54,93
747,436;55,18
747,667;55,49
747,899;55,75
748,131;56,01
748,363;56,26
748,595;56,53
748,827;56,82
749,058;57,06
749,29;57,32
749,522;57,55
749,754;57,78
749,985;58,01
750,217;58,27
750,449;58,54
750,68;58,77
750,912;59
751,144;59,23
751,375;59,47
751,607;59,68
751,838;59,93
752,07;60,13
752,301;60,36
752,533;60,57
752,764;60,79
752,996;61,01
753,227;61,24
753,459;61,47
753,69;61,67
753,921;61,9
754,153;62,1
754,384;62,34
754,615;62,55
754,847;62,77
755,078;62,99
755,309;63,17
755,54;63,35
755,772;63,54
756,003;63,75
756,234;63,92
756,465;64,11
756,696;64,29
756,927;64,5
757,159;64,68
757,39;64,86
757,621;65,04
757,852;65,2
758,083;65,38
758,314;65,55
758,545;65,73
758,776;65,92
759,007;66,11
759,238;66,27
759,469;66,46
759,699;66,65
759,93;66,8
760,161;66,99
760,392;67,2
760,623;67,37
760,854;67,53
761,084;67,73
761,315;67,92
761,546;68,09
761,776;68,23
762,007;68,42
762,238;68,58
762,468;68,73
762,699;68,91
762,93;69,08
763,16;69,25
763,391;69,4
763,621;69,53
763,852;69,68
764,083;69,84
764,313;69,97
764,543;70,1
764,774;70,25
765,004;70,39
765,235;70,53
765,465;70,67
765,696;70,82
765,926;70,94
766,156;71,06
766,387;71,23
766,617;71,39
766,847;71,5
767,077;71,64
767,308;71,82
767,538;71,98
767,768;72,1
767,998;72,26
768,228;72,39
768,459;72,55
768,689;72,69
768,919;72,82
769,149;72,92
769,379;73,07
769,609;73,19
769,839;73,33
770,069;73,47
770,299;73,56
770,529;73,68
770,759;73,82
770,989;73,95
771,219;74,05
771,449;74,16
771,678;74,29
771,908;74,42
772,138;74,53
772,368;74,64
772,598;74,77
772,827;74,84
773,057;74,96
773,287;75,09
773,517;75,18
773,746;75,31
773,976;75,44
774,206;75,53
774,435;75,66
774,665;75,77
774,894;75,87
775,124;76,02
775,354;76,11
775,583;76,23
775,813;76,34
776,042;76,44
776,272;76,54
776,501;76,64
776,73;76,75
776,96;76,85
777,189;76,92
777,419;77,03
777,648;77,15
777,877;77,23
778,107;77,32
778,336;77,44
778,565;77,53
778,794;77,63
779,024;77,75
779,253;77,81
779,482;77,88
779,711;77,95
779,94;78,03
780,17;78,1
780,399;78,14
780,628;78,23
780,857;78,35
781,086;78,42
781,315;78,48
781,544;78,56
781,773;78,63
782,002;78,71
782,231;78,79
782,46;78,85
782,689;78,95
782,918;79
783,147;79,09
783,375;79,18
783,604;79,24
783,833;79,31
784,062;79,41
784,291;79,52
784,519;79,59
784,748;79,67
784,977;79,77
785,206;79,87
785,434;79,94
785,663;79,99
785,892;80,08
786,12;80,19
786,349;80,28
786,577;80,39
786,806;80,5
787,034;80,57
787,263;80,66
787,492;80,73
787,72;80,81
787,948;80,86
788,177;80,91
788,405;80,99
788,634;81,04
788,862;81,11
789,09;81,16
789,319;81,23
789,547;81,31
789,775;81,37
790,004;81,44
790,232;81,49
790,46;81,55
790,688;81,65
790,917;81,71
791,145;81,79
791,373;81,81
791,601;81,86
791,829;81,9
792,057;81,93
792,286;81,99
792,514;82,06
792,742;82,1
792,97;82,17
793,198;82,25
793,426;82,31
793,654;82,37
793,882;82,41
794,109;82,48
794,337;82,52
794,565;82,6
794,793;82,65
795,021;82,74
795,249;82,82
795,477;82,87
795,704;82,95
795,932;82,99
796,16;83,11
796,388;83,21
796,615;83,3
796,843;83,44
797,071;83,52
797,298;83,57
797,526;83,67
797,754;83,72
797,981;83,75
798,209;83,82
798,436;83,87
798,664;83,97
798,891;84,03
799,119;84,13
799,346;84,17
799,574;84,25
799,801;84,3
800,029;84,34
800,256;84,4
800,483;84,42
800,711;84,5
800,938;84,53
801,165;84,56
801,393;84,63
801,62;84,62
801,847;84,65
802,074;84,69
802,302;84,77
802,529;84,85
802,756;84,91
802,983;85
803,21;85,1
803,437;85,16
803,665;85,21
803,892;85,24
804,119;85,32
804,346;85,36
804,573;85,4
804,8;85,45
805,027;85,47
805,254;85,57
805,481;85,53
805,708;85,59
805,934;85,6
806,161;85,67
806,388;85,74
806,615;85,8
806,842;85,87
807,069;85,91
807,295;85,96
807,522;86,01
807,749;86,04
807,976;86,07
808,202;86,09
808,429;86,1
808,656;86,17
808,882;86,17
809,109;86,27
809,335;86,31
809,562;86,36
809,789;86,44
810,015;86,46
810,242;86,58
810,468;86,6
810,695;86,68
810,921;86,69
811,147;86,71
811,374;86,8
811,6;86,85
811,827;86,85
812,053;86,88
812,279;86,91
812,506;86,96
812,732;86,99
812,958;87,04
813,185;87,12
813,411;87,12
813,637;87,18
813,863;87,15
814,089;87,22
814,315;87,29
814,542;87,31
814,768;87,37
814,994;87,42
815,22;87,47
815,446;87,51
815,672;87,55
815,898;87,61
816,124;87,59
816,35;87,63
816,576;87,73
816,802;87,8
817,028;87,9
817,254;87,95
817,48;87,99
817,705;88,05
817,931;88,06
818,157;88,16
818,383;88,2
818,609;88,27
818,834;88,28
819,06;88,34
819,286;88,37
819,512;88,45
819,737;88,46
819,963;88,49
820,189;88,54
820,414;88,55
820,64;88,57
820,865;88,62
821,091;88,7
821,316;88,69
821,542;88,72
821,767;88,7
821,993;88,74
822,218;88,79
822,444;88,86
822,669;88,93
822,895;88,92
823,12;88,95
823,345;89
823,571;89,02
823,796;89,06
824,021;89,11
824,247;89,11
824,472;89,17
824,697;89,23
824,922;89,25
825,147;89,29
825,373;89,37
825,598;89,4
825,823;89,38
826,048;89,46
826,273;89,48
826,498;89,55
826,723;89,54
826,948;89,55
827,173;89,52
827,398;89,51
827,623;89,55
827,848;89,58
828,073;89,56
828,298;89,62
828,523;89,62
828,748;89,61
828,973;89,64
829,197;89,68
829,422;89,72
829,647;89,75
829,872;89,78
830,097;89,81
830,321;89,89
830,546;89,96
830,771;90,01
830,995;90,06
831,22;90,06
831,445;90,13
831,669;90,15
831,894;90,21
832,118;90,23
832,343;90,27
832,567;90,34
832,792;90,38
833,016;90,41
833,241;90,49
833,465;90,53
833,69;90,6
833,914;90,57
834,139;90,62
834,363;90,63
834,587;90,69
834,812;90,69
835,036;90,71
835,26;90,74
835,485;90,69
835,709;90,69
835,933;90,75
836,157;90,78
836,381;90,87
836,606;90,89
836,83;90,95
837,054;90,93
837,278;90,94
837,502;90,98
837,726;91
837,95;90,95
838,174;90,96
838,398;90,94
838,622;91
838,846;90,98
839,07;91
839,294;91,01
839,518;91,07
839,742;91,13
839,966;91,16
840,189;91,18
840,413;91,24
840,637;91,26
840,861;91,28
841,085;91,29
841,308;91,36
841,532;91,34
841,756;91,44
841,979;91,46
842,203;91,55
842,427;91,58
842,65;91,66
842,874;91,77
843,098;91,8
843,321;91,83
843,545;91,88
843,768;91,95
843,992;92,01
844,215;92,01
844,439;92,01
844,662;92,05
844,886;92,09
845,109;92,1
845,332;92,14
845,556;92,12
845,779;92,12
846,002;92,1
846,226;92,17
846,449;92,18
846,672;92,28
846,895;92,26
847,119;92,26
847,342;92,29
847,565;92,34
847,788;92,37
848,011;92,45
848,234;92,49
848,457;92,47
848,681;92,48
848,904;92,52
849,127;92,53
849,35;92,6
849,573;92,65
849,796;92,67
850,019;92,7
850,241;92,76
850,464;92,83
850,687;92,9
850,91;92,93
851,133;92,96
851,356;92,97
851,579;93,02
851,801;93
852,024;93
852,247;92,98
852,47;93,01
852,692;92,95
852,915;92,96
853,138;93,01
853,36;93,05
853,583;93,04
853,806;93,09
854,028;93,05
854,251;93,06
854,473;93,09
854,696;93,11
854,918;93,11
855,141;93,11
855,363;93,16
855,586;93,22
855,808;93,22
856,031;93,18
856,253;93,21
856,475;93,31
856,698;93,27
856,92;93,23
857,142;93,22
857,365;93,3
857,587;93,31
857,809;93,38
858,031;93,39
858,253;93,46
858,476;93,41
858,698;93,48
858,92;93,54
859,142;93,56
859,364;93,59
859,586;93,67
859,808;93,74
860,03;93,7
860,252;93,76
860,474;93,83
860,696;93,9
860,918;93,89
861,14;93,97
861,362;94,06
861,584;94,15
861,806;94,21
862,028;94,26
862,25;94,34
862,471;94,39
862,693;94,4
862,915;94,39
863,137;94,51
863,358;94,47
863,58;94,49
863,802;94,53
864,024;94,52
864,245;94,54
864,467;94,52
864,688;94,61
864,91;94,59
865,132;94,57
865,353;94,59
865,575;94,69
865,796;94,66
866,018;94,69
866,239;94,76
866,461;94,82
866,682;94,78
866,903;94,82
867,125;94,83
867,346;94,88
867,567;94,91
867,789;94,97
868,01;95,02
868,231;95,01
868,453;95,02
868,674;95,11
868,895;95,11
869,116;95,15
869,337;95,22
869,559;95,21
869,78;95,24
870,001;95,3
870,222;95,3
870,443;95,31
870,664;95,38
870,885;95,43
871,106;95,48
871,327;95,56
871,548;95,49
871,769;95,46
871,99;95,52
872,211;95,57
872,432;95,51
872,653;95,57
872,874;95,69
873,094;95,76
873,315;95,79
873,536;95,79
873,757;95,79
873,978;95,76
874,198;95,76
874,419;95,82
874,64;95,77
874,86;95,82
875,081;95,89
875,302;95,9
875,522;95,87
875,743;95,91
875,963;95,95
876,184;96,01
876,404;96,01
876,625;95,95
876,845;95,99
877,066;96,06
877,286;96,08
877,507;96,07
877,727;96,07
877,947;95,98
878,168;96,11
878,388;96,11
878,609;96,09
878,829;96,15
879,049;96,18
879,269;96,28
879,49;96,27
879,71;96,25
879,93;96,23
880,15;96,21
880,37;96,18
880,59;96,17
880,811;96,3
881,031;96,43
881,251;96,56
881,471;96,56
881,691;96,63
881,911;96,69
882,131;96,74
882,351;96,76
882,571;96,88
882,791;96,84
883,011;96,88
883,23;96,96
883,45;97,05
883,67;97,06
883,89;97,07
884,11;97,11
884,33;97,18
884,549;97,3
884,769;97,51
884,989;97,53
885,209;97,51
885,428;97,48
885,648;97,4
885,868;97,44
886,087;97,55
886,307;97,51
886,526;97,54
886,746;97,58
886,965;97,65
887,185;97,68
887,404;97,72
887,624;97,78
887,843;97,86
888,063;97,95
888,282;98,06
888,502;98,13
888,721;98,12
888,94;98,21
889,16;98,2
889,379;98,16
889,598;98,28
889,818;98,33
890,037;98,37
890,256;98,48
890,475;98,5
890,694;98,52
890,914;98,61
891,133;98,65
891,352;98,62
891,571;98,63
891,79;98,66
892,009;98,76
892,228;98,78
892,447;98,8
892,666;98,73
892,885;98,67
893,104;98,71
893,323;98,85
893,542;98,83
893,761;98,83
893,98;98,78
894,199;98,75
894,417;98,79
894,636;98,86
894,855;98,87
895,074;98,9
895,293;98,89
895,511;98,95
895,73;98,96
895,949;99,02
896,167;99,05
896,386;99,11
896,605;99,14
896,823;99,28
897,042;99,3
897,26;99,33
897,479;99,44
897,697;99,41
897,916;99,4
898,134;99,4
898,353;99,48
898,571;99,63
898,79;99,68
899,008;99,82
899,227;99,81
899,445;99,85
899,663;99,86
899,882;99,85
900,1;99,83
900,318;99,9
900,536;99,97
900,755;100,06
900,973;100,03
901,191;99,94
901,409;99,98
901,627;100,02
901,846;100,09
902,064;100,05
902,282;100,08
902,5;100,1
902,718;100,21
902,936;100,3
903,154;100,26
903,372;100,39
903,59;100,47
903,808;100,47
904,026;100,55
904,244;100,63
904,462;100,71
904,679;100,73
904,897;100,78
905,115;100,76
905,333;100,76
905,551;100,82
905,768;100,91
905,986;100,89
906,204;100,87
906,422;100,99
906,639;101,06
906,857;101,14
907,074;101,23
907,292;101,19
907,51;101,15
907,727;101,21
907,945;101,12
908,162;101,11
908,38;101,19
908,597;101,21
908,815;101,32
909,032;101,46
909,25;101,58
909,467;101,61
909,684;101,72
909,902;101,86
910,119;101,97
910,337;102,08
910,554;102,07
910,771;102,13
910,988;102,11
911,206;102,11
911,423;102,21
911,64;102,15
911,857;102,27
912,074;102,38
912,291;102,38
912,509;102,46
912,726;102,4
912,943;102,46
913,16;102,38
913,377;102,45
913,594;102,27
913,811;102,16
914,028;102,19
914,245;102,23
914,462;102,16
914,679;102,2
914,896;102,17
915,112;102,25
915,329;102,33
915,546;102,33
915,763;102,41
915,98;102,35
916,196;102,46
916,413;102,46
916,63;102,42
916,847;102,48
917,063;102,52
917,28;102,51
917,497;102,44
917,713;102,46
917,93;102,38
918,146;102,43
918,363;102,49
918,579;102,38
918,796;102,44
919,012;102,4
919,229;102,4
919,445;102,47
919,662;102,41
919,878;102,38
920,095;102,48
920,311;102,46
920,527;102,62
920,744;102,69
920,96;102,69
921,176;102,75
921,392;102,69
921,609;102,75
921,825;102,84
922,041;102,92
922,257;102,99
922,473;103,01
922,69;103,12
922,906;103,21
923,122;103,36
923,338;103,21
923,554;103,2
923,77;103,29
923,986;103,31
924,202;103,32
924,418;103,41
924,634;103,4
924,85;103,48
925,066;103,46
925,282;103,29
925,497;103,43
925,713;103,46
925,929;103,66
926,145;103,64
926,361;103,59
926,576;103,71
926,792;103,79
927,008;103,81
927,224;103,83
927,439;103,8
927,655;103,67
927,871;103,76
928,086;103,83
928,302;103,83
928,517;103,87
928,733;103,99
928,948;104,01
929,164;104,01
929,379;104,02
929,595;104,01
929,81;104,18
930,026;104,12
930,241;104,19
930,456;104,16
930,672;104,06
930,887;104,07
931,102;103,99
931,318;103,94
931,533;103,96
931,748;103,98
931,964;104,03
932,179;104,08
932,394;104,18
932,609;104,19
932,824;103,95
933,039;103,89
933,255;103,88
933,47;103,85
933,685;103,92
933,9;103,9
934,115;103,89
934,33;103,79
934,545;103,71
934,76;103,63
934,975;103,42
935,19;103,57
935,404;103,69
935,619;103,71
935,834;103,75
936,049;103,68
936,264;103,64
936,479;103,67
936,693;103,66
936,908;103,53
937,123;103,68
937,338;103,85
937,552;103,86
937,767;103,73
937,982;103,72
938,196;103,59
938,411;103,66
938,625;103,66
938,84;103,58
939,055;103,77
939,269;103,79
939,484;104,03
939,698;103,93
939,912;103,83
940,127;103,87
940,341;103,8
940,556;103,89
940,77;103,96
940,984;103,8
941,199;104,04
941,413;104,51
941,627;104,32
941,842;104,4
942,056;104,78
942,27;104,63
942,484;104,37
942,699;104,5
942,913;104,22
943,127;103,96
943,341;104,4
943,555;104,28
943,769;104,21
943,983;104,23
944,197;104,44
944,411;104,14
944,625;103,97
944,839;104,06
945,053;104,17
945,267;103,88
945,481;104,12
945,695;104,08
945,909;103,75
946,123;103,85
946,336;103,84
946,55;103,2
946,764;104,04
946,978;104,16
947,192;104,15
947,405;104,46
947,619;104,97
947,833;104,93
948,046;104,91
948,26;104,74
948,474;104,63
948,687;104,75
948,901;104,76
949,114;104,5
949,328;104,69
949,541;104,88
949,755;104,97
949,968;104,66
950,182;104,64
950,395;104,26
950,609;104,4
950,822;104,87
951,035;105,08
951,249;104,79
951,462;104,81
951,675;104,73
951,889;104,88
952,102;104,56
952,315;104,47
952,528;104,76
952,741;104,96
952,955;105,18
953,168;105,25
953,381;105,72
953,594;105,98
953,807;105,73
954,02;105,86
954,233;106,07
954,446;106,33
954,659;106,35
954,872;106,87
955,085;106,75
955,298;106,4
955,511;106,43
955,724;106,09
955,937;106,1
956,15;106,35
956,362;106,23
956,575;106,34
956,788;106,45
957,001;106,23
957,214;106,3
957,426;106,36
957,639;106,1
957,852;106,09
958,064;106,11
958,277;106,37
958,49;106,26
958,702;106,25
958,915;106,3
959,127;106,55
959,34;106,07
959,552;106,32
959,765;106,61
959,977;106,94
960,19;107,21
960,402;107,31
960,615;107,13
960,827;106,96
961,039;107
961,252;107,07
961,464;106,7
961,676;106,54
961,889;106,77
962,101;106,91
962,313;106,65
962,525;106,84
962,738;106,66
962,95;106,92
963,162;107,13
963,374;106,95
963,586;106,81
963,798;107
964,01;106,58
964,222;106,63
964,434;106,29
964,646;106,43
964,858;106,3
965,07;106,55
965,282;106,7
965,494;106,49
965,706;106,7
965,918;106,98
966,13;107,13
966,342;106,63
966,553;106,59
966,765;106,53
966,977;106,42
967,189;106,23
967,401;106,05
967,612;106
967,824;106,03
968,036;106,17
968,247;106,16
968,459;106,28
968,67;106,05
968,882;105,97
969,094;105,93
969,305;106,05
969,517;106
969,728;106,13
969,94;106,07
970,151;105,79
970,362;105,71
970,574;105,84
970,785;106,32
970,997;106,17
971,208;106,51
971,419;106,42
971,631;106,94
971,842;106,77
972,053;106,73
972,264;107,11
972,476;107
972,687;107,08
972,898;107,08
973,109;107,63
973,32;108,09
973,531;108,17
973,742;108,01
973,954;107,87
974,165;108,03
974,376;108,3
974,587;108,22
974,798;108,48
975,009;108,39
975,22;108,25
975,43;108,69
975,641;108,73
975,852;109,23
976,063;109,08
976,274;109,39
976,485;108,99
976,695;108,63
976,906;108,69
977,117;108,53
977,328;108,75
977,538;107,96
977,749;108,05
977,96;108,13
978,17;108,37
978,381;108,39
978,592;108,16
978,802;108,4
979,013;108,42
979,223;108,26
979,434;108,29
979,644;108,31
979,855;108,29
980,065;108,06
980,276;107,92
980,486;108,16
980,696;107,72
980,907;108,17
981,117;108,45
981,327;108,62
981,538;108,74
981,748;108,71
981,958;108,95
982,169;108,54
982,379;108,37
982,589;108,53
982,799;108,69
983,009;108,71
983,219;108,6
983,43;108,77
983,64;108,96
983,85;109,25
984,06;109,18
984,27;109,03
984,48;109
984,69;109,04
984,9;108,72
985,11;109,24
985,32;109,27
985,529;109
985,739;108,67
985,949;108,75
986,159;108,26
986,369;108,33
986,579;108,62
986,788;108,55
986,998;108,27
987,208;107,88
987,417;108,09
987,627;108,13
987,837;108,05
988,046;108,02
988,256;107,71
988,466;107,6
988,675;107,82
988,885;108,04
989,094;107,84
989,304;107,9
989,513;107,77
989,723;107,73
989,932;107,82
990,142;107,98
990,351;107,91
990,56;108,59
990,77;108,28
990,979;107,8
991,188;107,56
991,398;107,63
991,607;107,86
991,816;107,47
992,025;107,04
992,235;106,83
992,444;106,7
992,653;106,96
992,862;107,34
993,071;107,05
993,28;106,98
993,489;107,34
993,698;107,35
993,908;107,52
994,117;107,51
994,326;107,29
994,534;107,4
994,743;107,66
994,952;107,65
995,161;108
995,37;108,92
995,579;109,45
995,788;109,78
995,997;109,6
996,205;109,58
996,414;109,83
996,623;110,11
996,832;110,34
997,04;110,11
997,249;109,69
997,458;109,32
997,666;109,58
997,875;109,26
998,084;109,27
998,292;109,11
998,501;108,81
998,709;108,9
998,918;108,46
999,126;108,28
999,335;108,63
999,543;108,48
999,752;107,93
999,96;107,87
1000,169;107,83
1000,377;107,8
1000,585;108,69
1000,794;109,1
1001,002;109,34
1001,21;109,45
1001,418;109,66
1001,627;109,69
1001,835;110,32
1002,043;109,94
1002,251;110,21
1002,459;110,78
1002,668;110,5
1002,876;110,51
1003,084;110,34
1003,292;110,17
1003,5;110,35
1003,708;109,81
1003,916;110,12
1004,124;110,14
1004,332;110,71
1004,54;110,96
1004,748;111,27
1004,956;110,31
1005,163;109,63
1005,371;109,89
1005,579;109,11
1005,787;108,51
1005,995;108,73
1006,202;108,59
1006,41;108,68
1006,618;108,42
1006,826;107,82
1007,033;108,16
1007,241;108,62
1007,449;108,89
1007,656;109,01
1007,864;109,03
1008,071;109,12
1008,279;109,04
1008,486;109,23
1008,694;107,89
1008,901;107,7
1009,109;107,64
1009,316;108,53
1009,524;109,16
1009,731;108,53
1009,938;108,78
1010,146;109,38
1010,353;109,32
1010,56;109,19
1010,768;109,02
1010,975;109,74
1011,182;109,94
1011,389;109,32
1011,597;108,43
1011,804;108,97
1012,011;109,71
1012,218;109,56
1012,425;108,98
1012,632;109,7
1012,839;109,07
1013,046;108,91
1013,253;108,57
1013,46;108,74
1013,667;108,2
1013,874;107,15
1014,081;107,57
1014,288;107,55
1014,495;107,49
1014,702;107,22
1014,909;107,44
1015,116;107,91
1015,323;107,21
1015,529;106,96
1015,736;106,48
1015,943;107,58
1016,15;107,47
1016,356;107,35
1016,563;107,62
1016,77;108,19
1016,976;108,21
1017,183;108,83
1017,389;108,98
1017,596;109,01
1017,803;108,82
1018,009;108,37
1018,216;109,2
1018,422;109,34
1018,629;109,46
1018,835;109,37
1019,041;109,58
1019,248;109,26
1019,454;108,85
1019,661;109,57
1019,867;110,02
1020,073;110,53
1020,279;110,46
1020,486;110,15
1020,692;110,31
1020,898;109,77
1021,104;109
1021,311;107,56
1021,517;107,29
1021,723;108,44
1021,929;108,68
1022,135;108,6
1022,341;108,89
1022,547;109,49
1022,753;108,6
1022,959;109,59
1023,165;109,18
1023,371;108,8
1023,577;109,32
1023,783;109,08
1023,989;107,95
1024,195;107,56
1024,401;107,98
1024,607;108,57
1024,812;109,65
1025,018;108,72
1025,224;109,89
1025,43;110,84
1025,635;112,75
1025,841;113,4
1026,047;113,07
1026,252;113,35
1026,458;113,61
1026,664;113,42
1026,869;113,4
1027,075;114,04
1027,28;113,85
1027,486;113,33
1027,691;114,62
1027,897;113,96
1028,102;114,66
1028,308;114,56
1028,513;115,46
1028,719;116,34
1028,924;114,39
1029,129;112,57
1029,335;113,19
1029,54;112,32
1029,745;111,96
1029,95;111,2
1030,156;110,02
1030,361;109,53
1030,566;110,04
1030,771;110,03
1030,976;110,72
1031,182;110,08
1031,387;110,14
1031,592;110,23
1031,797;110,89
1032,002;109,7
1032,207;110,17
1032,412;110,12
1032,617;111,09
1032,822;109,82
1033,027;109,27
1033,232;110,37
1033,437;110,83
1033,642;111,75
1033,846;111,2
1034,051;111,06
1034,256;110,12
1034,461;110,9
1034,666;111,44
1034,87;111,25
1035,075;110,65
1035,28;108,9
1035,484;108,23
1035,689;108,15
1035,894;107,59
1036,098;108,4
1036,303;109,31
1036,507;109,33
1036,712;109,42
1036,917;110,23
1037,121;110,2
1037,325;109,53
1037,53;109,95
1037,734;109,59
1037,939;109,59
1038,143;110,06
1038,348;109,78
1038,552;110,91
1038,756;111,93
1038,961;111,85
1039,165;110,25
1039,369;111,91
1039,573;112,62
1039,778;114,07
1039,982;114,89
1040,186;115,44
1040,39;114,71
1040,594;114,14
1040,798;114,79
1041,002;114,08
1041,206;112,33
1041,41;112,47
1041,614;114,29
1041,818;114,04
1042,022;115,04
1042,226;114,32
1042,43;115,14
1042,634;116,35
1042,838;116,27
1043,042;116,09
1043,246;116,56
1043,45;115,66
1043,653;113,2
1043,857;114,99
1044,061;113,8
1044,265;113,45
1044,468;113,59
1044,672;115,04
1044,876;115,53
1045,079;115,45
1045,283;116,46
1045,487;115,34
1045,69;116,77
1045,894;115,16
1046,097;115,83
1046,301;114,55
1046,504;114,95
1046,708;114,66
1046,911;113,71
1047,115;112,98
1047,318;113,29
1047,522;113,45
1047,725;114,47
1047,928;115,86
1048,132;117,39
1048,335;117,21
1048,538;118,39
1048,741;118,37
1048,945;116,22
1049,148;116,23
1049,351;115,42
1049,554;115,41
1049,757;116,99
1049,96;116,48
1050,163;117,62
1050,367;115,79
1050,57;116,83
1050,773;114,65
1050,976;112,49
1051,179;114,78
1051,382;117,78
1051,585;116,44
1051,787;117,31
1051,99;119,18
1052,193;117,84
1052,396;117,69
1052,599;117,64
1052,802;114,12
1053,005;110,58
1053,207;113,38
1053,41;112,71
1053,613;114,35
1053,815;112,02
1054,018;110,01
1054,221;108,83
1054,423;107,88
1054,626;109,04
1054,829;108,75
1055,031;110,35
1055,234;112,87
1055,436;110,29
1055,639;106,1
1055,841;105,85
1056,044;104,1
1056,246;101,44
