Data from IndigoWhite_Reflection__3__55.txt Node;
"Date: Fri Sep 12 11:53:23 CEST 2025 User: sycur Spectrometer: SR400348 Trigger mode: 0 Integration Time (sec): 2,000000E-2 Scans to average: 20 Electric dark correction enabled: true Nonlinearity correction enabled: false Boxcar width: 10 XAxis mode: Wavelengths Number of Pixels in Spectrum: 3648 >>>>>Begin Spectral Data<<<<<";
186,01;-834,64
186,281;-5751,47
186,552;135,43
186,822;95,25
187,093;18,18
187,364;16,61
187,635;7800
187,905;44,55
188,176;26,28
188,447;22,21
188,717;16,41
188,988;14,34
189,258;15,1
189,529;16,78
189,8;16,64
190,07;14,63
190,341;14,51
190,611;13,93
190,882;13
191,152;13,04
191,423;13,86
191,693;12,77
191,964;12,49
192,234;12,09
192,505;11,27
192,775;11,16
193,045;10,82
193,316;9,91
193,586;9,96
193,856;9,65
194,127;8,87
194,397;9,02
194,667;9,23
194,938;9,29
195,208;9,09
195,478;9,25
195,748;8,76
196,019;8,55
196,289;8,13
196,559;7,91
196,829;7,2
197,099;7,41
197,37;7,12
197,64;7,35
197,91;7,24
198,18;6,94
198,45;6,77
198,72;6,84
198,99;6,68
199,26;6,16
199,53;6,09
199,8;6,7
200,07;6,49
200,34;6,37
200,61;6,29
200,88;6,4
201,15;6,04
201,42;6,24
201,69;6,22
201,96;6,1
202,23;5,94
202,499;5,98
202,769;5,78
203,039;5,74
203,309;5,54
203,579;5,51
203,849;5,66
204,118;5,5
204,388;5,36
204,658;5,4
204,927;5,38
205,197;5,12
205,467;4,77
205,736;4,8
206,006;4,63
206,276;4,55
206,545;4,34
206,815;4,33
207,085;4,36
207,354;4,27
207,624;4,34
207,893;4,3
208,163;4,34
208,432;4,18
208,702;4,28
208,971;4,4
209,241;4,38
209,51;4,31
209,78;4,31
210,049;4,28
210,318;4,22
210,588;4,24
210,857;4,2
211,127;4,2
211,396;4,23
211,665;4,15
211,935;4,26
212,204;4,26
212,473;4,16
212,742;4,11
213,012;4,11
213,281;4,04
213,55;3,98
213,819;3,94
214,088;3,96
214,358;3,81
214,627;3,73
214,896;3,62
215,165;3,54
215,434;3,49
215,703;3,39
215,972;3,38
216,241;3,38
216,51;3,39
216,779;3,28
217,048;3,21
217,317;3,26
217,586;3,21
217,855;3,21
218,124;3,18
218,393;3,12
218,662;3,08
218,931;3,05
219,2;3,02
219,469;2,97
219,738;2,95
220,006;2,97
220,275;2,95
220,544;2,94
220,813;2,94
221,082;2,91
221,35;2,93
221,619;2,91
221,888;2,87
222,157;2,86
222,425;2,91
222,694;2,89
222,963;2,87
223,231;2,83
223,5;2,85
223,769;2,85
224,037;2,85
224,306;2,84
224,574;2,86
224,843;2,86
225,111;2,86
225,38;2,86
225,648;2,86
225,917;2,82
226,185;2,84
226,454;2,81
226,722;2,8
226,991;2,81
227,259;2,77
227,528;2,75
227,796;2,74
228,064;2,7
228,333;2,69
228,601;2,67
228,869;2,65
229,138;2,62
229,406;2,6
229,674;2,61
229,942;2,6
230,211;2,59
230,479;2,59
230,747;2,58
231,015;2,55
231,283;2,54
231,552;2,55
231,82;2,52
232,088;2,52
232,356;2,51
232,624;2,49
232,892;2,5
233,16;2,52
233,428;2,51
233,696;2,51
233,964;2,51
234,232;2,5
234,5;2,5
234,768;2,49
235,036;2,48
235,304;2,47
235,572;2,45
235,84;2,44
236,108;2,41
236,376;2,41
236,644;2,41
236,912;2,41
237,179;2,39
237,447;2,39
237,715;2,4
237,983;2,4
238,251;2,36
238,518;2,36
238,786;2,34
239,054;2,33
239,322;2,33
239,589;2,33
239,857;2,33
240,125;2,33
240,392;2,33
240,66;2,32
240,927;2,31
241,195;2,3
241,463;2,3
241,73;2,29
241,998;2,28
242,265;2,27
242,533;2,25
242,8;2,25
243,068;2,24
243,335;2,23
243,603;2,22
243,87;2,24
244,138;2,23
244,405;2,22
244,672;2,21
244,94;2,19
245,207;2,17
245,474;2,17
245,742;2,17
246,009;2,15
246,276;2,15
246,544;2,14
246,811;2,15
247,078;2,14
247,345;2,14
247,613;2,13
247,88;2,13
248,147;2,13
248,414;2,12
248,681;2,12
248,948;2,12
249,215;2,12
249,483;2,12
249,75;2,12
250,017;2,11
250,284;2,12
250,551;2,12
250,818;2,12
251,085;2,11
251,352;2,1
251,619;2,11
251,886;2,1
252,153;2,1
252,42;2,09
252,687;2,09
252,953;2,08
253,22;2,1
253,487;2,09
253,754;2,08
254,021;2,08
254,288;2,08
254,555;2,08
254,821;2,08
255,088;2,08
255,355;2,08
255,622;2,08
255,888;2,06
256,155;2,06
256,422;2,05
256,688;2,05
256,955;2,04
257,222;2,03
257,488;2,03
257,755;2,03
258,022;2,03
258,288;2,03
258,555;2,03
258,821;2,02
259,088;2,03
259,354;2,03
259,621;2,03
259,887;2,02
260,154;2,01
260,42;2
260,687;1,99
260,953;1,99
261,219;1,98
261,486;1,99
261,752;1,98
262,019;1,99
262,285;1,98
262,551;1,97
262,818;1,98
263,084;1,97
263,35;1,97
263,616;1,95
263,883;1,95
264,149;1,94
264,415;1,92
264,681;1,93
264,947;1,93
265,214;1,92
265,48;1,92
265,746;1,93
266,012;1,92
266,278;1,92
266,544;1,91
266,81;1,92
267,076;1,91
267,342;1,92
267,608;1,91
267,874;1,92
268,14;1,92
268,406;1,91
268,672;1,92
268,938;1,91
269,204;1,92
269,47;1,92
269,736;1,91
270,002;1,92
270,268;1,91
270,533;1,9
270,799;1,9
271,065;1,9
271,331;1,88
271,597;1,87
271,862;1,87
272,128;1,88
272,394;1,87
272,66;1,86
272,925;1,87
273,191;1,86
273,457;1,87
273,722;1,87
273,988;1,86
274,254;1,85
274,519;1,86
274,785;1,85
275,05;1,85
275,316;1,85
275,582;1,85
275,847;1,85
276,113;1,85
276,378;1,85
276,644;1,85
276,909;1,85
277,174;1,86
277,44;1,86
277,705;1,86
277,971;1,87
278,236;1,87
278,501;1,87
278,767;1,87
279,032;1,86
279,297;1,86
279,563;1,87
279,828;1,87
280,093;1,87
280,358;1,87
280,624;1,87
280,889;1,88
281,154;1,88
281,419;1,88
281,684;1,88
281,95;1,89
282,215;1,89
282,48;1,89
282,745;1,9
283,01;1,89
283,275;1,89
283,54;1,88
283,805;1,88
284,07;1,89
284,335;1,9
284,6;1,9
284,865;1,91
285,13;1,91
285,395;1,92
285,66;1,92
285,925;1,92
286,19;1,93
286,455;1,93
286,72;1,93
286,985;1,94
287,249;1,95
287,514;1,94
287,779;1,94
288,044;1,94
288,309;1,94
288,573;1,95
288,838;1,95
289,103;1,96
289,367;1,97
289,632;1,96
289,897;1,96
290,161;1,96
290,426;1,96
290,691;1,96
290,955;1,96
291,22;1,95
291,484;1,95
291,749;1,95
292,014;1,95
292,278;1,95
292,543;1,95
292,807;1,94
293,072;1,95
293,336;1,94
293,6;1,94
293,865;1,94
294,129;1,93
294,394;1,93
294,658;1,94
294,922;1,93
295,187;1,94
295,451;1,93
295,715;1,93
295,98;1,93
296,244;1,94
296,508;1,93
296,773;1,94
297,037;1,93
297,301;1,93
297,565;1,93
297,829;1,93
298,094;1,93
298,358;1,93
298,622;1,93
298,886;1,93
299,15;1,94
299,414;1,95
299,678;1,95
299,942;1,94
300,206;1,94
300,47;1,94
300,734;1,94
300,998;1,94
301,262;1,94
301,526;1,95
301,79;1,94
302,054;1,93
302,318;1,93
302,582;1,94
302,846;1,94
303,11;1,94
303,374;1,94
303,637;1,93
303,901;1,93
304,165;1,92
304,429;1,92
304,693;1,92
304,956;1,93
305,22;1,92
305,484;1,92
305,747;1,91
306,011;1,9
306,275;1,89
306,538;1,9
306,802;1,89
307,066;1,89
307,329;1,88
307,593;1,89
307,856;1,89
308,12;1,88
308,384;1,87
308,647;1,86
308,911;1,85
309,174;1,85
309,438;1,84
309,701;1,84
309,964;1,84
310,228;1,83
310,491;1,83
310,755;1,83
311,018;1,83
311,281;1,84
311,545;1,83
311,808;1,84
312,071;1,83
312,335;1,82
312,598;1,82
312,861;1,82
313,124;1,81
313,388;1,81
313,651;1,82
313,914;1,81
314,177;1,82
314,44;1,82
314,704;1,82
314,967;1,81
315,23;1,81
315,493;1,81
315,756;1,8
316,019;1,8
316,282;1,8
316,545;1,79
316,808;1,8
317,071;1,8
317,334;1,79
317,597;1,79
317,86;1,78
318,123;1,78
318,386;1,78
318,649;1,78
318,912;1,79
319,175;1,78
319,437;1,78
319,7;1,79
319,963;1,79
320,226;1,78
320,489;1,78
320,751;1,77
321,014;1,76
321,277;1,75
321,54;1,75
321,802;1,75
322,065;1,75
322,328;1,74
322,59;1,73
322,853;1,73
323,116;1,72
323,378;1,73
323,641;1,73
323,903;1,73
324,166;1,72
324,428;1,72
324,691;1,71
324,953;1,71
325,216;1,7
325,478;1,7
325,741;1,7
326,003;1,7
326,266;1,71
326,528;1,72
326,791;1,73
327,053;1,71
327,315;1,7
327,578;1,7
327,84;1,7
328,102;1,71
328,365;1,71
328,627;1,71
328,889;1,7
329,151;1,7
329,414;1,69
329,676;1,7
329,938;1,7
330,2;1,69
330,462;1,68
330,725;1,68
330,987;1,67
331,249;1,67
331,511;1,68
331,773;1,68
332,035;1,68
332,297;1,67
332,559;1,68
332,821;1,69
333,083;1,69
333,345;1,69
333,607;1,7
333,869;1,69
334,131;1,69
334,393;1,71
334,655;1,69
334,917;1,7
335,179;1,7
335,44;1,7
335,702;1,7
335,964;1,7
336,226;1,69
336,488;1,7
336,749;1,7
337,011;1,7
337,273;1,69
337,535;1,68
337,796;1,66
338,058;1,67
338,32;1,67
338,581;1,66
338,843;1,66
339,105;1,66
339,366;1,66
339,628;1,67
339,889;1,66
340,151;1,66
340,412;1,66
340,674;1,66
340,935;1,66
341,197;1,67
341,458;1,66
341,72;1,67
341,981;1,66
342,243;1,67
342,504;1,66
342,766;1,67
343,027;1,67
343,288;1,7
343,55;1,69
343,811;1,68
344,072;1,68
344,334;1,68
344,595;1,67
344,856;1,67
345,117;1,66
345,379;1,67
345,64;1,67
345,901;1,66
346,162;1,66
346,423;1,66
346,684;1,64
346,946;1,64
347,207;1,65
347,468;1,65
347,729;1,64
347,99;1,64
348,251;1,63
348,512;1,64
348,773;1,64
349,034;1,64
349,295;1,64
349,556;1,63
349,817;1,64
350,078;1,64
350,339;1,65
350,6;1,66
350,86;1,65
351,121;1,66
351,382;1,65
351,643;1,64
351,904;1,65
352,165;1,67
352,425;1,66
352,686;1,66
352,947;1,66
353,208;1,67
353,468;1,68
353,729;1,68
353,99;1,68
354,25;1,69
354,511;1,67
354,772;1,67
355,032;1,68
355,293;1,66
355,553;1,66
355,814;1,64
356,074;1,63
356,335;1,62
356,596;1,6
356,856;1,62
357,116;1,63
357,377;1,63
357,637;1,63
357,898;1,65
358,158;1,64
358,419;1,63
358,679;1,61
358,939;1,61
359,2;1,63
359,46;1,62
359,72;1,6
359,981;1,61
360,241;1,61
360,501;1,61
360,761;1,62
361,022;1,61
361,282;1,63
361,542;1,63
361,802;1,64
362,062;1,65
362,323;1,64
362,583;1,63
362,843;1,62
363,103;1,61
363,363;1,6
363,623;1,6
363,883;1,6
364,143;1,61
364,403;1,6
364,663;1,59
364,923;1,6
365,183;1,61
365,443;1,61
365,703;1,61
365,963;1,61
366,223;1,61
366,483;1,62
366,743;1,62
367,002;1,63
367,262;1,64
367,522;1,65
367,782;1,65
368,042;1,65
368,301;1,65
368,561;1,65
368,821;1,65
369,081;1,63
369,34;1,63
369,6;1,63
369,86;1,63
370,119;1,62
370,379;1,63
370,638;1,63
370,898;1,62
371,158;1,62
371,417;1,63
371,677;1,64
371,936;1,64
372,196;1,64
372,455;1,64
372,715;1,63
372,974;1,63
373,234;1,64
373,493;1,66
373,753;1,66
374,012;1,66
374,271;1,66
374,531;1,68
374,79;1,7
375,049;1,71
375,309;1,71
375,568;1,73
375,827;1,72
376,086;1,72
376,346;1,73
376,605;1,76
376,864;1,76
377,123;1,76
377,383;1,76
377,642;1,76
377,901;1,75
378,16;1,75
378,419;1,76
378,678;1,76
378,937;1,74
379,196;1,73
379,455;1,73
379,714;1,74
379,973;1,74
380,232;1,73
380,491;1,74
380,75;1,73
381,009;1,72
381,268;1,72
381,527;1,71
381,786;1,71
382,045;1,68
382,304;1,67
382,563;1,67
382,821;1,67
383,08;1,68
383,339;1,68
383,598;1,68
383,857;1,68
384,115;1,69
384,374;1,7
384,633;1,71
384,891;1,71
385,15;1,72
385,409;1,71
385,667;1,71
385,926;1,7
386,185;1,7
386,443;1,7
386,702;1,71
386,96;1,71
387,219;1,7
387,477;1,72
387,736;1,72
387,994;1,72
388,253;1,72
388,511;1,73
388,77;1,73
389,028;1,73
389,287;1,73
389,545;1,72
389,803;1,71
390,062;1,71
390,32;1,7
390,578;1,7
390,837;1,71
391,095;1,7
391,353;1,72
391,612;1,73
391,87;1,72
392,128;1,73
392,386;1,74
392,644;1,74
392,903;1,73
393,161;1,72
393,419;1,71
393,677;1,71
393,935;1,69
394,193;1,71
394,451;1,72
394,709;1,71
394,967;1,72
395,225;1,72
395,483;1,71
395,741;1,74
395,999;1,75
396,257;1,73
396,515;1,74
396,773;1,74
397,031;1,72
397,289;1,73
397,547;1,72
397,805;1,72
398,062;1,73
398,32;1,73
398,578;1,74
398,836;1,76
399,094;1,74
399,351;1,74
399,609;1,73
399,867;1,71
400,124;1,72
400,382;1,73
400,64;1,74
400,897;1,76
401,155;1,75
401,413;1,76
401,67;1,77
401,928;1,79
402,185;1,79
402,443;1,81
402,701;1,8
402,958;1,81
403,216;1,82
403,473;1,82
403,73;1,83
403,988;1,83
404,245;1,85
404,503;1,88
404,76;1,89
405,018;1,89
405,275;1,91
405,532;1,9
405,79;1,91
406,047;1,91
406,304;1,91
406,561;1,91
406,819;1,9
407,076;1,91
407,333;1,88
407,59;1,86
407,848;1,87
408,105;1,89
408,362;1,89
408,619;1,9
408,876;1,88
409,133;1,87
409,39;1,86
409,647;1,84
409,904;1,84
410,161;1,85
410,418;1,87
410,675;1,88
410,932;1,89
411,189;1,87
411,446;1,86
411,703;1,88
411,96;1,87
412,217;1,89
412,474;1,89
412,731;1,91
412,988;1,92
413,245;1,9
413,501;1,88
413,758;1,88
414,015;1,87
414,272;1,88
414,529;1,89
414,785;1,9
415,042;1,91
415,299;1,91
415,555;1,9
415,812;1,89
416,069;1,88
416,325;1,87
416,582;1,88
416,838;1,89
417,095;1,87
417,352;1,88
417,608;1,87
417,865;1,86
418,121;1,85
418,378;1,85
418,634;1,87
418,891;1,89
419,147;1,89
419,403;1,89
419,66;1,89
419,916;1,9
420,173;1,9
420,429;1,9
420,685;1,89
420,942;1,89
421,198;1,89
421,454;1,89
421,711;1,9
421,967;1,89
422,223;1,88
422,479;1,88
422,735;1,87
422,992;1,86
423,248;1,87
423,504;1,89
423,76;1,91
424,016;1,9
424,272;1,9
424,528;1,92
424,784;1,94
425,041;1,94
425,297;1,92
425,553;1,93
425,809;1,93
426,065;1,93
426,32;1,92
426,576;1,93
426,832;1,93
427,088;1,92
427,344;1,92
427,6;1,93
427,856;1,94
428,112;1,95
428,368;1,95
428,623;1,94
428,879;1,94
429,135;1,92
429,391;1,91
429,646;1,9
429,902;1,86
430,158;1,84
430,414;1,84
430,669;1,86
430,925;1,84
431,181;1,82
431,436;1,84
431,692;1,85
431,947;1,85
432,203;1,84
432,458;1,85
432,714;1,84
432,97;1,84
433,225;1,83
433,481;1,82
433,736;1,83
433,991;1,83
434,247;1,82
434,502;1,82
434,758;1,82
435,013;1,84
435,268;1,87
435,524;1,89
435,779;1,88
436,034;1,87
436,29;1,88
436,545;1,87
436,8;1,87
437,056;1,86
437,311;1,87
437,566;1,87
437,821;1,86
438,076;1,87
438,331;1,86
438,587;1,85
438,842;1,85
439,097;1,85
439,352;1,86
439,607;1,86
439,862;1,88
440,117;1,88
440,372;1,86
440,627;1,84
440,882;1,84
441,137;1,84
441,392;1,83
441,647;1,83
441,902;1,85
442,157;1,84
442,412;1,85
442,667;1,83
442,921;1,84
443,176;1,84
443,431;1,85
443,686;1,85
443,941;1,85
444,195;1,84
444,45;1,84
444,705;1,84
444,96;1,83
445,214;1,82
445,469;1,82
445,724;1,82
445,978;1,81
446,233;1,81
446,487;1,81
446,742;1,8
446,997;1,79
447,251;1,78
447,506;1,8
447,76;1,79
448,015;1,79
448,269;1,79
448,524;1,8
448,778;1,8
449,033;1,8
449,287;1,8
449,541;1,79
449,796;1,78
450,05;1,76
450,305;1,77
450,559;1,78
450,813;1,77
451,067;1,77
451,322;1,78
451,576;1,78
451,83;1,77
452,084;1,77
452,339;1,76
452,593;1,75
452,847;1,73
453,101;1,73
453,355;1,72
453,609;1,7
453,864;1,7
454,118;1,68
454,372;1,69
454,626;1,71
454,88;1,71
455,134;1,73
455,388;1,75
455,642;1,75
455,896;1,74
456,15;1,74
456,404;1,75
456,658;1,74
456,912;1,74
457,165;1,76
457,419;1,75
457,673;1,78
457,927;1,79
458,181;1,79
458,435;1,8
458,688;1,8
458,942;1,8
459,196;1,79
459,45;1,79
459,703;1,78
459,957;1,77
460,211;1,77
460,464;1,76
460,718;1,74
460,972;1,73
461,225;1,73
461,479;1,72
461,732;1,71
461,986;1,72
462,239;1,72
462,493;1,72
462,746;1,73
463;1,71
463,253;1,71
463,507;1,71
463,76;1,7
464,014;1,72
464,267;1,7
464,52;1,72
464,774;1,71
465,027;1,72
465,28;1,72
465,534;1,73
465,787;1,73
466,04;1,74
466,294;1,73
466,547;1,74
466,8;1,75
467,053;1,74
467,306;1,74
467,56;1,73
467,813;1,72
468,066;1,71
468,319;1,73
468,572;1,74
468,825;1,75
469,078;1,75
469,331;1,73
469,584;1,73
469,837;1,72
470,09;1,72
470,343;1,72
470,596;1,71
470,849;1,7
471,102;1,7
471,355;1,69
471,608;1,69
471,861;1,68
472,114;1,66
472,367;1,66
472,619;1,64
472,872;1,65
473,125;1,64
473,378;1,64
473,631;1,63
473,883;1,62
474,136;1,62
474,389;1,62
474,641;1,61
474,894;1,61
475,147;1,62
475,399;1,62
475,652;1,63
475,905;1,63
476,157;1,62
476,41;1,6
476,662;1,61
476,915;1,61
477,167;1,6
477,42;1,6
477,672;1,61
477,925;1,62
478,177;1,62
478,43;1,62
478,682;1,62
478,934;1,61
479,187;1,62
479,439;1,62
479,691;1,62
479,944;1,64
480,196;1,63
480,448;1,63
480,701;1,63
480,953;1,63
481,205;1,62
481,457;1,63
481,709;1,64
481,962;1,64
482,214;1,65
482,466;1,66
482,718;1,66
482,97;1,68
483,222;1,69
483,474;1,69
483,726;1,69
483,978;1,69
484,23;1,69
484,482;1,69
484,734;1,69
484,986;1,68
485,238;1,67
485,49;1,68
485,742;1,69
485,994;1,68
486,246;1,68
486,498;1,69
486,75;1,69
487,001;1,69
487,253;1,69
487,505;1,69
487,757;1,68
488,009;1,69
488,26;1,69
488,512;1,68
488,764;1,67
489,015;1,66
489,267;1,66
489,519;1,66
489,77;1,65
490,022;1,64
490,274;1,64
490,525;1,64
490,777;1,63
491,028;1,61
491,28;1,61
491,531;1,6
491,783;1,6
492,034;1,59
492,286;1,59
492,537;1,58
492,789;1,57
493,04;1,57
493,291;1,56
493,543;1,55
493,794;1,55
494,045;1,56
494,297;1,55
494,548;1,55
494,799;1,56
495,051;1,57
495,302;1,58
495,553;1,58
495,804;1,58
496,056;1,59
496,307;1,58
496,558;1,58
496,809;1,59
497,06;1,59
497,311;1,6
497,562;1,6
497,813;1,6
498,064;1,61
498,316;1,59
498,567;1,58
498,818;1,58
499,069;1,58
499,319;1,57
499,57;1,58
499,821;1,57
500,072;1,58
500,323;1,58
500,574;1,57
500,825;1,56
501,076;1,55
501,327;1,55
501,577;1,56
501,828;1,56
502,079;1,55
502,33;1,55
502,58;1,55
502,831;1,55
503,082;1,55
503,333;1,54
503,583;1,54
503,834;1,55
504,084;1,56
504,335;1,56
504,586;1,56
504,836;1,55
505,087;1,54
505,337;1,53
505,588;1,53
505,838;1,53
506,089;1,54
506,339;1,55
506,59;1,54
506,84;1,53
507,091;1,53
507,341;1,53
507,591;1,53
507,842;1,52
508,092;1,52
508,343;1,52
508,593;1,52
508,843;1,53
509,093;1,53
509,344;1,52
509,594;1,52
509,844;1,52
510,094;1,53
510,345;1,55
510,595;1,55
510,845;1,55
511,095;1,54
511,345;1,54
511,595;1,54
511,845;1,54
512,095;1,55
512,345;1,55
512,595;1,56
512,845;1,55
513,095;1,56
513,345;1,56
513,595;1,55
513,845;1,55
514,095;1,54
514,345;1,53
514,595;1,54
514,845;1,54
515,095;1,53
515,345;1,52
515,594;1,52
515,844;1,52
516,094;1,52
516,344;1,51
516,593;1,5
516,843;1,49
517,093;1,49
517,343;1,49
517,592;1,49
517,842;1,49
518,092;1,49
518,341;1,49
518,591;1,49
518,84;1,5
519,09;1,5
519,34;1,5
519,589;1,51
519,839;1,51
520,088;1,51
520,338;1,52
520,587;1,52
520,836;1,51
521,086;1,5
521,335;1,51
521,585;1,51
521,834;1,52
522,083;1,52
522,333;1,51
522,582;1,51
522,831;1,51
523,081;1,5
523,33;1,49
523,579;1,49
523,828;1,51
524,078;1,51
524,327;1,51
524,576;1,51
524,825;1,49
525,074;1,48
525,323;1,46
525,573;1,46
525,822;1,46
526,071;1,46
526,32;1,46
526,569;1,46
526,818;1,46
527,067;1,45
527,316;1,46
527,565;1,46
527,814;1,46
528,063;1,45
528,312;1,46
528,56;1,46
528,809;1,45
529,058;1,44
529,307;1,43
529,556;1,44
529,805;1,44
530,053;1,46
530,302;1,46
530,551;1,48
530,8;1,47
531,048;1,48
531,297;1,47
531,546;1,47
531,794;1,47
532,043;1,46
532,292;1,46
532,54;1,46
532,789;1,46
533,037;1,46
533,286;1,46
533,535;1,47
533,783;1,46
534,032;1,46
534,28;1,47
534,528;1,46
534,777;1,46
535,025;1,45
535,274;1,45
535,522;1,44
535,771;1,45
536,019;1,44
536,267;1,44
536,516;1,45
536,764;1,45
537,012;1,45
537,26;1,45
537,509;1,45
537,757;1,45
538,005;1,44
538,253;1,44
538,501;1,45
538,75;1,44
538,998;1,44
539,246;1,44
539,494;1,44
539,742;1,44
539,99;1,43
540,238;1,44
540,486;1,43
540,734;1,42
540,982;1,41
541,23;1,41
541,478;1,41
541,726;1,41
541,974;1,41
542,222;1,41
542,47;1,4
542,718;1,4
542,966;1,4
543,213;1,4
543,461;1,39
543,709;1,38
543,957;1,39
544,205;1,39
544,452;1,4
544,7;1,39
544,948;1,39
545,196;1,38
545,443;1,38
545,691;1,38
545,939;1,39
546,186;1,38
546,434;1,38
546,681;1,38
546,929;1,38
547,176;1,38
547,424;1,39
547,671;1,39
547,919;1,39
548,166;1,39
548,414;1,4
548,661;1,4
548,909;1,4
549,156;1,4
549,404;1,39
549,651;1,39
549,898;1,4
550,146;1,41
550,393;1,42
550,64;1,42
550,888;1,42
551,135;1,42
551,382;1,43
551,629;1,43
551,876;1,44
552,124;1,44
552,371;1,44
552,618;1,43
552,865;1,44
553,112;1,43
553,359;1,42
553,606;1,42
553,854;1,42
554,101;1,43
554,348;1,42
554,595;1,42
554,842;1,42
555,089;1,41
555,336;1,41
555,582;1,41
555,829;1,4
556,076;1,4
556,323;1,4
556,57;1,4
556,817;1,39
557,064;1,39
557,311;1,38
557,557;1,37
557,804;1,37
558,051;1,36
558,298;1,36
558,544;1,36
558,791;1,36
559,038;1,36
559,284;1,35
559,531;1,35
559,778;1,35
560,024;1,35
560,271;1,35
560,517;1,34
560,764;1,34
561,011;1,35
561,257;1,35
561,504;1,35
561,75;1,35
561,997;1,35
562,243;1,36
562,489;1,36
562,736;1,36
562,982;1,37
563,229;1,37
563,475;1,38
563,721;1,38
563,968;1,38
564,214;1,37
564,46;1,38
564,707;1,38
564,953;1,38
565,199;1,37
565,445;1,38
565,691;1,39
565,938;1,38
566,184;1,38
566,43;1,38
566,676;1,37
566,922;1,36
567,168;1,36
567,414;1,36
567,66;1,36
567,906;1,36
568,152;1,36
568,398;1,36
568,644;1,37
568,89;1,36
569,136;1,37
569,382;1,37
569,628;1,36
569,874;1,36
570,12;1,37
570,366;1,37
570,612;1,37
570,857;1,37
571,103;1,37
571,349;1,37
571,595;1,39
571,84;1,39
572,086;1,39
572,332;1,4
572,578;1,4
572,823;1,4
573,069;1,4
573,315;1,4
573,56;1,4
573,806;1,4
574,051;1,41
574,297;1,4
574,542;1,4
574,788;1,4
575,034;1,41
575,279;1,41
575,524;1,41
575,77;1,41
576,015;1,41
576,261;1,41
576,506;1,41
576,752;1,4
576,997;1,4
577,242;1,4
577,488;1,4
577,733;1,39
577,978;1,39
578,223;1,39
578,469;1,39
578,714;1,38
578,959;1,38
579,204;1,38
579,45;1,39
579,695;1,39
579,94;1,39
580,185;1,38
580,43;1,39
580,675;1,38
580,92;1,39
581,165;1,38
581,41;1,38
581,655;1,38
581,9;1,38
582,145;1,39
582,39;1,38
582,635;1,38
582,88;1,39
583,125;1,39
583,37;1,39
583,615;1,38
583,86;1,38
584,105;1,38
584,349;1,37
584,594;1,37
584,839;1,37
585,084;1,37
585,328;1,37
585,573;1,37
585,818;1,36
586,063;1,36
586,307;1,36
586,552;1,36
586,797;1,36
587,041;1,36
587,286;1,36
587,53;1,36
587,775;1,36
588,019;1,36
588,264;1,36
588,508;1,36
588,753;1,36
588,997;1,36
589,242;1,37
589,486;1,37
589,731;1,37
589,975;1,37
590,22;1,37
590,464;1,36
590,708;1,36
590,953;1,36
591,197;1,36
591,441;1,37
591,685;1,36
591,93;1,35
592,174;1,36
592,418;1,35
592,662;1,36
592,907;1,36
593,151;1,36
593,395;1,36
593,639;1,36
593,883;1,36
594,127;1,36
594,371;1,36
594,615;1,36
594,859;1,36
595,103;1,36
595,347;1,37
595,591;1,37
595,835;1,37
596,079;1,37
596,323;1,37
596,567;1,36
596,811;1,37
597,055;1,37
597,299;1,37
597,542;1,37
597,786;1,36
598,03;1,36
598,274;1,36
598,518;1,37
598,761;1,37
599,005;1,36
599,249;1,36
599,492;1,36
599,736;1,36
599,98;1,36
600,223;1,36
600,467;1,36
600,711;1,36
600,954;1,36
601,198;1,36
601,441;1,35
601,685;1,35
601,928;1,36
602,172;1,36
602,415;1,36
602,659;1,36
602,902;1,36
603,145;1,37
603,389;1,37
603,632;1,37
603,876;1,36
604,119;1,37
604,362;1,37
604,606;1,38
604,849;1,38
605,092;1,37
605,335;1,37
605,579;1,38
605,822;1,38
606,065;1,37
606,308;1,38
606,551;1,38
606,794;1,39
607,037;1,38
607,281;1,38
607,524;1,38
607,767;1,38
608,01;1,38
608,253;1,38
608,496;1,38
608,739;1,38
608,982;1,38
609,225;1,39
609,468;1,38
609,711;1,38
609,953;1,38
610,196;1,38
610,439;1,38
610,682;1,38
610,925;1,38
611,168;1,38
611,41;1,38
611,653;1,39
611,896;1,38
612,139;1,39
612,381;1,38
612,624;1,38
612,867;1,38
613,109;1,38
613,352;1,38
613,595;1,38
613,837;1,39
614,08;1,39
614,322;1,38
614,565;1,38
614,807;1,38
615,05;1,38
615,292;1,38
615,535;1,38
615,777;1,38
616,02;1,38
616,262;1,38
616,505;1,38
616,747;1,39
616,989;1,39
617,232;1,39
617,474;1,39
617,716;1,4
617,959;1,4
618,201;1,4
618,443;1,4
618,685;1,39
618,927;1,4
619,17;1,4
619,412;1,4
619,654;1,4
619,896;1,41
620,138;1,41
620,38;1,42
620,622;1,41
620,864;1,42
621,107;1,41
621,349;1,41
621,591;1,42
621,833;1,41
622,075;1,41
622,316;1,42
622,558;1,42
622,8;1,42
623,042;1,42
623,284;1,41
623,526;1,41
623,768;1,41
624,01;1,41
624,251;1,4
624,493;1,41
624,735;1,4
624,977;1,4
625,218;1,4
625,46;1,4
625,702;1,4
625,943;1,4
626,185;1,41
626,427;1,4
626,668;1,4
626,91;1,4
627,152;1,4
627,393;1,4
627,635;1,4
627,876;1,4
628,118;1,41
628,359;1,42
628,601;1,43
628,842;1,44
629,084;1,44
629,325;1,44
629,566;1,44
629,808;1,45
630,049;1,45
630,29;1,45
630,532;1,45
630,773;1,45
631,014;1,46
631,256;1,45
631,497;1,46
631,738;1,46
631,979;1,47
632,22;1,47
632,462;1,47
632,703;1,47
632,944;1,47
633,185;1,46
633,426;1,46
633,667;1,45
633,908;1,45
634,149;1,46
634,39;1,46
634,631;1,46
634,872;1,45
635,113;1,45
635,354;1,46
635,595;1,46
635,836;1,47
636,077;1,46
636,318;1,46
636,559;1,46
636,8;1,46
637,04;1,46
637,281;1,46
637,522;1,47
637,763;1,47
638,003;1,48
638,244;1,49
638,485;1,49
638,726;1,49
638,966;1,5
639,207;1,5
639,448;1,5
639,688;1,51
639,929;1,52
640,169;1,52
640,41;1,52
640,65;1,51
640,891;1,51
641,131;1,51
641,372;1,52
641,612;1,52
641,853;1,52
642,093;1,52
642,334;1,53
642,574;1,53
642,814;1,53
643,055;1,54
643,295;1,53
643,535;1,53
643,776;1,53
644,016;1,53
644,256;1,53
644,496;1,53
644,737;1,52
644,977;1,52
645,217;1,53
645,457;1,54
645,697;1,54
645,938;1,55
646,178;1,55
646,418;1,56
646,658;1,55
646,898;1,56
647,138;1,56
647,378;1,57
647,618;1,57
647,858;1,57
648,098;1,57
648,338;1,58
648,578;1,58
648,818;1,58
649,057;1,59
649,297;1,59
649,537;1,59
649,777;1,59
650,017;1,59
650,257;1,59
650,496;1,59
650,736;1,59
650,976;1,59
661,028;1,71
661,267;1,71
661,506;1,72
661,744;1,72
661,983;1,72
662,222;1,73
662,461;1,73
662,7;1,73
662,939;1,74
663,177;1,74
663,416;1,74
663,655;1,74
663,894;1,75
664,132;1,75
664,371;1,76
664,61;1,76
664,848;1,77
665,087;1,77
665,326;1,77
665,564;1,78
665,803;1,79
666,041;1,79
666,28;1,78
666,518;1,78
666,757;1,79
666,995;1,8
667,234;1,81
667,472;1,81
667,711;1,82
667,949;1,82
668,187;1,82
668,426;1,83
668,664;1,83
668,902;1,82
669,141;1,82
669,379;1,82
669,617;1,83
669,856;1,84
670,094;1,84
670,332;1,85
670,57;1,83
670,808;1,83
671,046;1,85
671,285;1,86
671,523;1,87
671,761;1,86
671,999;1,85
672,237;1,85
672,475;1,85
672,713;1,85
672,951;1,85
673,189;1,86
673,427;1,85
673,665;1,86
673,903;1,87
674,141;1,86
674,379;1,87
674,617;1,87
674,854;1,86
675,092;1,87
675,33;1,87
675,568;1,89
675,806;1,89
676,043;1,89
676,281;1,9
676,519;1,9
676,756;1,91
676,994;1,91
677,232;1,91
677,469;1,92
677,707;1,92
677,945;1,93
678,182;1,94
678,42;1,94
678,657;1,94
678,895;1,94
679,132;1,95
679,37;1,95
679,607;1,96
679,845;1,97
680,082;1,98
680,32;1,98
680,557;1,98
680,794;1,98
681,032;1,99
681,269;1,99
681,507;2
681,744;2
681,981;2,01
682,218;2,01
682,456;2,02
682,693;2,02
682,93;2,01
683,167;2,01
683,404;2,02
683,642;2,02
683,879;2,03
684,116;2,04
684,353;2,06
684,59;2,06
684,827;2,06
685,064;2,05
685,301;2,05
685,538;2,05
685,775;2,05
686,012;2,06
686,249;2,06
686,486;2,06
686,723;2,07
686,96;2,07
687,197;2,08
687,433;2,08
687,67;2,08
687,907;2,09
688,144;2,09
688,381;2,1
688,617;2,1
688,854;2,1
689,091;2,11
689,327;2,11
689,564;2,11
689,801;2,12
690,037;2,12
690,274;2,14
690,511;2,15
690,747;2,16
690,984;2,16
691,22;2,17
691,457;2,17
691,693;2,18
691,93;2,19
692,166;2,2
692,403;2,2
692,639;2,21
692,876;2,21
693,112;2,22
693,348;2,22
693,585;2,24
693,821;2,25
694,057;2,24
694,294;2,26
694,53;2,27
694,766;2,28
695,002;2,28
695,239;2,28
695,475;2,28
695,711;2,29
695,947;2,3
696,183;2,31
696,419;2,32
696,656;2,32
696,892;2,34
697,128;2,35
697,364;2,37
697,6;2,38
697,836;2,39
698,072;2,41
698,308;2,42
698,544;2,42
698,78;2,43
699,016;2,44
699,251;2,44
699,487;2,44
699,723;2,45
699,959;2,47
700,195;2,49
700,431;2,51
700,666;2,52
700,902;2,53
701,138;2,54
701,374;2,56
701,609;2,57
701,845;2,56
702,081;2,57
702,316;2,58
702,552;2,59
702,788;2,6
703,023;2,62
703,259;2,63
703,494;2,63
703,73;2,65
703,965;2,67
704,201;2,68
704,436;2,7
704,672;2,72
704,907;2,74
705,143;2,75
705,378;2,76
705,613;2,78
705,849;2,8
706,084;2,83
706,319;2,84
706,555;2,86
706,79;2,88
707,025;2,92
707,26;2,95
707,496;2,97
707,731;2,99
707,966;3,02
708,201;3,04
708,436;3,08
708,671;3,1
708,907;3,13
709,142;3,16
709,377;3,19
709,612;3,22
709,847;3,24
710,082;3,27
710,317;3,31
710,552;3,33
710,787;3,36
711,022;3,37
711,257;3,41
711,492;3,44
711,726;3,48
711,961;3,5
712,196;3,53
712,431;3,57
712,666;3,6
712,901;3,63
713,135;3,66
713,37;3,69
713,605;3,73
713,839;3,77
714,074;3,81
714,309;3,85
714,543;3,87
714,778;3,92
715,013;3,96
715,247;4
715,482;4,04
715,716;4,09
715,951;4,15
716,185;4,2
716,42;4,25
716,654;4,31
716,889;4,35
717,123;4,39
717,358;4,45
717,592;4,51
717,827;4,56
718,061;4,62
718,295;4,68
718,53;4,73
718,764;4,8
718,998;4,86
719,232;4,93
719,467;5
719,701;5,06
719,935;5,11
720,169;5,17
720,403;5,23
720,638;5,3
720,872;5,38
721,106;5,45
721,34;5,52
721,574;5,58
721,808;5,65
722,042;5,74
722,276;5,81
722,51;5,88
722,744;5,96
722,978;6,05
723,212;6,13
723,446;6,22
723,68;6,31
723,914;6,39
724,147;6,48
724,381;6,57
724,615;6,67
724,849;6,78
725,083;6,87
725,316;6,97
725,55;7,07
725,784;7,17
726,018;7,28
726,251;7,38
726,485;7,5
726,719;7,62
726,952;7,73
727,186;7,85
727,419;7,97
727,653;8,09
727,887;8,19
728,12;8,32
728,354;8,44
728,587;8,57
728,821;8,7
729,054;8,81
729,287;8,95
729,521;9,09
729,754;9,22
729,988;9,35
730,221;9,49
730,454;9,62
730,688;9,76
730,921;9,89
731,154;10,04
731,387;10,18
731,621;10,33
731,854;10,47
732,087;10,61
732,32;10,75
732,553;10,89
732,787;11,05
733,02;11,19
733,253;11,35
733,486;11,48
733,719;11,63
733,952;11,77
734,185;11,91
734,418;12,05
734,651;12,21
734,884;12,36
735,117;12,53
735,35;12,68
735,583;12,83
735,816;12,97
736,049;13,12
736,281;13,27
736,514;13,43
736,747;13,56
736,98;13,73
737,213;13,88
737,445;14,04
737,678;14,19
737,911;14,35
738,144;14,5
738,376;14,65
738,609;14,81
738,842;14,96
739,074;15,12
739,307;15,28
739,539;15,44
739,772;15,59
740,004;15,74
740,237;15,9
740,469;16,06
740,702;16,22
740,934;16,39
741,167;16,56
741,399;16,71
741,632;16,89
741,864;17,05
742,096;17,24
742,329;17,4
742,561;17,58
742,793;17,75
743,026;17,92
743,258;18,11
743,49;18,3
743,723;18,48
743,955;18,64
744,187;18,81
744,419;18,98
744,651;19,16
744,883;19,33
745,115;19,52
745,348;19,69
745,58;19,86
745,812;20,03
746,044;20,19
746,276;20,36
746,508;20,53
746,74;20,71
746,972;20,86
747,204;21,04
747,436;21,2
747,667;21,39
747,899;21,56
748,131;21,73
748,363;21,9
748,595;22,07
748,827;22,25
749,058;22,42
749,29;22,59
749,522;22,76
749,754;22,92
749,985;23,07
750,217;23,23
750,449;23,39
750,68;23,54
750,912;23,69
751,144;23,86
751,375;24,01
751,607;24,16
751,838;24,33
752,07;24,48
752,301;24,62
752,533;24,78
752,764;24,94
752,996;25,09
753,227;25,23
753,459;25,4
753,69;25,57
753,921;25,74
754,153;25,89
754,384;26,04
754,615;26,19
754,847;26,35
755,078;26,53
755,309;26,69
755,54;26,84
755,772;26,99
756,003;27,15
756,234;27,3
756,465;27,46
756,696;27,59
756,927;27,76
757,159;27,91
757,39;28,05
757,621;28,2
757,852;28,34
758,083;28,49
758,314;28,62
758,545;28,77
758,776;28,91
759,007;29,03
759,238;29,16
759,469;29,29
759,699;29,43
759,93;29,56
760,161;29,68
760,392;29,83
760,623;29,96
760,854;30,08
761,084;30,21
761,315;30,34
761,546;30,48
761,776;30,59
762,007;30,74
762,238;30,85
762,468;30,97
762,699;31,1
762,93;31,23
763,16;31,35
763,391;31,46
763,621;31,59
763,852;31,72
764,083;31,84
764,313;31,94
764,543;32,04
764,774;32,15
765,004;32,26
765,235;32,36
765,465;32,47
765,696;32,57
765,926;32,68
766,156;32,77
766,387;32,88
766,617;32,98
766,847;33,07
767,077;33,19
767,308;33,3
767,538;33,41
767,768;33,49
767,998;33,61
768,228;33,71
768,459;33,81
768,689;33,93
768,919;34,04
769,149;34,15
769,379;34,27
769,609;34,38
769,839;34,5
770,069;34,61
770,299;34,72
770,529;34,81
770,759;34,91
770,989;35,03
771,219;35,11
771,449;35,22
771,678;35,33
771,908;35,44
772,138;35,55
772,368;35,63
772,598;35,74
772,827;35,83
773,057;35,94
773,287;36,04
773,517;36,12
773,746;36,23
773,976;36,32
774,206;36,4
774,435;36,48
774,665;36,53
774,894;36,6
775,124;36,68
775,354;36,77
775,583;36,86
775,813;36,94
776,042;37,02
776,272;37,13
776,501;37,2
776,73;37,29
776,96;37,35
777,189;37,44
777,419;37,51
777,648;37,58
777,877;37,63
778,107;37,71
778,336;37,81
778,565;37,88
778,794;37,97
779,024;38,06
779,253;38,14
779,482;38,26
779,711;38,35
779,94;38,46
780,17;38,55
780,399;38,63
780,628;38,71
780,857;38,82
781,086;38,88
781,315;38,96
781,544;39,02
781,773;39,12
782,002;39,19
782,231;39,29
782,46;39,36
782,689;39,45
782,918;39,52
783,147;39,58
783,375;39,64
783,604;39,72
783,833;39,77
784,062;39,84
784,291;39,9
784,519;39,98
784,748;40,04
784,977;40,11
785,206;40,17
785,434;40,25
785,663;40,29
785,892;40,36
786,12;40,45
786,349;40,5
786,577;40,55
786,806;40,63
787,034;40,7
787,263;40,8
787,492;40,86
787,72;40,94
787,948;40,99
788,177;41,05
788,405;41,09
788,634;41,18
788,862;41,23
789,09;41,29
789,319;41,34
789,547;41,41
789,775;41,47
790,004;41,53
790,232;41,59
790,46;41,64
790,688;41,71
790,917;41,75
791,145;41,83
791,373;41,9
791,601;41,97
791,829;42
792,057;42,05
792,286;42,11
792,514;42,18
792,742;42,23
792,97;42,33
793,198;42,4
793,426;42,45
793,654;42,53
793,882;42,59
794,109;42,66
794,337;42,72
794,565;42,79
794,793;42,86
795,021;42,92
795,249;43
795,477;43,07
795,704;43,14
795,932;43,2
796,16;43,28
796,388;43,35
796,615;43,4
796,843;43,47
797,071;43,54
797,298;43,59
797,526;43,64
797,754;43,68
797,981;43,76
798,209;43,79
798,436;43,83
798,664;43,91
798,891;43,95
799,119;44,02
799,346;44,07
799,574;44,14
799,801;44,22
800,029;44,25
800,256;44,3
800,483;44,36
800,711;44,4
800,938;44,44
801,165;44,48
801,393;44,56
801,62;44,61
801,847;44,63
802,074;44,68
802,302;44,75
802,529;44,83
802,756;44,88
802,983;44,97
803,21;45,04
803,437;45,08
803,665;45,12
803,892;45,16
804,119;45,21
804,346;45,26
804,573;45,31
804,8;45,36
805,027;45,37
805,254;45,42
805,481;45,48
805,708;45,52
805,934;45,54
806,161;45,58
806,388;45,63
806,615;45,72
806,842;45,76
807,069;45,82
807,295;45,86
807,522;45,91
807,749;45,94
807,976;45,97
808,202;46,03
808,429;46,07
808,656;46,13
808,882;46,18
809,109;46,24
809,335;46,26
809,562;46,29
809,789;46,39
810,015;46,42
810,242;46,48
810,468;46,5
810,695;46,59
810,921;46,63
811,147;46,66
811,374;46,71
811,6;46,78
811,827;46,81
812,053;46,85
812,279;46,9
812,506;46,94
812,732;46,99
812,958;47,04
813,185;47,11
813,411;47,12
813,637;47,18
813,863;47,2
814,089;47,25
814,315;47,34
814,542;47,37
814,768;47,43
814,994;47,51
815,22;47,57
815,446;47,61
815,672;47,66
815,898;47,72
816,124;47,74
816,35;47,75
816,576;47,79
816,802;47,85
817,028;47,92
817,254;48,01
817,48;48,06
817,705;48,12
817,931;48,16
818,157;48,22
818,383;48,27
818,609;48,31
818,834;48,34
819,06;48,37
819,286;48,41
819,512;48,45
819,737;48,48
819,963;48,53
820,189;48,55
820,414;48,58
820,64;48,63
820,865;48,68
821,091;48,75
821,316;48,76
821,542;48,79
821,767;48,8
821,993;48,81
822,218;48,8
822,444;48,82
822,669;48,85
822,895;48,89
823,12;48,91
823,345;48,95
823,571;49
823,796;49,08
824,021;49,11
824,247;49,17
824,472;49,19
824,697;49,25
824,922;49,32
825,147;49,37
825,373;49,41
825,598;49,48
825,823;49,51
826,048;49,59
826,273;49,62
826,498;49,68
826,723;49,71
826,948;49,79
827,173;49,8
827,398;49,84
827,623;49,88
827,848;49,93
828,073;49,96
828,298;49,97
828,523;49,97
828,748;49,99
828,973;50,01
829,197;50,04
829,422;50,05
829,647;50,07
829,872;50,09
830,097;50,08
830,321;50,06
830,546;50,11
830,771;50,14
830,995;50,19
831,22;50,21
831,445;50,23
831,669;50,27
831,894;50,32
832,118;50,37
832,343;50,4
832,567;50,47
832,792;50,49
833,016;50,56
833,241;50,63
833,465;50,71
833,69;50,78
833,914;50,82
834,139;50,87
834,363;50,91
834,587;50,97
834,812;51,04
835,036;51,05
835,26;51,08
835,485;51,1
835,709;51,15
835,933;51,16
836,157;51,2
836,381;51,26
836,606;51,29
836,83;51,3
837,054;51,32
837,278;51,37
837,502;51,43
837,726;51,43
837,95;51,4
838,174;51,4
838,398;51,41
838,622;51,43
838,846;51,46
839,07;51,47
839,294;51,49
839,518;51,53
839,742;51,6
839,966;51,63
840,189;51,65
840,413;51,66
840,637;51,71
840,861;51,75
841,085;51,75
841,308;51,83
841,532;51,82
841,756;51,85
841,979;51,81
842,203;51,86
842,427;51,89
842,65;51,95
842,874;52,02
843,098;52,04
843,321;52,09
843,545;52,16
843,768;52,23
843,992;52,23
844,215;52,27
844,439;52,31
844,662;52,39
844,886;52,43
845,109;52,48
845,332;52,5
845,556;52,52
845,779;52,57
846,002;52,54
846,226;52,6
846,449;52,62
846,672;52,7
846,895;52,72
847,119;52,73
847,342;52,75
847,565;52,8
847,788;52,84
848,011;52,87
848,234;52,87
848,457;52,85
848,681;52,92
848,904;52,99
849,127;53,01
849,35;53,02
849,573;53,09
849,796;53,13
850,019;53,19
850,241;53,24
850,464;53,26
850,687;53,31
850,91;53,38
851,133;53,47
851,356;53,53
851,579;53,61
851,801;53,64
852,024;53,73
852,247;53,75
852,47;53,78
852,692;53,78
852,915;53,82
853,138;53,85
853,36;53,89
853,583;53,9
853,806;53,95
854,028;53,97
854,251;53,98
854,473;53,99
854,696;54,03
854,918;54,06
855,141;54,09
855,363;54,17
855,586;54,2
855,808;54,21
856,031;54,2
856,253;54,17
856,475;54,27
856,698;54,22
856,92;54,21
857,142;54,26
857,365;54,38
857,587;54,4
857,809;54,47
858,031;54,49
858,253;54,53
858,476;54,5
858,698;54,55
858,92;54,55
859,142;54,58
859,364;54,58
859,586;54,65
859,808;54,7
860,03;54,69
860,252;54,71
860,474;54,75
860,696;54,8
860,918;54,82
861,14;54,83
861,362;54,9
861,584;55,01
861,806;55,02
862,028;54,97
862,25;55,03
862,471;55,08
862,693;55,12
862,915;55,16
863,137;55,29
863,358;55,31
863,58;55,37
863,802;55,42
864,024;55,47
864,245;55,48
864,467;55,51
864,688;55,55
864,91;55,56
865,132;55,59
865,353;55,62
865,575;55,68
865,796;55,73
866,018;55,72
866,239;55,73
866,461;55,75
866,682;55,82
866,903;55,85
867,125;55,88
867,346;55,92
867,567;55,95
867,789;55,95
868,01;55,97
868,231;56,01
868,453;56,04
868,674;56,13
868,895;56,14
869,116;56,18
869,337;56,21
869,559;56,26
869,78;56,29
870,001;56,31
870,222;56,35
870,443;56,36
870,664;56,47
870,885;56,5
871,106;56,56
871,327;56,61
871,548;56,64
871,769;56,69
871,99;56,72
872,211;56,72
872,432;56,75
872,653;56,77
872,874;56,82
873,094;56,89
873,315;56,9
873,536;56,9
873,757;56,93
873,978;56,99
874,198;57,05
874,419;57,08
874,64;57,16
874,86;57,2
875,081;57,23
875,302;57,23
875,522;57,24
875,743;57,28
875,963;57,34
876,184;57,32
876,404;57,34
876,625;57,34
876,845;57,41
877,066;57,49
877,286;57,57
877,507;57,62
877,727;57,69
877,947;57,67
878,168;57,78
878,388;57,82
878,609;57,84
878,829;57,86
879,049;57,9
879,269;57,92
879,49;57,97
879,71;58,03
879,93;58,1
880,15;58,2
880,37;58,22
880,59;58,21
880,811;58,27
881,031;58,29
881,251;58,38
881,471;58,42
881,691;58,46
881,911;58,44
882,131;58,49
882,351;58,49
882,571;58,54
882,791;58,54
883,011;58,6
883,23;58,71
883,45;58,78
883,67;58,85
883,89;58,9
884,11;58,96
884,33;59,01
884,549;59,08
884,769;59,14
884,989;59,24
885,209;59,3
885,428;59,38
885,648;59,41
885,868;59,45
886,087;59,54
886,307;59,56
886,526;59,64
886,746;59,64
886,965;59,7
887,185;59,78
887,404;59,84
887,624;59,93
887,843;59,94
888,063;60,02
888,282;60,1
888,502;60,1
888,721;60,16
888,94;60,22
889,16;60,26
889,379;60,24
889,598;60,25
889,818;60,28
890,037;60,29
890,256;60,38
890,475;60,43
890,694;60,51
890,914;60,58
891,133;60,69
891,352;60,78
891,571;60,82
891,79;60,92
892,009;60,99
892,228;60,96
892,447;61,07
892,666;61,03
892,885;61,05
893,104;61,21
893,323;61,26
893,542;61,27
893,761;61,28
893,98;61,34
894,199;61,38
894,417;61,53
894,636;61,63
894,855;61,68
895,074;61,72
895,293;61,74
895,511;61,74
895,73;61,77
895,949;61,75
896,167;61,81
896,386;61,82
896,605;61,89
896,823;62,04
897,042;62,07
897,26;62,14
897,479;62,24
897,697;62,18
897,916;62,22
898,134;62,27
898,353;62,37
898,571;62,46
898,79;62,49
899,008;62,5
899,227;62,52
899,445;62,57
899,663;62,61
899,882;62,6
900,1;62,67
900,318;62,74
900,536;62,86
900,755;62,9
900,973;62,94
901,191;62,97
901,409;62,97
901,627;63
901,846;63,09
902,064;63,06
902,282;63,15
902,5;63,17
902,718;63,24
902,936;63,29
903,154;63,28
903,372;63,42
903,59;63,47
903,808;63,54
904,026;63,57
904,244;63,64
904,462;63,77
904,679;63,88
904,897;63,88
905,115;63,94
905,333;63,94
905,551;63,96
905,768;64,04
905,986;64,04
906,204;64,08
906,422;64,09
906,639;64,15
906,857;64,22
907,074;64,28
907,292;64,26
907,51;64,26
907,727;64,36
907,945;64,36
908,162;64,43
908,38;64,53
908,597;64,59
908,815;64,64
909,032;64,68
909,25;64,63
909,467;64,68
909,684;64,76
909,902;64,84
910,119;64,91
910,337;65,04
910,554;65,1
910,771;65,16
910,988;65,22
911,206;65,3
911,423;65,34
911,64;65,45
911,857;65,59
912,074;65,61
912,291;65,63
912,509;65,58
912,726;65,57
912,943;65,59
913,16;65,58
913,377;65,7
913,594;65,64
913,811;65,64
914,028;65,7
914,245;65,67
914,462;65,72
914,679;65,75
914,896;65,73
915,112;65,76
915,329;65,85
915,546;65,88
915,763;65,93
915,98;65,94
916,196;65,91
916,413;65,89
916,63;65,92
916,847;65,98
917,063;66,1
917,28;66,11
917,497;66,17
917,713;66,25
917,93;66,24
918,146;66,29
918,363;66,47
918,579;66,53
918,796;66,61
919,012;66,69
919,229;66,71
919,445;66,67
919,662;66,74
919,878;66,76
920,095;66,86
920,311;66,84
920,527;66,9
920,744;67,01
920,96;67,14
921,176;67,28
921,392;67,28
921,609;67,37
921,825;67,49
922,041;67,49
922,257;67,55
922,473;67,51
922,69;67,61
922,906;67,6
923,122;67,58
923,338;67,6
923,554;67,63
923,77;67,67
923,986;67,72
924,202;67,79
924,418;67,83
924,634;67,88
924,85;68,04
925,066;68,09
925,282;68,06
925,497;68,14
925,713;68,17
925,929;68,29
926,145;68,37
926,361;68,39
926,576;68,49
926,792;68,53
927,008;68,63
927,224;68,6
927,439;68,65
927,655;68,66
927,871;68,71
928,086;68,77
928,302;68,88
928,517;68,98
928,733;68,97
928,948;69,04
929,164;69,04
929,379;69,02
929,595;69,11
929,81;69,17
930,026;69,17
930,241;69,28
930,456;69,3
930,672;69,24
930,887;69,32
931,102;69,36
931,318;69,43
931,533;69,45
931,748;69,54
931,964;69,58
932,179;69,67
932,394;69,66
932,609;69,64
932,824;69,61
933,039;69,57
933,255;69,57
933,47;69,53
933,685;69,57
933,9;69,65
934,115;69,68
934,33;69,64
934,545;69,62
934,76;69,55
934,975;69,42
935,19;69,56
935,404;69,56
935,619;69,5
935,834;69,48
936,049;69,48
936,264;69,43
936,479;69,52
936,693;69,6
936,908;69,65
937,123;69,9
937,338;70,03
937,552;70,1
937,767;70,33
937,982;70,55
938,196;70,57
938,411;70,75
938,625;70,63
938,84;70,79
939,055;70,85
939,269;71,08
939,484;71,39
939,698;71,36
939,912;71,45
940,127;71,6
940,341;71,57
940,556;71,84
940,77;72,03
940,984;71,97
941,199;71,98
941,413;72,41
941,627;72,5
941,842;72,37
942,056;72,52
942,27;72,49
942,484;72,24
942,699;72,56
942,913;72,38
943,127;72,59
943,341;72,88
943,555;73,11
943,769;73,23
943,983;73,14
944,197;73,03
944,411;72,89
944,625;72,93
944,839;73,22
945,053;73,37
945,267;73,53
945,481;73,85
945,695;74,08
945,909;74,03
946,123;73,98
946,336;74,16
946,55;74,45
946,764;74,61
946,978;74,53
947,192;74,13
947,405;74,11
947,619;74,35
947,833;74,45
948,046;74,25
948,26;73,86
948,474;74,03
948,687;74,4
948,901;74,47
949,114;74,63
949,328;74,55
949,541;74,59
949,755;74,41
949,968;73,93
950,182;73,73
950,395;73,38
950,609;73,38
950,822;73,46
951,035;73,35
951,249;73,35
951,462;73,49
951,675;73,89
951,889;74,24
952,102;74,04
952,315;73,99
952,528;74,12
952,741;74,35
952,955;74,36
953,168;74,33
953,381;74,47
953,594;74,41
953,807;74,42
954,02;74,52
954,233;74,76
954,446;75,25
954,659;75,33
954,872;75,77
955,085;75,55
955,298;75,46
955,511;75,4
955,724;75,52
955,937;75,55
956,15;75,59
956,362;75,22
956,575;75,43
956,788;75,4
957,001;75,35
957,214;75,43
957,426;75,68
957,639;75,54
957,852;75,67
958,064;75,65
958,277;75,85
958,49;75,75
958,702;75,72
958,915;75,38
959,127;75,6
959,34;75,45
959,552;75,75
959,765;75,89
959,977;76,2
960,19;75,8
960,402;75,7
960,615;75,43
960,827;75,41
961,039;75,33
961,252;75,42
961,464;75,35
961,676;75,26
961,889;75,31
962,101;75,56
962,313;75,25
962,525;75,28
962,738;75,14
962,95;75,21
963,162;75,27
963,374;75,3
963,586;75,13
963,798;75,03
964,01;74,83
964,222;74,92
964,434;74,78
964,646;75,14
964,858;75,13
965,07;75,41
965,282;75,53
965,494;75,44
965,706;75,63
965,918;75,69
966,13;75,96
966,342;75,55
966,553;75,47
966,765;75,38
966,977;75,48
967,189;75,54
967,401;75,62
967,612;75,57
967,824;75,47
968,036;75,83
968,247;75,7
968,459;75,79
968,67;75,52
968,882;75,16
969,094;75,21
969,305;75,25
969,517;75,15
969,728;75,39
969,94;75,4
970,151;75,39
970,362;75,66
970,574;75,58
970,785;75,78
970,997;75,73
971,208;76,27
971,419;76,12
971,631;76,29
971,842;76,11
972,053;76,34
972,264;76,84
972,476;76,6
972,687;76,86
972,898;77,03
973,109;77,55
973,32;77,98
973,531;78,11
973,742;78,36
973,954;78,43
974,165;78,27
974,376;78,57
974,587;78,47
974,798;78,2
975,009;78,34
975,22;78,35
975,43;78,66
975,641;78,52
975,852;78,87
976,063;78,88
976,274;79,22
976,485;79,09
976,695;78,99
976,906;79,21
977,117;79,01
977,328;79,09
977,538;78,63
977,749;78,63
977,96;78,6
978,17;78,97
978,381;78,97
978,592;78,93
978,802;78,87
979,013;78,71
979,223;78,9
979,434;78,82
979,644;79
979,855;78,75
980,065;78,72
980,276;78,43
980,486;78,63
980,696;78,46
980,907;78,49
981,117;78,48
981,327;78,61
981,538;78,73
981,748;78,83
981,958;78,99
982,169;78,97
982,379;79,04
982,589;78,86
982,799;79,31
983,009;79,52
983,219;79,6
983,43;79,83
983,64;79,58
983,85;79,96
984,06;79,91
984,27;80,17
984,48;80,46
984,69;80,75
984,9;80,54
985,11;80,51
985,32;80,49
985,529;80,43
985,739;80,11
985,949;80,36
986,159;79,9
986,369;79,86
986,579;79,69
986,788;79,69
986,998;79,72
987,208;79,07
987,417;79,16
987,627;79,01
987,837;79,23
988,046;79,38
988,256;79
988,466;78,67
988,675;78,53
988,885;78,58
989,094;78,52
989,304;78,4
989,513;78,68
989,723;78,68
989,932;78,77
990,142;78,9
990,351;78,83
990,56;79,38
990,77;79,22
990,979;79,68
991,188;79,24
991,398;78,86
991,607;79,41
991,816;79,14
992,025;79,24
992,235;79,14
992,444;79,49
992,653;79,32
992,862;79,78
993,071;79,95
993,28;79,6
993,489;79,69
993,698;80,04
993,908;79,93
994,117;80,03
994,326;80,21
994,534;80,06
994,743;80,4
994,952;80,43
995,161;80,74
995,37;80,93
995,579;81,4
995,788;81,41
995,997;80,69
996,205;80,8
996,414;80,67
996,623;80,55
996,832;80,53
997,04;80,5
997,249;80,36
997,458;80,14
997,666;80,24
997,875;80,21
998,084;79,97
998,292;80,07
998,501;80,12
998,709;79,68
998,918;79,5
999,126;79,32
999,335;79,71
999,543;79,87
999,752;79,7
999,96;79,89
1000,169;80,59
1000,377;81,05
1000,585;81,42
1000,794;81,93
1001,002;82,27
1001,21;82,4
1001,418;82,96
1001,627;83,18
1001,835;83,51
1002,043;83,21
1002,251;83,54
1002,459;84,01
1002,668;83,82
1002,876;83,47
1003,084;83,95
1003,292;84,25
1003,5;84,42
1003,708;83,79
1003,916;83,57
1004,124;83,49
1004,332;83,75
1004,54;83,45
1004,748;83,65
1004,956;83,39
1005,163;82,89
1005,371;82,65
1005,579;82,06
1005,787;81,9
1005,995;82,27
1006,202;82,08
1006,41;82,57
1006,618;81,93
1006,826;81,85
1007,033;81,87
1007,241;82,68
1007,449;82,88
1007,656;82,63
1007,864;82,25
1008,071;82,43
1008,279;82,4
1008,486;82,75
1008,694;81,97
1008,901;82,15
1009,109;82,23
1009,316;82,55
1009,524;82,51
1009,731;82,52
1009,938;83,34
1010,146;83,6
1010,353;83,44
1010,56;83,85
1010,768;83,76
1010,975;84,71
1011,182;84,9
1011,389;84,51
1011,597;83,54
1011,804;83,44
1012,011;83,72
1012,218;84,07
1012,425;83,9
1012,632;84,51
1012,839;83,99
1013,046;84,23
1013,253;84,09
1013,46;83,82
1013,667;83,48
1013,874;83,96
1014,081;84,16
1014,288;83,59
1014,495;83,48
1014,702;83,05
1014,909;83,29
1015,116;83,16
1015,323;82,87
1015,529;82,48
1015,736;82,78
1015,943;83,8
1016,15;84,38
1016,356;85,24
1016,563;84,85
1016,77;84,89
1016,976;85,07
1017,183;85,15
1017,389;84,91
1017,596;84,7
1017,803;84,88
1018,009;84,89
1018,216;85,02
1018,422;85,22
1018,629;85,83
1018,835;85,61
1019,041;85,56
1019,248;84,79
1019,454;85,35
1019,661;85,94
1019,867;85,7
1020,073;86,13
1020,279;85,89
1020,486;85,15
1020,692;84,55
1020,898;84,91
1021,104;84,52
1021,311;83,92
1021,517;83,75
1021,723;84,45
1021,929;84,38
1022,135;84,95
1022,341;84,74
1022,547;85,07
1022,753;84,43
1022,959;84,37
1023,165;84,24
1023,371;83,72
1023,577;83,8
1023,783;82,85
1023,989;82,07
1024,195;82,07
1024,401;82,2
1024,607;82,8
1024,812;83,31
1025,018;82,81
1025,224;83,15
1025,43;84,01
1025,635;85,3
1025,841;85,81
1026,047;85,08
1026,252;85,75
1026,458;85,67
1026,664;85,87
1026,869;85,08
1027,075;85,82
1027,28;85,44
1027,486;85,39
1027,691;86,28
1027,897;86,14
1028,102;86,82
1028,308;86,31
1028,513;86,63
1028,719;86,97
1028,924;85,99
1029,129;85,11
1029,335;85,77
1029,54;85,87
1029,745;85,65
1029,95;85,3
1030,156;84,98
1030,361;84,72
1030,566;84,86
1030,771;83,5
1030,976;83,84
1031,182;84,09
1031,387;84,39
1031,592;84,32
1031,797;84,87
1032,002;84,33
1032,207;85,05
1032,412;85,53
1032,617;86,45
1032,822;86,95
1033,027;86,94
1033,232;86,49
1033,437;87,1
1033,642;87,32
1033,846;86,31
1034,051;85,03
1034,256;83,23
1034,461;83,7
1034,666;84,24
1034,87;83,68
1035,075;85,44
1035,28;84,22
1035,484;83,98
1035,689;83,85
1035,894;84,73
1036,098;84,64
1036,303;86,77
1036,507;85,78
1036,712;86,3
1036,917;86,54
1037,121;86,84
1037,325;85,6
1037,53;87,15
1037,734;88,01
1037,939;88,88
1038,143;88,95
1038,348;90,48
1038,552;91,24
1038,756;92,35
1038,961;92,39
1039,165;92,31
1039,369;91,62
1039,573;92,76
1039,778;94,07
1039,982;93,28
1040,186;94,47
1040,39;93,81
1040,594;92,57
1040,798;93,54
1041,002;91,38
1041,206;91,16
1041,41;90,68
1041,614;91,66
1041,818;91,18
1042,022;90,19
1042,226;89,69
1042,43;90,47
1042,634;90,47
1042,838;91,51
1043,042;89,98
1043,246;90,84
1043,45;91,5
1043,653;91,11
1043,857;92,14
1044,061;89,2
1044,265;89,73
1044,468;87,95
1044,672;89,49
1044,876;90,01
1045,079;89,62
1045,283;90,43
1045,487;88,79
1045,69;89,57
1045,894;87,29
1046,097;87,5
1046,301;86,94
1046,504;85,82
1046,708;86,09
1046,911;86,41
1047,115;86,27
1047,318;85,9
1047,522;86,31
1047,725;86,16
1047,928;86,45
1048,132;87,95
1048,335;89,3
1048,538;90,09
1048,741;91,2
1048,945;90,17
1049,148;90,64
1049,351;90,8
1049,554;90,71
1049,757;92,86
1049,96;91,98
1050,163;94,5
1050,367;93,51
1050,57;94,81
1050,773;94,33
1050,976;92,13
1051,179;94,61
1051,382;95,58
1051,585;98,58
1051,787;96,84
1051,99;96,4
1052,193;97,21
1052,396;98,65
1052,599;99,27
1052,802;96,48
1053,005;93,14
1053,207;94,95
1053,41;93,99
1053,613;96,2
1053,815;94,38
1054,018;92,66
1054,221;92,58
1054,423;92,56
1054,626;93,4
1054,829;92,91
1055,031;94,12
1055,234;97,3
1055,436;92,72
1055,639;90,75
1055,841;87,66
1056,044;89,35
1056,246;89,34
