3997,70175;1,87551
3995,6506;1,87505
3993,59944;1,87469
3991,54829;1,87501
3989,49713;1,87545
3987,44598;1,87564
3985,39482;1,87653
3983,34367;1,87795
3981,29251;1,87902
3979,24136;1,88035
3977,1902;1,88227
3975,13905;1,88419
3973,08789;1,88572
3971,03673;1,88685
3968,98558;1,88716
3966,93442;1,88664
3964,88327;1,88658
3962,83211;1,88826
3960,78096;1,8916
3958,7298;1,89405
3956,67865;1,89444
3954,62749;1,89562
3952,57634;1,89885
3950,52518;1,90171
3948,47403;1,90283
3946,42287;1,90336
3944,37172;1,90324
3942,32056;1,90191
3940,2694;1,8999
3938,21825;1,89795
3936,16709;1,89772
3934,11594;1,89863
3932,06478;1,8969
3930,01363;1,89167
3927,96247;1,88634
3925,91132;1,88228
3923,86016;1,87902
3921,80901;1,87662
3919,75785;1,87399
3917,7067;1,86968
3915,65554;1,8649
3913,60439;1,86118
3911,55323;1,85788
3909,50207;1,85504
3907,45092;1,85236
3905,39976;1,84919
3903,34861;1,84657
3901,29745;1,84442
3899,2463;1,84177
3897,19514;1,84015
3895,14399;1,83942
3893,09283;1,83788
3891,04168;1,83609
3888,99052;1,83626
3886,93937;1,8364
3884,88821;1,83533
3882,83706;1,83387
3880,7859;1,8317
3878,73474;1,83034
3876,68359;1,82967
3874,63243;1,82923
3872,58128;1,82973
3870,53012;1,82905
3868,47897;1,82853
3866,42781;1,82836
3864,37666;1,8267
3862,3255;1,82469
3860,27435;1,82394
3858,22319;1,82482
3856,17204;1,8251
3854,12088;1,82289
3852,06973;1,82061
3850,01857;1,81946
3847,96741;1,81882
3845,91626;1,81883
3843,8651;1,81911
3841,81395;1,81947
3839,76279;1,81961
3837,71164;1,8191
3835,66048;1,81778
3833,60933;1,81571
3831,55817;1,81412
3829,50702;1,81438
3827,45586;1,81509
3825,40471;1,81568
3823,35355;1,81548
3821,3024;1,8147
3819,25124;1,81648
3817,20008;1,81742
3815,14893;1,81615
3813,09777;1,8153
3811,04662;1,81501
3808,99546;1,81464
3806,94431;1,81538
3804,89315;1,81939
3802,842;1,82176
3800,79084;1,82146
3798,73969;1,82165
3796,68853;1,82049
3794,63738;1,81894
3792,58622;1,81786
3790,53506;1,81723
3788,48391;1,81802
3786,43275;1,81995
3784,3816;1,82182
3782,33044;1,82288
3780,27929;1,82268
3778,22813;1,82282
3776,17698;1,82405
3774,12582;1,82541
3772,07467;1,82566
3770,02351;1,82447
3767,97236;1,82409
3765,9212;1,82509
3763,87005;1,82773
3761,81889;1,83072
3759,76773;1,83221
3757,71658;1,83353
3755,66542;1,83611
3753,61427;1,8383
3751,56311;1,83894
3749,51196;1,84063
3747,4608;1,84355
3745,40965;1,84281
3743,35849;1,84176
3741,30734;1,84468
3739,25618;1,84895
3737,20503;1,85323
3735,15387;1,85696
3733,10272;1,85948
3731,05156;1,86173
3729,0004;1,86453
3726,94925;1,86675
3724,89809;1,86862
3722,84694;1,87066
3720,79578;1,8741
3718,74463;1,8785
3716,69347;1,88245
3714,64232;1,88684
3712,59116;1,89312
3710,54001;1,89982
3708,48885;1,90499
3706,4377;1,91176
3704,38654;1,92316
3702,33539;1,93935
3700,28423;1,95979
3698,23307;1,98035
3696,18192;1,99611
3694,13076;2,00594
3692,07961;2,01036
3690,02845;2,01027
3687,9773;2,00926
3685,92614;2,01132
3683,87499;2,01564
3681,82383;2,02263
3679,77268;2,03397
3677,72152;2,04757
3675,67037;2,06108
3673,61921;2,07748
3671,56806;2,09359
3669,5169;2,1074
3667,46574;2,11997
3665,41459;2,12983
3663,36343;2,13959
3661,31228;2,1519
3659,26112;2,16447
3657,20997;2,17529
3655,15881;2,1867
3653,10766;2,19929
3651,0565;2,21383
3649,00535;2,23488
3646,95419;2,26092
3644,90304;2,28335
3642,85188;2,29576
3640,80073;2,30064
3638,74957;2,30579
3636,69841;2,3147
3634,64726;2,32381
3632,5961;2,33047
3630,54495;2,33453
3628,49379;2,34044
3626,44264;2,35453
3624,39148;2,37278
3622,34033;2,3898
3620,28917;2,40228
3618,23802;2,40949
3616,18686;2,41532
3614,13571;2,42216
3612,08455;2,42749
3610,0334;2,43126
3607,98224;2,43797
3605,93108;2,44844
3603,87993;2,46161
3601,82877;2,47629
3599,77762;2,48777
3597,72646;2,49714
3595,67531;2,50882
3593,62415;2,51725
3591,573;2,51956
3589,52184;2,52152
3587,47069;2,52322
3585,41953;2,52365
3583,36838;2,52675
3581,31722;2,53505
3579,26607;2,54886
3577,21491;2,56427
3575,16375;2,57421
3573,1126;2,5773
3571,06144;2,58184
3569,01029;2,59196
3566,95913;2,59671
3564,90798;2,59407
3562,85682;2,59921
3560,80567;2,61129
3558,75451;2,61859
3556,70336;2,62146
3554,6522;2,62763
3552,60105;2,63947
3550,54989;2,65209
3548,49874;2,66067
3546,44758;2,6659
3544,39642;2,6675
3542,34527;2,66244
3540,29411;2,65614
3538,24296;2,65679
3536,1918;2,6625
3534,14065;2,6683
3532,08949;2,6771
3530,03834;2,69025
3527,98718;2,69944
3525,93603;2,69972
3523,88487;2,69734
3521,83372;2,69873
3519,78256;2,70127
3517,73141;2,7036
3515,68025;2,71007
3513,62909;2,71662
3511,57794;2,71597
3509,52678;2,71691
3507,47563;2,72733
3505,42447;2,74014
3503,37332;2,749
3501,32216;2,74795
3499,27101;2,74057
3497,21985;2,73778
3495,1687;2,73795
3493,11754;2,74128
3491,06639;2,7548
3489,01523;2,77173
3486,96407;2,77841
3484,91292;2,77505
3482,86176;2,76803
3480,81061;2,76148
3478,75945;2,75812
3476,7083;2,75697
3474,65714;2,76123
3472,60599;2,7759
3470,55483;2,78869
3468,50368;2,78879
3466,45252;2,78672
3464,40137;2,78647
3462,35021;2,7812
3460,29906;2,77673
3458,2479;2,78348
3456,19674;2,79431
3454,14559;2,79946
3452,09443;2,79906
3450,04328;2,79347
3447,99212;2,788
3445,94097;2,78882
3443,88981;2,7915
3441,83866;2,7945
3439,7875;2,79763
3437,73635;2,7971
3435,68519;2,80646
3433,63404;2,82861
3431,58288;2,83877
3429,53173;2,82875
3427,48057;2,81563
3425,42941;2,81521
3423,37826;2,82677
3421,3271;2,83929
3419,27595;2,84558
3417,22479;2,83535
3415,17364;2,81302
3413,12248;2,80024
3411,07133;2,80304
3409,02017;2,81116
3406,96902;2,8168
3404,91786;2,81594
3402,86671;2,80783
3400,81555;2,799
3398,7644;2,79848
3396,71324;2,80518
3394,66208;2,81829
3392,61093;2,83272
3390,55977;2,83642
3388,50862;2,83328
3386,45746;2,83468
3384,40631;2,83934
3382,35515;2,83983
3380,304;2,83457
3378,25284;2,82718
3376,20169;2,82055
3374,15053;2,8139
3372,09938;2,81079
3370,04822;2,81892
3367,99707;2,82729
3365,94591;2,8233
3363,89475;2,81788
3361,8436;2,81702
3359,79244;2,8172
3357,74129;2,82375
3355,69013;2,83216
3353,63898;2,82823
3351,58782;2,81942
3349,53667;2,82125
3347,48551;2,82715
3345,43436;2,8275
3343,3832;2,83054
3341,33205;2,84236
3339,28089;2,85181
3337,22974;2,84911
3335,17858;2,84396
3333,12742;2,84655
3331,07627;2,85118
3329,02511;2,84918
3326,97396;2,84736
3324,9228;2,85275
3322,87165;2,85522
3320,82049;2,84886
3318,76934;2,84599
3316,71818;2,84966
3314,66703;2,85081
3312,61587;2,85411
3310,56472;2,86006
3308,51356;2,85632
3306,46241;2,84243
3304,41125;2,83255
3302,36009;2,83248
3300,30894;2,83409
3298,25778;2,8334
3296,20663;2,82974
3294,15547;2,8241
3292,10432;2,82483
3290,05316;2,83152
3288,00201;2,83119
3285,95085;2,82756
3283,8997;2,83318
3281,84854;2,84208
3279,79739;2,84597
3277,74623;2,84689
3275,69508;2,84443
3273,64392;2,83825
3271,59276;2,83618
3269,54161;2,83857
3267,49045;2,83606
3265,4393;2,83225
3263,38814;2,83145
3261,33699;2,82963
3259,28583;2,82653
3257,23468;2,81973
3255,18352;2,81387
3253,13237;2,81891
3251,08121;2,82774
3249,03006;2,82973
3246,9789;2,82679
3244,92775;2,82009
3242,87659;2,8129
3240,82543;2,81468
3238,77428;2,82433
3236,72312;2,82726
3234,67197;2,8201
3232,62081;2,81482
3230,56966;2,81584
3228,5185;2,82065
3226,46735;2,82573
3224,41619;2,8241
3222,36504;2,81729
3220,31388;2,8141
3218,26273;2,81376
3216,21157;2,81038
3214,16041;2,80655
3212,10926;2,80777
3210,0581;2,8126
3208,00695;2,81367
3205,95579;2,80472
3203,90464;2,79232
3201,85348;2,78878
3199,80233;2,79176
3197,75117;2,79278
3195,70002;2,78719
3193,64886;2,77743
3191,59771;2,77563
3189,54655;2,78438
3187,4954;2,78961
3185,44424;2,78615
3183,39308;2,78329
3181,34193;2,78605
3179,29077;2,78683
3177,23962;2,78167
3175,18846;2,77909
3173,13731;2,78
3171,08615;2,77767
3169,035;2,77437
3166,98384;2,77132
3164,93269;2,76887
3162,88153;2,77143
3160,83038;2,77084
3158,77922;2,75843
3156,72807;2,74598
3154,67691;2,74407
3152,62575;2,74672
3150,5746;2,75051
3148,52344;2,75767
3146,47229;2,76327
3144,42113;2,76397
3142,36998;2,76138
3140,31882;2,75806
3138,26767;2,75109
3136,21651;2,73864
3134,16536;2,73111
3132,1142;2,73295
3130,06305;2,73759
3128,01189;2,74091
3125,96074;2,74292
3123,90958;2,74161
3121,85842;2,7363
3119,80727;2,73306
3117,75611;2,73425
3115,70496;2,73571
3113,6538;2,73312
3111,60265;2,72901
3109,55149;2,73036
3107,50034;2,73193
3105,44918;2,73022
3103,39803;2,73421
3101,34687;2,74194
3099,29572;2,74936
3097,24456;2,76003
3095,19341;2,76491
3093,14225;2,75788
3091,09109;2,75157
3089,03994;2,74958
3086,98878;2,7431
3084,93763;2,73395
3082,88647;2,72931
3080,83532;2,73346
3078,78416;2,7466
3076,73301;2,75567
3074,68185;2,75314
3072,6307;2,7511
3070,57954;2,75393
3068,52839;2,75081
3066,47723;2,7409
3064,42608;2,73471
3062,37492;2,73691
3060,32376;2,74448
3058,27261;2,75194
3056,22145;2,75557
3054,1703;2,75533
3052,11914;2,7506
3050,06799;2,74358
3048,01683;2,74239
3045,96568;2,74471
3043,91452;2,74462
3041,86337;2,74873
3039,81221;2,75835
3037,76106;2,76196
3035,7099;2,75243
3033,65875;2,74126
3031,60759;2,74169
3029,55643;2,74758
3027,50528;2,75061
3025,45412;2,74805
3023,40297;2,73948
3021,35181;2,7365
3019,30066;2,74788
3017,2495;2,76338
3015,19835;2,76843
3013,14719;2,76703
3011,09604;2,77227
3009,04488;2,78243
3006,99373;2,79391
3004,94257;2,80695
3002,89142;2,81396
3000,84026;2,8152
2998,7891;2,82276
2996,73795;2,83571
2994,68679;2,83577
2992,63564;2,82943
2990,58448;2,83534
2988,53333;2,8543
2986,48217;2,8795
2984,43102;2,90028
2982,37986;2,907
2980,32871;2,90658
2978,27755;2,91819
2976,2264;2,94125
2974,17524;2,9604
2972,12409;2,97561
2970,07293;2,98462
2968,02177;2,97625
2965,97062;2,96455
2963,91946;2,96409
2961,86831;2,9668
2959,81715;2,97744
2957,766;2,9943
2955,71484;2,99674
2953,66369;2,98178
2951,61253;2,9658
2949,56138;2,95747
2947,51022;2,95515
2945,45907;2,9579
2943,40791;2,96776
2941,35675;2,98925
2939,3056;3,00785
2937,25444;3,0085
2935,20329;2,99684
2933,15213;2,98131
2931,10098;2,98296
2929,04982;3,00634
2926,99867;3,01268
2924,94751;2,99186
2922,89636;2,97638
2920,8452;2,97408
2918,79405;2,97716
2916,74289;2,97889
2914,69174;2,96516
2912,64058;2,94416
2910,58942;2,9389
2908,53827;2,94633
2906,48711;2,94902
2904,43596;2,94471
2902,3848;2,94284
2900,33365;2,93981
2898,28249;2,92751
2896,23134;2,92073
2894,18018;2,92241
2892,12903;2,91562
2890,07787;2,90622
2888,02672;2,90829
2885,97556;2,92144
2883,92441;2,93404
2881,87325;2,93595
2879,82209;2,93055
2877,77094;2,92461
2875,71978;2,92228
2873,66863;2,91933
2871,61747;2,9164
2869,56632;2,91882
2867,51516;2,9288
2865,46401;2,93577
2863,41285;2,93285
2861,3617;2,92892
2859,31054;2,92787
2857,25939;2,93126
2855,20823;2,93156
2853,15708;2,91997
2851,10592;2,9059
2849,05476;2,89258
2847,00361;2,88046
2844,95245;2,8763
2842,9013;2,87883
2840,85014;2,87778
2838,79899;2,86605
2836,74783;2,84295
2834,69668;2,81062
2832,64552;2,77774
2830,59437;2,75114
2828,54321;2,72957
2826,49206;2,71063
2824,4409;2,69465
2822,38975;2,68165
2820,33859;2,6727
2818,28743;2,66678
2816,23628;2,65784
2814,18512;2,64532
2812,13397;2,63547
2810,08281;2,62669
2808,03166;2,61524
2805,9805;2,60557
2803,92935;2,59532
2801,87819;2,58182
2799,82704;2,57511
2797,77588;2,57564
2795,72473;2,5717
2793,67357;2,56033
2791,62242;2,54817
2789,57126;2,54123
2787,5201;2,53751
2785,46895;2,53152
2783,41779;2,5225
2781,36664;2,51264
2779,31548;2,50537
2777,26433;2,50164
2775,21317;2,49896
2773,16202;2,49631
2771,11086;2,49568
2769,05971;2,49588
2767,00855;2,49209
2764,9574;2,48536
2762,90624;2,48071
2760,85509;2,47928
2758,80393;2,47908
2756,75277;2,47769
2754,70162;2,47407
2752,65046;2,4713
2750,59931;2,47093
2748,54815;2,46918
2746,497;2,46666
2744,44584;2,46601
2742,39469;2,46397
2740,34353;2,46073
2738,29238;2,46129
2736,24122;2,46372
2734,19007;2,46382
2732,13891;2,46413
2730,08776;2,46601
2728,0366;2,46584
2725,98544;2,46337
2723,93429;2,46058
2721,88313;2,45829
2719,83198;2,4568
2717,78082;2,4542
2715,72967;2,44803
2713,67851;2,441
2711,62736;2,43857
2709,5762;2,43618
2707,52505;2,42814
2705,47389;2,41982
2703,42274;2,41608
2701,37158;2,41605
2699,32043;2,41609
2697,26927;2,41486
2695,21811;2,41398
2693,16696;2,4136
2691,1158;2,4138
2689,06465;2,41533
2687,01349;2,41785
2684,96234;2,41928
2682,91118;2,4171
2680,86003;2,4132
2678,80887;2,41178
2676,75772;2,41178
2674,70656;2,41139
2672,65541;2,41232
2670,60425;2,41395
2668,55309;2,41481
2666,50194;2,41371
2664,45078;2,40818
2662,39963;2,40093
2660,34847;2,39757
2658,29732;2,39885
2656,24616;2,40039
2654,19501;2,39851
2652,14385;2,39552
2650,0927;2,39482
2648,04154;2,3949
2645,99039;2,39475
2643,93923;2,39743
2641,88808;2,40124
2639,83692;2,40265
2637,78576;2,40573
2635,73461;2,41167
2633,68345;2,41568
2631,6323;2,41897
2629,58114;2,42307
2627,52999;2,42531
2625,47883;2,42611
2623,42768;2,42575
2621,37652;2,42526
2619,32537;2,42727
2617,27421;2,43127
2615,22306;2,43613
2613,1719;2,43996
2611,12075;2,44081
2609,06959;2,43976
2607,01843;2,43961
2604,96728;2,44202
2602,91612;2,44393
2600,86497;2,44266
2598,81381;2,44073
2596,76266;2,44024
2594,7115;2,43965
2592,66035;2,43753
2590,60919;2,43628
2588,55804;2,43685
2586,50688;2,43715
2584,45573;2,43584
2582,40457;2,43338
2580,35342;2,431
2578,30226;2,42871
2576,2511;2,42762
2574,19995;2,42712
2572,14879;2,42475
2570,09764;2,423
2568,04648;2,42391
2565,99533;2,4246
2563,94417;2,42494
2561,89302;2,42563
2559,84186;2,42489
2557,79071;2,42451
2555,73955;2,42518
2553,6884;2,42359
2551,63724;2,42059
2549,58609;2,42023
2547,53493;2,42199
2545,48377;2,42327
2543,43262;2,42487
2541,38146;2,42606
2539,33031;2,42544
2537,27915;2,42685
2535,228;2,43162
2533,17684;2,43526
2531,12569;2,43862
2529,07453;2,4466
2527,02338;2,45459
2524,97222;2,45788
2522,92107;2,4608
2520,86991;2,4633
2518,81876;2,4644
2516,7676;2,4671
2514,71644;2,47099
2512,66529;2,47365
2510,61413;2,4726
2508,56298;2,46762
2506,51182;2,46069
2504,46067;2,45365
2502,40951;2,44817
2500,35836;2,44284
2498,3072;2,43254
2496,25605;2,41804
2494,20489;2,40905
2492,15374;2,40672
2490,10258;2,39997
2488,05143;2,387
2486,00027;2,37703
2483,94911;2,37017
2481,89796;2,35924
2479,8468;2,34688
2477,79565;2,34036
2475,74449;2,33798
2473,69334;2,33393
2471,64218;2,32694
2469,59103;2,31956
2467,53987;2,31326
2465,48872;2,30667
2463,43756;2,30024
2461,38641;2,29605
2459,33525;2,29084
2457,2841;2,28244
2455,23294;2,2766
2453,18178;2,27493
2451,13063;2,27267
2449,07947;2,26957
2447,02832;2,26708
2444,97716;2,26393
2442,92601;2,2604
2440,87485;2,25818
2438,8237;2,25701
2436,77254;2,25497
2434,72139;2,25247
2432,67023;2,25108
2430,61908;2,24872
2428,56792;2,24409
2426,51677;2,23888
2424,46561;2,23472
2422,41445;2,23198
2420,3633;2,22996
2418,31214;2,22817
2416,26099;2,22654
2414,20983;2,2249
2412,15868;2,22268
2410,10752;2,2205
2408,05637;2,21906
2406,00521;2,21798
2403,95406;2,21673
2401,9029;2,21512
2399,85175;2,21354
2397,80059;2,21209
2395,74944;2,21068
2393,69828;2,20915
2391,64712;2,20792
2389,59597;2,20738
2387,54481;2,20693
2385,49366;2,20549
2383,4425;2,20301
2381,39135;2,20137
2379,34019;2,2017
2377,28904;2,2026
2375,23788;2,20256
2373,18673;2,20173
2371,13557;2,20069
2369,08442;2,19892
2367,03326;2,19785
2364,9821;2,19964
2362,93095;2,2011
2360,87979;2,19917
2358,82864;2,19662
2356,77748;2,1956
2354,72633;2,19442
2352,67517;2,19274
2350,62402;2,19262
2348,57286;2,19371
2346,52171;2,1935
2344,47055;2,1909
2342,4194;2,1877
2340,36824;2,18703
2338,31709;2,18936
2336,26593;2,19189
2334,21477;2,19292
2332,16362;2,19322
2330,11246;2,19335
2328,06131;2,1926
2326,01015;2,19073
2323,959;2,18982
2321,90784;2,19051
2319,85669;2,19062
2317,80553;2,19028
2315,75438;2,18998
2313,70322;2,18869
2311,65207;2,18757
2309,60091;2,18738
2307,54976;2,18667
2305,4986;2,18492
2303,44744;2,18264
2301,39629;2,18062
2299,34513;2,17953
2297,29398;2,1791
2295,24282;2,17823
2293,19167;2,17662
2291,14051;2,17545
2289,08936;2,17527
2287,0382;2,17531
2284,98705;2,17434
2282,93589;2,17219
2280,88474;2,17055
2278,83358;2,17015
2276,78243;2,16975
2274,73127;2,16968
2272,68011;2,17121
2270,62896;2,17302
2268,5778;2,17355
2266,52665;2,17346
2264,47549;2,17265
2262,42434;2,17103
2260,37318;2,17024
2258,32203;2,17096
2256,27087;2,17262
2254,21972;2,17424
2252,16856;2,17472
2250,11741;2,17489
2248,06625;2,17689
2246,0151;2,18011
2243,96394;2,18176
2241,91278;2,18052
2239,86163;2,17905
2237,81047;2,18
2235,75932;2,18241
2233,70816;2,18407
2231,65701;2,18476
2229,60585;2,18543
2227,5547;2,18573
2225,50354;2,18671
2223,45239;2,18931
2221,40123;2,19098
2219,35008;2,19026
2217,29892;2,18885
2215,24777;2,18874
2213,19661;2,18968
2211,14545;2,19085
2209,0943;2,19251
2207,04314;2,19455
2204,99199;2,19648
2202,94083;2,19743
2200,88968;2,19694
2198,83852;2,19647
2196,78737;2,19656
2194,73621;2,19601
2192,68506;2,19496
2190,6339;2,19461
2188,58275;2,19587
2186,53159;2,1981
2184,48044;2,20051
2182,42928;2,20231
2180,37812;2,20217
2178,32697;2,20146
2176,27581;2,20208
2174,22466;2,20415
2172,1735;2,20649
2170,12235;2,20866
2168,07119;2,21105
2166,02004;2,21297
2163,96888;2,21473
2161,91773;2,21681
2159,86657;2,21889
2157,81542;2,2224
2155,76426;2,22772
2153,71311;2,23326
2151,66195;2,23778
2149,61079;2,24083
2147,55964;2,24202
2145,50848;2,24252
2143,45733;2,24419
2141,40617;2,2457
2139,35502;2,24599
2137,30386;2,24557
2135,25271;2,24431
2133,20155;2,24217
2131,1504;2,23936
2129,09924;2,23713
2127,04809;2,23552
2124,99693;2,23303
2122,94578;2,22902
2120,89462;2,22355
2118,84346;2,21807
2116,79231;2,21424
2114,74115;2,21172
2112,69;2,20965
2110,63884;2,20754
2108,58769;2,20581
2106,53653;2,20497
2104,48538;2,205
2102,43422;2,20558
2100,38307;2,2052
2098,33191;2,20373
2096,28076;2,20252
2094,2296;2,20239
2092,17844;2,20288
2090,12729;2,20342
2088,07613;2,20413
2086,02498;2,20457
2083,97382;2,20423
2081,92267;2,20264
2079,87151;2,20103
2077,82036;2,20042
2075,7692;2,19958
2073,71805;2,19941
2071,66689;2,20114
2069,61574;2,20285
2067,56458;2,20387
2065,51343;2,20545
2063,46227;2,20705
2061,41111;2,20751
2059,35996;2,20705
2057,3088;2,20604
2055,25765;2,20478
2053,20649;2,20369
2051,15534;2,20323
2049,10418;2,20389
2047,05303;2,20592
2045,00187;2,20907
2042,95072;2,21113
2040,89956;2,21013
2038,84841;2,20826
2036,79725;2,20741
2034,7461;2,20651
2032,69494;2,20507
2030,64378;2,20443
2028,59263;2,20547
2026,54147;2,20732
2024,49032;2,20883
2022,43916;2,2094
2020,38801;2,20821
2018,33685;2,20604
2016,2857;2,20531
2014,23454;2,20669
2012,18339;2,20892
2010,13223;2,21051
2008,08108;2,2115
2006,02992;2,21199
2003,97877;2,21098
2001,92761;2,2101
1999,87645;2,2108
1997,8253;2,21159
1995,77414;2,21163
1993,72299;2,211
1991,67183;2,21013
1989,62068;2,20981
1987,56952;2,21016
1985,51837;2,21111
1983,46721;2,21217
1981,41606;2,2132
1979,3649;2,21357
1977,31375;2,21342
1975,26259;2,21385
1973,21144;2,21468
1971,16028;2,21626
1969,10912;2,21916
1967,05797;2,22263
1965,00681;2,22729
1962,95566;2,23208
1960,9045;2,23267
1958,85335;2,22862
1956,80219;2,22432
1954,75104;2,22263
1952,69988;2,22314
1950,64873;2,22428
1948,59757;2,22555
1946,54642;2,22683
1944,49526;2,2273
1942,44411;2,22684
1940,39295;2,22695
1938,34179;2,22742
1936,29064;2,22723
1934,23948;2,22704
1932,18833;2,22816
1930,13717;2,2298
1928,08602;2,23152
1926,03486;2,23437
1923,98371;2,23716
1921,93255;2,23971
1919,8814;2,24203
1917,83024;2,24335
1915,77909;2,24454
1913,72793;2,24465
1911,67678;2,244
1909,62562;2,24444
1907,57446;2,24646
1905,52331;2,24858
1903,47215;2,24944
1901,421;2,24953
1899,36984;2,25061
1897,31869;2,25225
1895,26753;2,25259
1893,21638;2,2527
1891,16522;2,25381
1889,11407;2,25648
1887,06291;2,25968
1885,01176;2,26092
1882,9606;2,26164
1880,90945;2,26319
1878,85829;2,26419
1876,80713;2,2649
1874,75598;2,26684
1872,70482;2,26939
1870,65367;2,27002
1868,60251;2,27055
1866,55136;2,27427
1864,5002;2,27747
1862,44905;2,27793
1860,39789;2,27848
1858,34674;2,28044
1856,29558;2,28231
1854,24443;2,28394
1852,19327;2,28682
1850,14212;2,2906
1848,09096;2,29398
1846,0398;2,29636
1843,98865;2,29853
1841,93749;2,30171
1839,88634;2,30352
1837,83518;2,30345
1835,78403;2,3044
1833,73287;2,30795
1831,68172;2,31313
1829,63056;2,31971
1827,57941;2,32653
1825,52825;2,33053
1823,4771;2,33367
1821,42594;2,33808
1819,37478;2,34285
1817,32363;2,34732
1815,27247;2,35303
1813,22132;2,36145
1811,17016;2,37229
1809,11901;2,38541
1807,06785;2,39905
1805,0167;2,41154
1802,96554;2,42493
1800,91439;2,44179
1798,86323;2,45853
1796,81208;2,46918
1794,76092;2,47407
1792,70977;2,47495
1790,65861;2,47144
1788,60745;2,46462
1786,5563;2,45773
1784,50514;2,45316
1782,45399;2,44967
1780,40283;2,4453
1778,35168;2,44112
1776,30052;2,43891
1774,24937;2,43907
1772,19821;2,44218
1770,14706;2,44821
1768,0959;2,45362
1766,04475;2,45836
1763,99359;2,46275
1761,94244;2,46757
1759,89128;2,47683
1757,84012;2,48926
1755,78897;2,50061
1753,73781;2,50964
1751,68666;2,52006
1749,6355;2,53457
1747,58435;2,54846
1745,53319;2,55834
1743,48204;2,56331
1741,43088;2,56598
1739,37973;2,57246
1737,32857;2,58293
1735,27742;2,59324
1733,22626;2,6058
1731,17511;2,61818
1729,12395;2,62681
1727,07279;2,63669
1725,02164;2,64848
1722,97048;2,65872
1720,91933;2,667
1718,86817;2,67707
1716,81702;2,69457
1714,76586;2,71511
1712,71471;2,7317
1710,66355;2,74632
1708,6124;2,76226
1706,56124;2,77882
1704,51009;2,79405
1702,45893;2,80793
1700,40778;2,82488
1698,35662;2,84704
1696,30546;2,86754
1694,25431;2,88255
1692,20315;2,88713
1690,152;2,88634
1688,10084;2,88816
1686,04969;2,89179
1683,99853;2,89848
1681,94738;2,90608
1679,89622;2,90408
1677,84507;2,89373
1675,79391;2,88507
1673,74276;2,88298
1671,6916;2,87808
1669,64045;2,87087
1667,58929;2,87081
1665,53813;2,8721
1663,48698;2,86987
1661,43582;2,8659
1659,38467;2,85952
1657,33351;2,85427
1655,28236;2,85397
1653,2312;2,85175
1651,18005;2,84053
1649,12889;2,82577
1647,07774;2,81745
1645,02658;2,82101
1642,97543;2,82576
1640,92427;2,82474
1638,87312;2,82163
1636,82196;2,81934
1634,7708;2,81972
1632,71965;2,82256
1630,66849;2,82715
1628,61734;2,8346
1626,56618;2,84136
1624,51503;2,84424
1622,46387;2,84933
1620,41272;2,85773
1618,36156;2,86072
1616,31041;2,85656
1614,25925;2,85324
1612,2081;2,85402
1610,15694;2,85457
1608,10579;2,85442
1606,05463;2,85648
1604,00347;2,85904
1601,95232;2,86042
1599,90116;2,86301
1597,85001;2,87023
1595,79885;2,87872
1593,7477;2,87992
1591,69654;2,87538
1589,64539;2,87422
1587,59423;2,87615
1585,54308;2,87374
1583,49192;2,86829
1581,44077;2,86695
1579,38961;2,86805
1577,33846;2,86628
1575,2873;2,86659
1573,23614;2,87051
1571,18499;2,8691
1569,13383;2,86336
1567,08268;2,8599
1565,03152;2,86026
1562,98037;2,86316
1560,92921;2,8589
1558,87806;2,84502
1556,8269;2,83839
1554,77575;2,83966
1552,72459;2,84064
1550,67344;2,83745
1548,62228;2,83258
1546,57113;2,82714
1544,51997;2,81709
1542,46881;2,806
1540,41766;2,8043
1538,3665;2,81104
1536,31535;2,81225
1534,26419;2,8051
1532,21304;2,79897
1530,16188;2,8006
1528,11073;2,80937
1526,05957;2,8198
1524,00842;2,81993
1521,95726;2,80474
1519,90611;2,79196
1517,85495;2,79323
1515,80379;2,80058
1513,75264;2,80364
1511,70148;2,79683
1509,65033;2,78255
1507,59917;2,76949
1505,54802;2,7694
1503,49686;2,77687
1501,44571;2,78028
1499,39455;2,7782
1497,3434;2,77451
1495,29224;2,77649
1493,24109;2,78418
1491,18993;2,78926
1489,13878;2,78796
1487,08762;2,78339
1485,03646;2,78217
1482,98531;2,78893
1480,93415;2,80207
1478,883;2,81729
1476,83184;2,83638
1474,78069;2,85731
1472,72953;2,8723
1470,67838;2,88849
1468,62722;2,90813
1466,57607;2,91942
1464,52491;2,92087
1462,47376;2,92588
1460,4226;2,93797
1458,37145;2,94394
1456,32029;2,93476
1454,26913;2,92279
1452,21798;2,9139
1450,16682;2,90415
1448,11567;2,89332
1446,06451;2,88564
1444,01336;2,88032
1441,9622;2,87594
1439,91105;2,87456
1437,85989;2,87215
1435,80874;2,8686
1433,75758;2,86469
1431,70643;2,85255
1429,65527;2,83658
1427,60412;2,82726
1425,55296;2,82147
1423,5018;2,81334
1421,45065;2,80317
1419,39949;2,79436
1417,34834;2,79231
1415,29718;2,7959
1413,24603;2,80117
1411,19487;2,80648
1409,14372;2,81192
1407,09256;2,81426
1405,04141;2,81232
1402,99025;2,81353
1400,9391;2,81797
1398,88794;2,81896
1396,83679;2,8179
1394,78563;2,81989
1392,73447;2,82656
1390,68332;2,83707
1388,63216;2,85333
1386,58101;2,8746
1384,52985;2,89042
1382,4787;2,8976
1380,42754;2,90336
1378,37639;2,90756
1376,32523;2,90435
1374,27408;2,89224
1372,22292;2,88097
1370,17177;2,881
1368,12061;2,88642
1366,06946;2,88631
1364,0183;2,88312
1361,96714;2,88096
1359,91599;2,87592
1357,86483;2,86387
1355,81368;2,84735
1353,76252;2,83668
1351,71137;2,83553
1349,66021;2,83796
1347,60906;2,84305
1345,5579;2,8471
1343,50675;2,84354
1341,45559;2,83989
1339,40444;2,84306
1337,35328;2,84657
1335,30213;2,84559
1333,25097;2,84116
1331,19981;2,83481
1329,14866;2,8282
1327,0975;2,82537
1325,04635;2,82682
1322,99519;2,82846
1320,94404;2,83111
1318,89288;2,83392
1316,84173;2,8318
1314,79057;2,82872
1312,73942;2,83155
1310,68826;2,8382
1308,63711;2,83844
1306,58595;2,82897
1304,5348;2,82187
1302,48364;2,8244
1300,43248;2,82993
1298,38133;2,83103
1296,33017;2,82489
1294,27902;2,81466
1292,22786;2,80747
1290,17671;2,8087
1288,12555;2,81689
1286,0744;2,82442
1284,02324;2,82985
1281,97209;2,83468
1279,92093;2,83553
1277,86978;2,8315
1275,81862;2,82652
1273,76747;2,82656
1271,71631;2,83114
1269,66515;2,82959
1267,614;2,8196
1265,56284;2,81318
1263,51169;2,81461
1261,46053;2,81965
1259,40938;2,8226
1257,35822;2,82142
1255,30707;2,82405
1253,25591;2,8295
1251,20476;2,82941
1249,1536;2,82417
1247,10245;2,81849
1245,05129;2,8197
1243,00013;2,82786
1240,94898;2,83361
1238,89782;2,82983
1236,84667;2,81755
1234,79551;2,80581
1232,74436;2,80171
1230,6932;2,80036
1228,64205;2,79648
1226,59089;2,79596
1224,53974;2,80001
1222,48858;2,802
1220,43743;2,80007
1218,38627;2,79627
1216,33512;2,79233
1214,28396;2,78684
1212,2328;2,78287
1210,18165;2,78755
1208,13049;2,79634
1206,07934;2,7989
1204,02818;2,79447
1201,97703;2,78843
1199,92587;2,7844
1197,87472;2,78345
1195,82356;2,78469
1193,77241;2,78792
1191,72125;2,79123
1189,6701;2,79016
1187,61894;2,78764
1185,56779;2,78663
1183,51663;2,78289
1181,46547;2,77968
1179,41432;2,78116
1177,36316;2,78533
1175,31201;2,78836
1173,26085;2,78593
1171,2097;2,78297
1169,15854;2,78524
1167,10739;2,78701
1165,05623;2,7832
1163,00508;2,78122
1160,95392;2,78284
1158,90277;2,77439
1156,85161;2,7611
1154,80046;2,76177
1152,7493;2,76642
1150,69814;2,76297
1148,64699;2,75968
1146,59583;2,75763
1144,54468;2,75391
1142,49352;2,74773
1140,44237;2,73984
1138,39121;2,73812
1136,34006;2,74358
1134,2889;2,74619
1132,23775;2,74819
1130,18659;2,75697
1128,13544;2,76631
1126,08428;2,7684
1124,03313;2,76322
1121,98197;2,76237
1119,93081;2,77101
1117,87966;2,7757
1115,8285;2,77242
1113,77735;2,76661
1111,72619;2,75591
1109,67504;2,74414
1107,62388;2,74065
1105,57273;2,74421
1103,52157;2,75194
1101,47042;2,76298
1099,41926;2,77087
1097,36811;2,77145
1095,31695;2,76347
1093,2658;2,75066
1091,21464;2,74987
1089,16348;2,75995
1087,11233;2,76198
1085,06117;2,75879
1083,01002;2,75856
1080,95886;2,75782
1078,90771;2,75464
1076,85655;2,75254
1074,8054;2,75563
1072,75424;2,75965
1070,70309;2,75839
1068,65193;2,75242
1066,60078;2,7428
1064,54962;2,73109
1062,49847;2,72797
1060,44731;2,73579
1058,39615;2,73895
1056,345;2,73354
1054,29384;2,7272
1052,24269;2,7243
1050,19153;2,72837
1048,14038;2,73439
1046,08922;2,73726
1044,03807;2,73903
1041,98691;2,7388
1039,93576;2,7336
1037,8846;2,72758
1035,83345;2,72808
1033,78229;2,73153
1031,73114;2,73178
1029,67998;2,73164
1027,62882;2,72859
1025,57767;2,71954
1023,52651;2,71582
1021,47536;2,71861
1019,4242;2,72076
1017,37305;2,72349
1015,32189;2,7239
1013,27074;2,71814
1011,21958;2,71231
1009,16843;2,70938
1007,11727;2,71166
1005,06612;2,72126
1003,01496;2,72615
1000,96381;2,72505
998,91265;2,72499
996,86149;2,72331
994,81034;2,7194
992,75918;2,71055
990,70803;2,69952
988,65687;2,697
986,60572;2,69925
984,55456;2,69303
982,50341;2,68519
980,45225;2,68781
978,4011;2,69508
976,34994;2,69702
974,29879;2,68973
972,24763;2,6808
970,19647;2,67809
968,14532;2,67456
966,09416;2,66559
964,04301;2,65778
961,99185;2,65591
959,9407;2,6603
957,88954;2,66502
955,83839;2,66194
953,78723;2,65657
951,73608;2,65774
949,68492;2,66395
947,63377;2,66838
945,58261;2,66783
943,53146;2,66464
941,4803;2,66238
939,42914;2,66549
937,37799;2,67221
935,32683;2,67241
933,27568;2,66843
931,22452;2,66488
929,17337;2,65711
927,12221;2,64707
925,07106;2,63995
923,0199;2,63989
920,96875;2,64557
918,91759;2,64735
916,86644;2,64693
914,81528;2,65054
912,76413;2,65134
910,71297;2,64927
908,66181;2,65415
906,61066;2,66333
904,5595;2,66336
902,50835;2,65348
900,45719;2,64283
898,40604;2,63786
896,35488;2,64177
894,30373;2,64964
892,25257;2,65492
890,20142;2,65084
888,15026;2,64262
886,09911;2,65154
884,04795;2,67683
881,9968;2,69276
879,94564;2,6963
877,89448;2,70075
875,84333;2,69828
873,79217;2,69215
871,74102;2,70267
869,68986;2,72354
867,63871;2,73481
865,58755;2,73635
863,5364;2,73626
861,48524;2,73867
859,43409;2,74407
857,38293;2,74824
855,33178;2,74756
853,28062;2,73872
851,22947;2,73023
849,17831;2,73408
847,12715;2,74011
845,076;2,73508
843,02484;2,72346
840,97369;2,71321
838,92253;2,70835
836,87138;2,7113
834,82022;2,71929
832,76907;2,72163
830,71791;2,71936
828,66676;2,72104
826,6156;2,72624
824,56445;2,73794
822,51329;2,74915
820,46214;2,743
818,41098;2,73586
816,35982;2,74713
814,30867;2,75868
812,25751;2,75671
810,20636;2,75093
808,1552;2,74964
806,10405;2,76503
804,05289;2,79334
802,00174;2,80159
799,95058;2,7859
797,89943;2,77504
795,84827;2,76985
793,79712;2,75879
791,74596;2,75624
789,69481;2,77086
787,64365;2,78626
785,59249;2,79557
783,54134;2,79225
781,49018;2,77447
779,43903;2,76661
777,38787;2,78385
775,33672;2,80703
773,28556;2,81024
771,23441;2,80612
769,18325;2,81255
767,1321;2,80885
765,08094;2,79055
763,02979;2,7786
760,97863;2,77255
758,92748;2,76713
756,87632;2,76963
754,82516;2,78375
752,77401;2,79489
750,72285;2,78844
748,6717;2,7807
746,62054;2,78816
744,56939;2,80298
742,51823;2,81253
740,46708;2,81131
738,41592;2,80329
736,36477;2,7958
734,31361;2,79193
732,26246;2,79919
730,2113;2,82503
728,16015;2,8506
726,10899;2,84883
724,05783;2,83241
722,00668;2,81673
719,95552;2,80087
717,90437;2,79379
715,85321;2,80648
713,80206;2,81513
711,7509;2,79836
709,69975;2,7889
707,64859;2,80187
705,59744;2,81233
703,54628;2,81617
701,49513;2,8213
699,44397;2,81806
697,39281;2,80302
695,34166;2,79479
693,2905;2,80293
691,23935;2,81477
689,18819;2,82146
687,13704;2,819
685,08588;2,80868
683,03473;2,80592
680,98357;2,8192
678,93242;2,83485
676,88126;2,8368
674,83011;2,83374
672,77895;2,83657
670,7278;2,81648
668,67664;2,76958
666,62548;2,75709
664,57433;2,78438
662,52317;2,80411
660,47202;2,81163
658,42086;2,81571
656,36971;2,80482
654,31855;2,77821
652,2674;2,75455
650,21624;2,74564
648,16509;2,74978
646,11393;2,76596
644,06278;2,78807
642,01162;2,79911
639,96047;2,79373
637,90931;2,78981
635,85815;2,79946
633,807;2,81169
631,75584;2,81477
629,70469;2,80046
627,65353;2,77486
625,60238;2,78118
623,55122;2,80885
621,50007;2,79619
619,44891;2,75539
617,39776;2,74689
615,3466;2,7774
613,29545;2,80569
611,24429;2,8129
609,19314;2,80467
607,14198;2,78393
605,09082;2,77646
603,03967;2,79062
600,98851;2,79514
598,93736;2,79807
596,8862;2,82429
594,83505;2,84466
592,78389;2,83024
590,73274;2,80838
588,68158;2,78658
586,63043;2,78426
584,57927;2,81388
582,52812;2,83497
580,47696;2,84136
578,42581;2,85639
576,37465;2,84914
574,32349;2,82375
572,27234;2,80951
570,22118;2,80855
568,17003;2,80338
566,11887;2,78513
564,06772;2,78638
562,01656;2,81469
559,96541;2,82015
557,91425;2,80958
555,8631;2,81134
553,81194;2,80053
551,76079;2,77303
549,70963;2,76133
547,65848;2,76709
545,60732;2,77051
543,55616;2,76797
541,50501;2,76657
539,45385;2,75953
537,4027;2,74599
535,35154;2,74786
533,30039;2,75928
531,24923;2,76657
529,19808;2,788
527,14692;2,81856
525,09577;2,82382
523,04461;2,80565
520,99346;2,81572
518,9423;2,87045
516,89115;2,90731
514,83999;2,89271
512,78883;2,84356
510,73768;2,77394
508,68652;2,72562
506,63537;2,72483
504,58421;2,7597
502,53306;2,79472
500,4819;2,79841
498,43075;2,79373
496,37959;2,80257
494,32844;2,7963
492,27728;2,78303
490,22613;2,80369
488,17497;2,84076
486,12382;2,83024
484,07266;2,76272
482,0215;2,72739
479,97035;2,75422
477,91919;2,78769
475,86804;2,77797
473,81688;2,74407
471,76573;2,73655
469,71457;2,75832
467,66342;2,77594
465,61226;2,79725
463,56111;2,8317
461,50995;2,85284
459,4588;2,86965
457,40764;2,88379
455,35649;2,85929
453,30533;2,7977
451,25417;2,73108
449,20302;2,70822
447,15186;2,775
445,10071;2,88169
443,04955;2,92643
440,9984;2,87989
438,94724;2,81945
436,89609;2,79215
434,84493;2,78398
432,79378;2,75626
430,74262;2,7107
428,69147;2,68126
426,64031;2,6857
424,58916;2,67533
422,538;2,61275
420,48684;2,55483
418,43569;2,57216
416,38453;2,69279
414,33338;2,86116
412,28222;2,98964
410,23107;2,99191
408,17991;2,84269
406,12876;2,72087
404,0776;2,64578
402,02645;2,60974
399,97529;2,65191
