3997,70175;2,01558
3995,6506;2,01472
3993,59944;2,01215
3991,54829;2,00921
3989,49713;2,00787
3987,44598;2,0067
3985,39482;2,00568
3983,34367;2,00591
3981,29251;2,00646
3979,24136;2,00634
3977,1902;2,00621
3975,13905;2,00765
3973,08789;2,00934
3971,03673;2,00892
3968,98558;2,00734
3966,93442;2,00708
3964,88327;2,00835
3962,83211;2,00922
3960,78096;2,0098
3958,7298;2,01121
3956,67865;2,01331
3954,62749;2,01523
3952,57634;2,01592
3950,52518;2,01559
3948,47403;2,0151
3946,42287;2,0148
3944,37172;2,01361
3942,32056;2,01144
3940,2694;2,00958
3938,21825;2,00901
3936,16709;2,00947
3934,11594;2,00798
3932,06478;2,00452
3930,01363;2,00188
3927,96247;1,99995
3925,91132;1,99788
3923,86016;1,99692
3921,80901;1,9966
3919,75785;1,99493
3917,7067;1,99162
3915,65554;1,98769
3913,60439;1,98353
3911,55323;1,97958
3909,50207;1,97719
3907,45092;1,97545
3905,39976;1,97388
3903,34861;1,97473
3901,29745;1,97586
3899,2463;1,97329
3897,19514;1,97024
3895,14399;1,96795
3893,09283;1,96415
3891,04168;1,96199
3888,99052;1,96432
3886,93937;1,96455
3884,88821;1,96318
3882,83706;1,96119
3880,7859;1,95667
3878,73474;1,95662
3876,68359;1,95964
3874,63243;1,96087
3872,58128;1,96083
3870,53012;1,95745
3868,47897;1,95561
3866,42781;1,95527
3864,37666;1,9534
3862,3255;1,95201
3860,27435;1,9511
3858,22319;1,95075
3856,17204;1,94879
3854,12088;1,94539
3852,06973;1,94649
3850,01857;1,94727
3847,96741;1,94414
3845,91626;1,94183
3843,8651;1,94291
3841,81395;1,94517
3839,76279;1,94476
3837,71164;1,94343
3835,66048;1,94291
3833,60933;1,94062
3831,55817;1,93828
3829,50702;1,93766
3827,45586;1,93713
3825,40471;1,9388
3823,35355;1,93961
3821,3024;1,93763
3819,25124;1,93816
3817,20008;1,93522
3815,14893;1,93111
3813,09777;1,93148
3811,04662;1,93307
3808,99546;1,93426
3806,94431;1,93597
3804,89315;1,93858
3802,842;1,93523
3800,79084;1,93174
3798,73969;1,93379
3796,68853;1,93358
3794,63738;1,93211
3792,58622;1,93109
3790,53506;1,93012
3788,48391;1,92919
3786,43275;1,92755
3784,3816;1,92682
3782,33044;1,92777
3780,27929;1,92689
3778,22813;1,92476
3776,17698;1,9239
3774,12582;1,9253
3772,07467;1,92802
3770,02351;1,93014
3767,97236;1,93169
3765,9212;1,93141
3763,87005;1,93148
3761,81889;1,93138
3759,76773;1,92991
3757,71658;1,92959
3755,66542;1,93044
3753,61427;1,93045
3751,56311;1,93174
3749,51196;1,93773
3747,4608;1,94245
3745,40965;1,93876
3743,35849;1,93778
3741,30734;1,94348
3739,25618;1,94748
3737,20503;1,94846
3735,15387;1,94674
3733,10272;1,94384
3731,05156;1,94367
3729,0004;1,9462
3726,94925;1,94823
3724,89809;1,95118
3722,84694;1,95397
3720,79578;1,95525
3718,74463;1,95604
3716,69347;1,95829
3714,64232;1,96134
3712,59116;1,96394
3710,54001;1,9686
3708,48885;1,97487
3706,4377;1,98106
3704,38654;1,98872
3702,33539;2,00009
3700,28423;2,0166
3698,23307;2,03433
3696,18192;2,04902
3694,13076;2,05962
3692,07961;2,06394
3690,02845;2,06149
3687,9773;2,05886
3685,92614;2,06235
3683,87499;2,06922
3681,82383;2,07853
3679,77268;2,08998
3677,72152;2,09956
3675,67037;2,10763
3673,61921;2,12034
3671,56806;2,12915
3669,5169;2,1345
3667,46574;2,14414
3665,41459;2,15455
3663,36343;2,16565
3661,31228;2,17894
3659,26112;2,19158
3657,20997;2,20108
3655,15881;2,21149
3653,10766;2,22285
3651,0565;2,23285
3649,00535;2,24507
3646,95419;2,25815
3644,90304;2,27144
3642,85188;2,28534
3640,80073;2,29769
3638,74957;2,30493
3636,69841;2,30941
3634,64726;2,31809
3632,5961;2,33223
3630,54495;2,34548
3628,49379;2,35882
3626,44264;2,37446
3624,39148;2,38421
3622,34033;2,3864
3620,28917;2,38646
3618,23802;2,39333
3616,18686;2,40765
3614,13571;2,4197
3612,08455;2,42473
3610,0334;2,42433
3607,98224;2,42265
3605,93108;2,42499
3603,87993;2,43217
3601,82877;2,44218
3599,77762;2,45343
3597,72646;2,46471
3595,67531;2,47558
3593,62415;2,485
3591,573;2,48913
3589,52184;2,48676
3587,47069;2,48576
3585,41953;2,49465
3583,36838;2,50797
3581,31722;2,51609
3579,26607;2,51856
3577,21491;2,52124
3575,16375;2,52546
3573,1126;2,52735
3571,06144;2,52929
3569,01029;2,53796
3566,95913;2,55266
3564,90798;2,56541
3562,85682;2,57362
3560,80567;2,57865
3558,75451;2,57952
3556,70336;2,57725
3554,6522;2,57422
3552,60105;2,57467
3550,54989;2,58226
3548,49874;2,59362
3546,44758;2,60278
3544,39642;2,60635
3542,34527;2,60433
3540,29411;2,6009
3538,24296;2,60138
3536,1918;2,60559
3534,14065;2,60944
3532,08949;2,61459
3530,03834;2,62389
3527,98718;2,63394
3525,93603;2,64047
3523,88487;2,64186
3521,83372;2,6416
3519,78256;2,64663
3517,73141;2,65613
3515,68025;2,66315
3513,62909;2,66723
3511,57794;2,66941
3509,52678;2,66888
3507,47563;2,67142
3505,42447;2,67865
3503,37332;2,68134
3501,32216;2,67939
3499,27101;2,68126
3497,21985;2,68548
3495,1687;2,68886
3493,11754;2,69347
3491,06639;2,70247
3489,01523;2,7133
3486,96407;2,71702
3484,91292;2,71391
3482,86176;2,71385
3480,81061;2,72126
3478,75945;2,72982
3476,7083;2,73337
3474,65714;2,73691
3472,60599;2,74298
3470,55483;2,74434
3468,50368;2,74534
3466,45252;2,74611
3464,40137;2,7387
3462,35021;2,73774
3460,29906;2,75121
3458,2479;2,76285
3456,19674;2,76125
3454,14559;2,75202
3452,09443;2,75031
3450,04328;2,76075
3447,99212;2,77367
3445,94097;2,78108
3443,88981;2,78194
3441,83866;2,78086
3439,7875;2,78431
3437,73635;2,78918
3435,68519;2,7869
3433,63404;2,78457
3431,58288;2,79863
3429,53173;2,81307
3427,48057;2,79984
3425,42941;2,77779
3423,37826;2,77296
3421,3271;2,7753
3419,27595;2,77301
3417,22479;2,77636
3415,17364;2,7887
3413,12248;2,79299
3411,07133;2,78454
3409,02017;2,78375
3406,96902;2,79467
3404,91786;2,79864
3402,86671;2,79428
3400,81555;2,79156
3398,7644;2,78432
3396,71324;2,77464
3394,66208;2,7756
3392,61093;2,78815
3390,55977;2,80045
3388,50862;2,8053
3386,45746;2,80907
3384,40631;2,81363
3382,35515;2,80959
3380,304;2,80041
3378,25284;2,80056
3376,20169;2,80855
3374,15053;2,8121
3372,09938;2,81349
3370,04822;2,82485
3367,99707;2,83538
3365,94591;2,82892
3363,89475;2,8145
3361,8436;2,80474
3359,79244;2,80684
3357,74129;2,81661
3355,69013;2,82066
3353,63898;2,81873
3351,58782;2,82095
3349,53667;2,8298
3347,48551;2,83664
3345,43436;2,83582
3343,3832;2,82901
3341,33205;2,82038
3339,28089;2,81694
3337,22974;2,82296
3335,17858;2,83852
3333,12742;2,85253
3331,07627;2,8496
3329,02511;2,83873
3326,97396;2,8366
3324,9228;2,83749
3322,87165;2,83193
3320,82049;2,82991
3318,76934;2,84171
3316,71818;2,85438
3314,66703;2,85294
3312,61587;2,84226
3310,56472;2,8316
3308,51356;2,82935
3306,46241;2,83492
3304,41125;2,83693
3302,36009;2,83889
3300,30894;2,84771
3298,25778;2,85384
3296,20663;2,8558
3294,15547;2,85989
3292,10432;2,86472
3290,05316;2,86585
3288,00201;2,85592
3285,95085;2,83868
3283,8997;2,8277
3281,84854;2,83042
3279,79739;2,84369
3277,74623;2,852
3275,69508;2,84886
3273,64392;2,84218
3271,59276;2,83069
3269,54161;2,81832
3267,49045;2,81847
3265,4393;2,8259
3263,38814;2,82865
3261,33699;2,82648
3259,28583;2,82292
3257,23468;2,82042
3255,18352;2,82045
3253,13237;2,82179
3251,08121;2,82502
3249,03006;2,82981
3246,9789;2,82791
3244,92775;2,81578
3242,87659;2,80618
3240,82543;2,81079
3238,77428;2,81959
3236,72312;2,81973
3234,67197;2,81608
3232,62081;2,81365
3230,56966;2,80843
3228,5185;2,80327
3226,46735;2,80852
3224,41619;2,81704
3222,36504;2,81493
3220,31388;2,81026
3218,26273;2,81532
3216,21157;2,82523
3214,16041;2,82657
3212,10926;2,81745
3210,0581;2,81184
3208,00695;2,81749
3205,95579;2,82113
3203,90464;2,81252
3201,85348;2,80623
3199,80233;2,8075
3197,75117;2,80273
3195,70002;2,79677
3193,64886;2,79711
3191,59771;2,79403
3189,54655;2,78965
3187,4954;2,79272
3185,44424;2,7994
3183,39308;2,80199
3181,34193;2,80057
3179,29077;2,80413
3177,23962;2,81183
3175,18846;2,81038
3173,13731;2,80405
3171,08615;2,80191
3169,035;2,7971
3166,98384;2,7904
3164,93269;2,78809
3162,88153;2,78865
3160,83038;2,78826
3158,77922;2,78405
3156,72807;2,77863
3154,67691;2,77669
3152,62575;2,77214
3150,5746;2,76028
3148,52344;2,75525
3146,47229;2,76017
3144,42113;2,76382
3142,36998;2,76787
3140,31882;2,77073
3138,26767;2,76612
3136,21651;2,76044
3134,16536;2,76133
3132,1142;2,76318
3130,06305;2,75515
3128,01189;2,74523
3125,96074;2,74538
3123,90958;2,75519
3121,85842;2,76917
3119,80727;2,77535
3117,75611;2,77144
3115,70496;2,76986
3113,6538;2,76865
3111,60265;2,76233
3109,55149;2,76107
3107,50034;2,76493
3105,44918;2,76395
3103,39803;2,75978
3101,34687;2,75585
3099,29572;2,75407
3097,24456;2,75858
3095,19341;2,76841
3093,14225;2,7769
3091,09109;2,77955
3089,03994;2,77825
3086,98878;2,77671
3084,93763;2,77555
3082,88647;2,77304
3080,83532;2,77014
3078,78416;2,76604
3076,73301;2,76039
3074,68185;2,75862
3072,6307;2,75975
3070,57954;2,76309
3068,52839;2,77472
3066,47723;2,78716
3064,42608;2,78551
3062,37492;2,77602
3060,32376;2,77256
3058,27261;2,77283
3056,22145;2,77533
3054,1703;2,77934
3052,11914;2,7781
3050,06799;2,77679
3048,01683;2,77927
3045,96568;2,7803
3043,91452;2,77986
3041,86337;2,7826
3039,81221;2,78988
3037,76106;2,79594
3035,7099;2,79471
3033,65875;2,79157
3031,60759;2,79138
3029,55643;2,79182
3027,50528;2,79411
3025,45412;2,80177
3023,40297;2,81102
3021,35181;2,81451
3019,30066;2,81452
3017,2495;2,81841
3015,19835;2,82529
3013,14719;2,8287
3011,09604;2,83311
3009,04488;2,84273
3006,99373;2,84926
3004,94257;2,84972
3002,89142;2,85154
3000,84026;2,85738
2998,7891;2,86297
2996,73795;2,86626
2994,68679;2,87214
2992,63564;2,88173
2990,58448;2,89139
2988,53333;2,89811
2986,48217;2,90611
2984,43102;2,91872
2982,37986;2,92973
2980,32871;2,93367
2978,27755;2,93042
2976,2264;2,93144
2974,17524;2,94864
2972,12409;2,97015
2970,07293;2,97407
2968,02177;2,96817
2965,97062;2,97488
2963,91946;2,98901
2961,86831;2,99588
2959,81715;2,99437
2957,766;2,98878
2955,71484;2,97674
2953,66369;2,96409
2951,61253;2,95894
2949,56138;2,95062
2947,51022;2,94108
2945,45907;2,95241
2943,40791;2,97904
2941,35675;2,99437
2939,3056;2,99241
2937,25444;2,97579
2935,20329;2,94879
2933,15213;2,93129
2931,10098;2,93078
2929,04982;2,93472
2926,99867;2,92409
2924,94751;2,89528
2922,89636;2,87235
2920,8452;2,86905
2918,79405;2,86847
2916,74289;2,86279
2914,69174;2,86638
2912,64058;2,87854
2910,58942;2,88498
2908,53827;2,88652
2906,48711;2,88787
2904,43596;2,88065
2902,3848;2,86507
2900,33365;2,85928
2898,28249;2,86715
2896,23134;2,86946
2894,18018;2,86355
2892,12903;2,86631
2890,07787;2,87834
2888,02672;2,88751
2885,97556;2,89327
2883,92441;2,89703
2881,87325;2,89639
2879,82209;2,89895
2877,77094;2,90675
2875,71978;2,91043
2873,66863;2,91114
2871,61747;2,91301
2869,56632;2,90929
2867,51516;2,90477
2865,46401;2,90775
2863,41285;2,91234
2861,3617;2,90916
2859,31054;2,90148
2857,25939;2,88943
2855,20823;2,86744
2853,15708;2,852
2851,10592;2,85592
2849,05476;2,86863
2847,00361;2,87919
2844,95245;2,88553
2842,9013;2,88159
2840,85014;2,86479
2838,79899;2,84832
2836,74783;2,84404
2834,69668;2,84258
2832,64552;2,8297
2830,59437;2,80918
2828,54321;2,79112
2826,49206;2,78449
2824,4409;2,78768
2822,38975;2,78671
2820,33859;2,77694
2818,28743;2,76292
2816,23628;2,75049
2814,18512;2,74566
2812,13397;2,74298
2810,08281;2,73277
2808,03166;2,71896
2805,9805;2,7069
2803,92935;2,69844
2801,87819;2,69517
2799,82704;2,69082
2797,77588;2,68389
2795,72473;2,6797
2793,67357;2,67418
2791,62242;2,66388
2789,57126;2,65284
2787,5201;2,64385
2785,46895;2,63887
2783,41779;2,63642
2781,36664;2,63157
2779,31548;2,62674
2777,26433;2,625
2775,21317;2,62259
2773,16202;2,61551
2771,11086;2,60741
2769,05971;2,60634
2767,00855;2,60865
2764,9574;2,60482
2762,90624;2,59728
2760,85509;2,59201
2758,80393;2,58966
2756,75277;2,58916
2754,70162;2,59065
2752,65046;2,58999
2750,59931;2,58414
2748,54815;2,57934
2746,497;2,58044
2744,44584;2,58477
2742,39469;2,58872
2740,34353;2,59295
2738,29238;2,59547
2736,24122;2,5911
2734,19007;2,58365
2732,13891;2,58402
2730,08776;2,59219
2728,0366;2,59732
2725,98544;2,59628
2723,93429;2,59488
2721,88313;2,59373
2719,83198;2,59059
2717,78082;2,5863
2715,72967;2,57946
2713,67851;2,57104
2711,62736;2,56457
2709,5762;2,56024
2707,52505;2,55722
2705,47389;2,55494
2703,42274;2,55401
2701,37158;2,5534
2699,32043;2,54935
2697,26927;2,5428
2695,21811;2,53984
2693,16696;2,54087
2691,1158;2,54265
2689,06465;2,54373
2687,01349;2,54263
2684,96234;2,54137
2682,91118;2,54315
2680,86003;2,5442
2678,80887;2,53974
2676,75772;2,53582
2674,70656;2,53717
2672,65541;2,5384
2670,60425;2,53691
2668,55309;2,53535
2666,50194;2,53387
2664,45078;2,53204
2662,39963;2,53034
2660,34847;2,52698
2658,29732;2,5232
2656,24616;2,52157
2654,19501;2,51958
2652,14385;2,51697
2650,0927;2,51495
2648,04154;2,51351
2645,99039;2,51384
2643,93923;2,5135
2641,88808;2,51089
2639,83692;2,5083
2637,78576;2,50755
2635,73461;2,50759
2633,68345;2,50524
2631,6323;2,50363
2629,58114;2,50802
2627,52999;2,5129
2625,47883;2,51228
2623,42768;2,50957
2621,37652;2,50562
2619,32537;2,5019
2617,27421;2,50435
2615,22306;2,50982
2613,1719;2,51054
2611,12075;2,50688
2609,06959;2,50396
2607,01843;2,50383
2604,96728;2,50469
2602,91612;2,50353
2600,86497;2,49982
2598,81381;2,49573
2596,76266;2,49196
2594,7115;2,48944
2592,66035;2,49011
2590,60919;2,49064
2588,55804;2,48595
2586,50688;2,47899
2584,45573;2,47493
2582,40457;2,47482
2580,35342;2,47687
2578,30226;2,47609
2576,2511;2,47096
2574,19995;2,46725
2572,14879;2,46823
2570,09764;2,46949
2568,04648;2,46776
2565,99533;2,46545
2563,94417;2,46259
2561,89302;2,45694
2559,84186;2,45102
2557,79071;2,44897
2555,73955;2,45056
2553,6884;2,45254
2551,63724;2,45281
2549,58609;2,45147
2547,53493;2,44976
2545,48377;2,44958
2543,43262;2,45155
2541,38146;2,45221
2539,33031;2,4501
2537,27915;2,44966
2535,228;2,45178
2533,17684;2,45255
2531,12569;2,45078
2529,07453;2,44884
2527,02338;2,44987
2524,97222;2,45323
2522,92107;2,45446
2520,86991;2,45188
2518,81876;2,44793
2516,7676;2,4455
2514,71644;2,44525
2512,66529;2,44509
2510,61413;2,44432
2508,56298;2,44378
2506,51182;2,44168
2504,46067;2,4368
2502,40951;2,43146
2500,35836;2,42879
2498,3072;2,42627
2496,25605;2,41999
2494,20489;2,41325
2492,15374;2,40833
2490,10258;2,40276
2488,05143;2,39654
2486,00027;2,39122
2483,94911;2,38685
2481,89796;2,38401
2479,8468;2,38169
2477,79565;2,37765
2475,74449;2,37306
2473,69334;2,3683
2471,64218;2,36255
2469,59103;2,35769
2467,53987;2,35505
2465,48872;2,35245
2463,43756;2,34762
2461,38641;2,34308
2459,33525;2,34041
2457,2841;2,33618
2455,23294;2,32972
2453,18178;2,32417
2451,13063;2,32111
2449,07947;2,31934
2447,02832;2,31707
2444,97716;2,31467
2442,92601;2,31308
2440,87485;2,31136
2438,8237;2,30911
2436,77254;2,30757
2434,72139;2,30558
2432,67023;2,30337
2430,61908;2,3024
2428,56792;2,30084
2426,51677;2,29974
2424,46561;2,29985
2422,41445;2,29743
2420,3633;2,29276
2418,31214;2,28906
2416,26099;2,28658
2414,20983;2,28506
2412,15868;2,28431
2410,10752;2,28422
2408,05637;2,28411
2406,00521;2,28204
2403,95406;2,2798
2401,9029;2,27922
2399,85175;2,27831
2397,80059;2,27659
2395,74944;2,27479
2393,69828;2,27321
2391,64712;2,27141
2389,59597;2,2686
2387,54481;2,2655
2385,49366;2,26477
2383,4425;2,2668
2381,39135;2,26795
2379,34019;2,26687
2377,28904;2,26594
2375,23788;2,26402
2373,18673;2,26026
2371,13557;2,2587
2369,08442;2,25892
2367,03326;2,25834
2364,9821;2,25768
2362,93095;2,25705
2360,87979;2,25732
2358,82864;2,25841
2356,77748;2,2596
2354,72633;2,26072
2352,67517;2,26002
2350,62402;2,25689
2348,57286;2,25338
2346,52171;2,25031
2344,47055;2,24613
2342,4194;2,24198
2340,36824;2,24174
2338,31709;2,2445
2336,26593;2,24757
2334,21477;2,24981
2332,16362;2,24876
2330,11246;2,24539
2328,06131;2,24582
2326,01015;2,25132
2323,959;2,25542
2321,90784;2,2538
2319,85669;2,25002
2317,80553;2,24848
2315,75438;2,24836
2313,70322;2,24741
2311,65207;2,24626
2309,60091;2,24621
2307,54976;2,2462
2305,4986;2,24475
2303,44744;2,24188
2301,39629;2,23914
2299,34513;2,23761
2297,29398;2,23686
2295,24282;2,23613
2293,19167;2,23491
2291,14051;2,23293
2289,08936;2,23007
2287,0382;2,22715
2284,98705;2,226
2282,93589;2,22706
2280,88474;2,2276
2278,83358;2,22525
2276,78243;2,22272
2274,73127;2,22262
2272,68011;2,22321
2270,62896;2,22302
2268,5778;2,22288
2266,52665;2,22278
2264,47549;2,22145
2262,42434;2,21936
2260,37318;2,21782
2258,32203;2,21715
2256,27087;2,218
2254,21972;2,21989
2252,16856;2,22058
2250,11741;2,21986
2248,06625;2,21927
2246,0151;2,21912
2243,96394;2,21954
2241,91278;2,21963
2239,86163;2,22076
2237,81047;2,22122
2235,75932;2,2189
2233,70816;2,21807
2231,65701;2,22045
2229,60585;2,22216
2227,5547;2,22083
2225,50354;2,21902
2223,45239;2,22036
2221,40123;2,22362
2219,35008;2,22477
2217,29892;2,22361
2215,24777;2,22296
2213,19661;2,224
2211,14545;2,22502
2209,0943;2,22537
2207,04314;2,22692
2204,99199;2,22898
2202,94083;2,22959
2200,88968;2,22864
2198,83852;2,22768
2196,78737;2,22832
2194,73621;2,22965
2192,68506;2,23081
2190,6339;2,23236
2188,58275;2,23353
2186,53159;2,23273
2184,48044;2,23104
2182,42928;2,23096
2180,37812;2,23208
2178,32697;2,23214
2176,27581;2,23151
2174,22466;2,23246
2172,1735;2,23469
2170,12235;2,23662
2168,07119;2,23734
2166,02004;2,23651
2163,96888;2,23569
2161,91773;2,23749
2159,86657;2,24181
2157,81542;2,24422
2155,76426;2,24394
2153,71311;2,24487
2151,66195;2,24697
2149,61079;2,2485
2147,55964;2,24999
2145,50848;2,25061
2143,45733;2,24957
2141,40617;2,24899
2139,35502;2,24995
2137,30386;2,2509
2135,25271;2,25053
2133,20155;2,24946
2131,1504;2,24817
2129,09924;2,24697
2127,04809;2,24551
2124,99693;2,24201
2122,94578;2,23735
2120,89462;2,23332
2118,84346;2,23026
2116,79231;2,22832
2114,74115;2,22732
2112,69;2,2259
2110,63884;2,22362
2108,58769;2,22348
2106,53653;2,22554
2104,48538;2,22671
2102,43422;2,22627
2100,38307;2,22529
2098,33191;2,22576
2096,28076;2,22633
2094,2296;2,22426
2092,17844;2,2215
2090,12729;2,22078
2088,07613;2,22083
2086,02498;2,22106
2083,97382;2,22244
2081,92267;2,22359
2079,87151;2,2237
2077,82036;2,22443
2075,7692;2,22506
2073,71805;2,22379
2071,66689;2,22237
2069,61574;2,22305
2067,56458;2,2254
2065,51343;2,2273
2063,46227;2,22828
2061,41111;2,2298
2059,35996;2,23084
2057,3088;2,22918
2055,25765;2,22732
2053,20649;2,22852
2051,15534;2,23119
2049,10418;2,2329
2047,05303;2,23275
2045,00187;2,23082
2042,95072;2,22862
2040,89956;2,22826
2038,84841;2,22986
2036,79725;2,23149
2034,7461;2,23263
2032,69494;2,23338
2030,64378;2,23348
2028,59263;2,23312
2026,54147;2,23218
2024,49032;2,23088
2022,43916;2,23116
2020,38801;2,23256
2018,33685;2,23083
2016,2857;2,2266
2014,23454;2,22461
2012,18339;2,22527
2010,13223;2,22612
2008,08108;2,22547
2006,02992;2,22368
2003,97877;2,22224
2001,92761;2,22186
1999,87645;2,22227
1997,8253;2,22328
1995,77414;2,22387
1993,72299;2,22269
1991,67183;2,22164
1989,62068;2,22299
1987,56952;2,22496
1985,51837;2,22535
1983,46721;2,22385
1981,41606;2,22283
1979,3649;2,22369
1977,31375;2,22557
1975,26259;2,22668
1973,21144;2,22673
1971,16028;2,22745
1969,10912;2,22914
1967,05797;2,23134
1965,00681;2,23397
1962,95566;2,23628
1960,9045;2,23857
1958,85335;2,23985
1956,80219;2,23868
1954,75104;2,23642
1952,69988;2,23479
1950,64873;2,23426
1948,59757;2,23551
1946,54642;2,23837
1944,49526;2,23989
1942,44411;2,23852
1940,39295;2,23718
1938,34179;2,23721
1936,29064;2,23864
1934,23948;2,24076
1932,18833;2,24221
1930,13717;2,24276
1928,08602;2,24369
1926,03486;2,24611
1923,98371;2,24914
1921,93255;2,25247
1919,8814;2,25314
1917,83024;2,25166
1915,77909;2,25372
1913,72793;2,25686
1911,67678;2,25793
1909,62562;2,25762
1907,57446;2,25723
1905,52331;2,25769
1903,47215;2,25997
1901,421;2,26274
1899,36984;2,26431
1897,31869;2,26622
1895,26753;2,26981
1893,21638;2,27309
1891,16522;2,2725
1889,11407;2,27081
1887,06291;2,27217
1885,01176;2,27341
1882,9606;2,27288
1880,90945;2,27225
1878,85829;2,27309
1876,80713;2,27498
1874,75598;2,27715
1872,70482;2,2801
1870,65367;2,28224
1868,60251;2,28319
1866,55136;2,28429
1864,5002;2,28414
1862,44905;2,28318
1860,39789;2,2841
1858,34674;2,28712
1856,29558;2,28946
1854,24443;2,29074
1852,19327;2,29414
1850,14212;2,30058
1848,09096;2,30704
1846,0398;2,31007
1843,98865;2,31026
1841,93749;2,31138
1839,88634;2,31222
1837,83518;2,31299
1835,78403;2,31613
1833,73287;2,32195
1831,68172;2,32867
1829,63056;2,33522
1827,57941;2,33982
1825,52825;2,34026
1823,4771;2,34195
1821,42594;2,347
1819,37478;2,35223
1817,32363;2,3577
1815,27247;2,36504
1813,22132;2,37418
1811,17016;2,38344
1809,11901;2,39114
1807,06785;2,39833
1805,0167;2,40834
1802,96554;2,42198
1800,91439;2,43733
1798,86323;2,4511
1796,81208;2,46043
1794,76092;2,46554
1792,70977;2,46747
1790,65861;2,46843
1788,60745;2,47111
1786,5563;2,47549
1784,50514;2,48047
1782,45399;2,48622
1780,40283;2,49399
1778,35168;2,50455
1776,30052;2,51717
1774,24937;2,53172
1772,19821;2,5517
1770,14706;2,57788
1768,0959;2,60357
1766,04475;2,63106
1763,99359;2,66449
1761,94244;2,70595
1759,89128;2,75215
1757,84012;2,79654
1755,78897;2,84257
1753,73781;2,88369
1751,68666;2,90606
1749,6355;2,91159
1747,58435;2,91041
1745,53319;2,90482
1743,48204;2,89508
1741,43088;2,88423
1739,37973;2,87421
1737,32857;2,86578
1735,27742;2,85565
1733,22626;2,85197
1731,17511;2,8559
1729,12395;2,85358
1727,07279;2,84215
1725,02164;2,82539
1722,97048;2,81426
1720,91933;2,81532
1718,86817;2,82068
1716,81702;2,82569
1714,76586;2,82956
1712,71471;2,83108
1710,66355;2,83319
1708,6124;2,8377
1706,56124;2,84411
1704,51009;2,85573
1702,45893;2,86619
1700,40778;2,87099
1698,35662;2,8835
1696,30546;2,89967
1694,25431;2,90822
1692,20315;2,90465
1690,152;2,89929
1688,10084;2,90434
1686,04969;2,91343
1683,99853;2,92419
1681,94738;2,93863
1679,89622;2,94157
1677,84507;2,92989
1675,79391;2,91639
1673,74276;2,91631
1671,6916;2,92021
1669,64045;2,91609
1667,58929;2,91445
1665,53813;2,9184
1663,48698;2,92269
1661,43582;2,92739
1659,38467;2,92865
1657,33351;2,92469
1655,28236;2,91438
1653,2312;2,90378
1651,18005;2,9116
1649,12889;2,92322
1647,07774;2,92505
1645,02658;2,91916
1642,97543;2,90594
1640,92427;2,8954
1638,87312;2,89655
1636,82196;2,89922
1634,7708;2,89494
1632,71965;2,88909
1630,66849;2,8833
1628,61734;2,88296
1626,56618;2,89061
1624,51503;2,89417
1622,46387;2,889
1620,41272;2,88436
1618,36156;2,88015
1616,31041;2,8755
1614,25925;2,87346
1612,2081;2,87149
1610,15694;2,86874
1608,10579;2,8672
1606,05463;2,87045
1604,00347;2,87739
1601,95232;2,88332
1599,90116;2,8883
1597,85001;2,89023
1595,79885;2,88409
1593,7477;2,87548
1591,69654;2,87554
1589,64539;2,88453
1587,59423;2,89161
1585,54308;2,88991
1583,49192;2,88448
1581,44077;2,88256
1579,38961;2,88533
1577,33846;2,88722
1575,2873;2,89072
1573,23614;2,89834
1571,18499;2,89564
1569,13383;2,88362
1567,08268;2,87589
1565,03152;2,87301
1562,98037;2,87709
1560,92921;2,88813
1558,87806;2,89962
1556,8269;2,89904
1554,77575;2,88824
1552,72459;2,88436
1550,67344;2,88658
1548,62228;2,8861
1546,57113;2,87916
1544,51997;2,86868
1542,46881;2,86186
1540,41766;2,85743
1538,3665;2,85536
1536,31535;2,8485
1534,26419;2,83367
1532,21304;2,83142
1530,16188;2,84302
1528,11073;2,8484
1526,05957;2,84737
1524,00842;2,84642
1521,95726;2,83943
1519,90611;2,83164
1517,85495;2,83449
1515,80379;2,8458
1513,75264;2,8519
1511,70148;2,84769
1509,65033;2,83994
1507,59917;2,83366
1505,54802;2,83655
1503,49686;2,84319
1501,44571;2,8498
1499,39455;2,8583
1497,3434;2,86136
1495,29224;2,86108
1493,24109;2,86533
1491,18993;2,86821
1489,13878;2,865
1487,08762;2,86014
1485,03646;2,86052
1482,98531;2,86666
1480,93415;2,87999
1478,883;2,90121
1476,83184;2,92264
1474,78069;2,93372
1472,72953;2,93153
1470,67838;2,93132
1468,62722;2,93767
1466,57607;2,94048
1464,52491;2,94087
1462,47376;2,9446
1460,4226;2,9472
1458,37145;2,94748
1456,32029;2,95084
1454,26913;2,95207
1452,21798;2,94551
1450,16682;2,93458
1448,11567;2,92028
1446,06451;2,90913
1444,01336;2,90624
1441,9622;2,90482
1439,91105;2,90004
1437,85989;2,89354
1435,80874;2,89291
1433,75758;2,89843
1431,70643;2,89877
1429,65527;2,89575
1427,60412;2,89974
1425,55296;2,90634
1423,5018;2,90413
1421,45065;2,89125
1419,39949;2,87615
1417,34834;2,87022
1415,29718;2,87256
1413,24603;2,87973
1411,19487;2,88975
1409,14372;2,89452
1407,09256;2,88826
1405,04141;2,87885
1402,99025;2,87557
1400,9391;2,8731
1398,88794;2,86935
1396,83679;2,87318
1394,78563;2,88317
1392,73447;2,88926
1390,68332;2,88963
1388,63216;2,89198
1386,58101;2,90182
1384,52985;2,91589
1382,4787;2,92725
1380,42754;2,92854
1378,37639;2,91961
1376,32523;2,91203
1374,27408;2,91165
1372,22292;2,91331
1370,17177;2,91235
1368,12061;2,91262
1366,06946;2,91407
1364,0183;2,90707
1361,96714;2,89353
1359,91599;2,88738
1357,86483;2,88981
1355,81368;2,89269
1353,76252;2,89301
1351,71137;2,89148
1349,66021;2,88708
1347,60906;2,88334
1345,5579;2,88651
1343,50675;2,89074
1341,45559;2,88773
1339,40444;2,8836
1337,35328;2,88516
1335,30213;2,88278
1333,25097;2,87231
1331,19981;2,86866
1329,14866;2,87788
1327,0975;2,88593
1325,04635;2,8865
1322,99519;2,88716
1320,94404;2,88729
1318,89288;2,8852
1316,84173;2,88498
1314,79057;2,88601
1312,73942;2,88485
1310,68826;2,87921
1308,63711;2,8727
1306,58595;2,8714
1304,5348;2,87542
1302,48364;2,88539
1300,43248;2,8958
1298,38133;2,89374
1296,33017;2,8816
1294,27902;2,86987
1292,22786;2,86255
1290,17671;2,86022
1288,12555;2,86333
1286,0744;2,86902
1284,02324;2,86974
1281,97209;2,86688
1279,92093;2,86884
1277,86978;2,87447
1275,81862;2,87527
1273,76747;2,87319
1271,71631;2,87789
1269,66515;2,88637
1267,614;2,89095
1265,56284;2,89116
1263,51169;2,88106
1261,46053;2,86335
1259,40938;2,85836
1257,35822;2,87134
1255,30707;2,88282
1253,25591;2,87666
1251,20476;2,86398
1249,1536;2,8619
1247,10245;2,86772
1245,05129;2,86781
1243,00013;2,85923
1240,94898;2,85124
1238,89782;2,84291
1236,84667;2,83382
1234,79551;2,83536
1232,74436;2,84377
1230,6932;2,84604
1228,64205;2,8451
1226,59089;2,84526
1224,53974;2,84213
1222,48858;2,83358
1220,43743;2,82559
1218,38627;2,82536
1216,33512;2,83488
1214,28396;2,84516
1212,2328;2,84499
1210,18165;2,84134
1208,13049;2,83739
1206,07934;2,83206
1204,02818;2,83379
1201,97703;2,84218
1199,92587;2,85168
1197,87472;2,85569
1195,82356;2,84919
1193,77241;2,84099
1191,72125;2,84178
1189,6701;2,85178
1187,61894;2,85515
1185,56779;2,84691
1183,51663;2,84213
1181,46547;2,84288
1179,41432;2,84119
1177,36316;2,83831
1175,31201;2,83954
1173,26085;2,84579
1171,2097;2,85117
1169,15854;2,8496
1167,10739;2,84343
1165,05623;2,83942
1163,00508;2,84084
1160,95392;2,8443
1158,90277;2,84833
1156,85161;2,84839
1154,80046;2,83651
1152,7493;2,82388
1150,69814;2,82524
1148,64699;2,83502
1146,59583;2,84038
1144,54468;2,83978
1142,49352;2,83513
1140,44237;2,82242
1138,39121;2,80659
1136,34006;2,79748
1134,2889;2,80297
1132,23775;2,82242
1130,18659;2,83828
1128,13544;2,83687
1126,08428;2,82785
1124,03313;2,82602
1121,98197;2,82943
1119,93081;2,82497
1117,87966;2,81852
1115,8285;2,82635
1113,77735;2,83997
1111,72619;2,83946
1109,67504;2,82197
1107,62388;2,801
1105,57273;2,79735
1103,52157;2,81745
1101,47042;2,83345
1099,41926;2,82574
1097,36811;2,81596
1095,31695;2,81271
1093,2658;2,80737
1091,21464;2,8007
1089,16348;2,7985
1087,11233;2,80471
1085,06117;2,81054
1083,01002;2,80604
1080,95886;2,80012
1078,90771;2,80253
1076,85655;2,80903
1074,8054;2,81232
1072,75424;2,80351
1070,70309;2,78688
1068,65193;2,77827
1066,60078;2,77873
1064,54962;2,779
1062,49847;2,77532
1060,44731;2,77501
1058,39615;2,78022
1056,345;2,7832
1054,29384;2,78154
1052,24269;2,7801
1050,19153;2,7799
1048,14038;2,7787
1046,08922;2,77843
1044,03807;2,78089
1041,98691;2,78139
1039,93576;2,77545
1037,8846;2,76964
1035,83345;2,76646
1033,78229;2,7662
1031,73114;2,7713
1029,67998;2,77251
1027,62882;2,76733
1025,57767;2,76763
1023,52651;2,7769
1021,47536;2,78791
1019,4242;2,7953
1017,37305;2,8005
1015,32189;2,79758
1013,27074;2,78129
1011,21958;2,76536
1009,16843;2,75945
1007,11727;2,75814
1005,06612;2,75308
1003,01496;2,7445
1000,96381;2,74052
998,91265;2,7416
996,86149;2,74742
994,81034;2,75812
992,75918;2,76352
990,70803;2,75662
988,65687;2,74667
986,60572;2,74257
984,55456;2,74553
982,50341;2,75679
980,45225;2,76954
978,4011;2,77141
976,34994;2,76028
974,29879;2,74908
972,24763;2,7469
970,19647;2,74464
968,14532;2,7376
966,09416;2,7304
964,04301;2,72744
961,99185;2,73069
959,9407;2,72922
957,88954;2,72114
955,83839;2,72338
953,78723;2,73264
951,73608;2,73241
949,68492;2,72582
947,63377;2,71789
945,58261;2,71179
943,53146;2,71342
941,4803;2,71857
939,42914;2,72055
937,37799;2,72223
935,32683;2,7264
933,27568;2,72509
931,22452;2,71901
929,17337;2,71654
927,12221;2,71331
925,07106;2,70557
923,0199;2,70386
920,96875;2,71095
918,91759;2,71076
916,86644;2,69843
914,81528;2,69022
912,76413;2,69504
910,71297;2,70319
908,66181;2,70781
906,61066;2,71212
904,5595;2,7143
902,50835;2,71529
900,45719;2,71719
898,40604;2,71836
896,35488;2,72268
894,30373;2,72976
892,25257;2,72856
890,20142;2,72249
888,15026;2,7204
886,09911;2,72013
884,04795;2,73079
881,9968;2,75188
879,94564;2,76253
877,89448;2,76279
875,84333;2,77197
873,79217;2,78577
871,74102;2,78617
869,68986;2,77483
867,63871;2,76018
865,58755;2,75462
863,5364;2,76396
861,48524;2,77488
859,43409;2,77745
857,38293;2,76551
855,33178;2,75007
853,28062;2,75264
851,22947;2,76281
849,17831;2,768
847,12715;2,77599
845,076;2,77797
843,02484;2,76698
840,97369;2,75822
838,92253;2,75751
836,87138;2,75673
834,82022;2,74967
832,76907;2,74095
830,71791;2,74006
828,66676;2,75208
826,6156;2,77187
824,56445;2,78398
822,51329;2,78059
820,46214;2,77842
818,41098;2,78575
816,35982;2,79733
814,30867;2,81201
812,25751;2,81821
810,20636;2,81355
808,1552;2,80721
806,10405;2,79918
804,05289;2,79576
802,00174;2,79011
799,95058;2,78216
797,89943;2,7885
795,84827;2,79198
793,79712;2,77959
791,74596;2,77678
789,69481;2,79229
787,64365;2,79972
785,59249;2,78497
783,54134;2,77377
781,49018;2,78647
779,43903;2,81059
777,38787;2,82574
775,33672;2,82036
773,28556;2,79523
771,23441;2,77629
769,18325;2,7796
767,1321;2,7892
765,08094;2,80034
763,02979;2,81492
760,97863;2,81744
758,92748;2,81294
756,87632;2,82013
754,82516;2,82343
752,77401;2,81114
750,72285;2,79792
748,6717;2,79198
746,62054;2,79469
744,56939;2,80181
742,51823;2,81554
740,46708;2,81916
738,41592;2,81523
736,36477;2,82741
734,31361;2,84544
732,26246;2,84939
730,2113;2,84789
728,16015;2,85256
726,10899;2,86015
724,05783;2,84828
722,00668;2,81405
719,95552;2,78987
717,90437;2,79309
715,85321;2,8025
713,80206;2,7992
711,7509;2,7931
709,69975;2,79512
707,64859;2,79858
705,59744;2,7999
703,54628;2,80229
701,49513;2,80491
699,44397;2,80236
697,39281;2,78865
695,34166;2,76774
693,2905;2,75334
691,23935;2,74958
689,18819;2,74433
687,13704;2,73345
685,08588;2,73132
683,03473;2,7508
680,98357;2,77608
678,93242;2,777
676,88126;2,75712
674,83011;2,74492
672,77895;2,75993
670,7278;2,79399
668,67664;2,81563
666,62548;2,80584
664,57433;2,78387
662,52317;2,77044
660,47202;2,77468
658,42086;2,78198
656,36971;2,77039
654,31855;2,74975
652,2674;2,742
650,21624;2,74852
648,16509;2,7579
646,11393;2,76086
644,06278;2,75791
642,01162;2,75688
639,96047;2,76169
637,90931;2,768
635,85815;2,77238
633,807;2,77597
631,75584;2,78185
629,70469;2,78416
627,65353;2,7697
625,60238;2,74491
623,55122;2,72423
621,50007;2,72255
619,44891;2,75761
617,39776;2,80375
615,3466;2,80784
613,29545;2,79038
611,24429;2,77498
609,19314;2,75671
607,14198;2,75549
605,09082;2,78348
603,03967;2,81925
600,98851;2,82766
598,93736;2,79697
596,8862;2,77058
594,83505;2,77927
592,78389;2,80228
590,73274;2,79158
588,68158;2,74535
586,63043;2,72115
584,57927;2,74458
582,52812;2,77071
580,47696;2,76468
578,42581;2,76245
576,37465;2,78858
574,32349;2,8203
572,27234;2,81779
570,22118;2,78889
568,17003;2,79246
566,11887;2,81138
564,06772;2,78135
562,01656;2,73614
559,96541;2,73825
557,91425;2,77975
555,8631;2,81587
553,81194;2,83273
551,76079;2,81946
549,70963;2,77233
547,65848;2,71381
545,60732;2,68352
543,55616;2,70355
541,50501;2,74456
539,45385;2,77561
537,4027;2,7852
535,35154;2,76547
533,30039;2,75094
531,24923;2,77496
529,19808;2,81023
527,14692;2,80103
525,09577;2,75194
523,04461;2,70332
520,99346;2,67841
518,9423;2,69716
516,89115;2,74776
514,83999;2,76176
512,78883;2,72817
510,73768;2,71069
508,68652;2,72825
506,63537;2,74188
504,58421;2,73782
502,53306;2,7371
500,4819;2,73412
498,43075;2,71894
496,37959;2,70342
494,32844;2,70531
492,27728;2,7302
490,22613;2,74487
488,17497;2,72245
486,12382;2,69535
484,07266;2,69897
482,0215;2,71427
479,97035;2,71115
477,91919;2,70721
475,86804;2,72578
473,81688;2,74244
471,76573;2,72918
469,71457;2,70755
467,66342;2,70509
465,61226;2,71688
463,56111;2,71109
461,50995;2,68659
459,4588;2,66736
457,40764;2,66562
455,35649;2,67407
453,30533;2,69092
451,25417;2,72567
449,20302;2,74204
447,15186;2,69496
445,10071;2,6528
443,04955;2,70897
440,9984;2,82422
438,94724;2,81955
436,89609;2,69507
434,84493;2,64241
432,79378;2,70267
430,74262;2,79772
428,69147;2,84994
426,64031;2,81818
424,58916;2,74264
422,538;2,70609
420,48684;2,64199
418,43569;2,55774
416,38453;2,60281
414,33338;2,73472
412,28222;2,82506
410,23107;2,7928
408,17991;2,70126
406,12876;2,66866
404,0776;2,72942
402,02645;2,81785
399,97529;2,87922
