3997,70175;1,87575
3995,6506;1,87755
3993,59944;1,87909
3991,54829;1,88033
3989,49713;1,88122
3987,44598;1,88147
3985,39482;1,88145
3983,34367;1,88134
3981,29251;1,8815
3979,24136;1,88274
3977,1902;1,88398
3975,13905;1,88392
3973,08789;1,8838
3971,03673;1,8852
3968,98558;1,88721
3966,93442;1,88843
3964,88327;1,88933
3962,83211;1,89105
3960,78096;1,89423
3958,7298;1,898
3956,67865;1,90059
3954,62749;1,90162
3952,57634;1,90241
3950,52518;1,90383
3948,47403;1,90525
3946,42287;1,90579
3944,37172;1,90471
3942,32056;1,90301
3940,2694;1,90219
3938,21825;1,90153
3936,16709;1,90063
3934,11594;1,89902
3932,06478;1,89563
3930,01363;1,89155
3927,96247;1,88841
3925,91132;1,88447
3923,86016;1,87852
3921,80901;1,87287
3919,75785;1,86932
3917,7067;1,86613
3915,65554;1,86172
3913,60439;1,85671
3911,55323;1,85114
3909,50207;1,84561
3907,45092;1,84219
3905,39976;1,8412
3903,34861;1,83991
3901,29745;1,83593
3899,2463;1,83142
3897,19514;1,83034
3895,14399;1,83142
3893,09283;1,83063
3891,04168;1,82829
3888,99052;1,82779
3886,93937;1,82691
3884,88821;1,82531
3882,83706;1,82521
3880,7859;1,8248
3878,73474;1,82407
3876,68359;1,82289
3874,63243;1,82117
3872,58128;1,82085
3870,53012;1,82081
3868,47897;1,82134
3866,42781;1,8215
3864,37666;1,81936
3862,3255;1,81613
3860,27435;1,81433
3858,22319;1,81571
3856,17204;1,8178
3854,12088;1,81668
3852,06973;1,81416
3850,01857;1,81275
3847,96741;1,81226
3845,91626;1,81195
3843,8651;1,81116
3841,81395;1,81129
3839,76279;1,81274
3837,71164;1,81393
3835,66048;1,81356
3833,60933;1,81197
3831,55817;1,81157
3829,50702;1,81286
3827,45586;1,81342
3825,40471;1,8147
3823,35355;1,81687
3821,3024;1,81711
3819,25124;1,8171
3817,20008;1,81576
3815,14893;1,81328
3813,09777;1,81286
3811,04662;1,81442
3808,99546;1,81598
3806,94431;1,81646
3804,89315;1,81765
3802,842;1,81769
3800,79084;1,8174
3798,73969;1,81953
3796,68853;1,8213
3794,63738;1,82125
3792,58622;1,81941
3790,53506;1,81727
3788,48391;1,81667
3786,43275;1,81815
3784,3816;1,82099
3782,33044;1,82321
3780,27929;1,82318
3778,22813;1,82281
3776,17698;1,82366
3774,12582;1,82525
3772,07467;1,82711
3770,02351;1,82896
3767,97236;1,83081
3765,9212;1,83179
3763,87005;1,83352
3761,81889;1,83635
3759,76773;1,8382
3757,71658;1,83876
3755,66542;1,8402
3753,61427;1,84319
3751,56311;1,84525
3749,51196;1,84607
3747,4608;1,84808
3745,40965;1,84943
3743,35849;1,85141
3741,30734;1,85515
3739,25618;1,85862
3737,20503;1,86157
3735,15387;1,86322
3733,10272;1,86347
3731,05156;1,86548
3729,0004;1,87034
3726,94925;1,87514
3724,89809;1,87877
3722,84694;1,88144
3720,79578;1,88403
3718,74463;1,88709
3716,69347;1,89135
3714,64232;1,89646
3712,59116;1,90163
3710,54001;1,90807
3708,48885;1,91538
3706,4377;1,92316
3704,38654;1,93475
3702,33539;1,95348
3700,28423;1,9773
3698,23307;1,99915
3696,18192;2,01476
3694,13076;2,02348
3692,07961;2,02609
3690,02845;2,0246
3687,9773;2,02334
3685,92614;2,02675
3683,87499;2,03282
3681,82383;2,03951
3679,77268;2,04712
3677,72152;2,05618
3675,67037;2,06801
3673,61921;2,08368
3671,56806;2,09783
3669,5169;2,1089
3667,46574;2,11932
3665,41459;2,13049
3663,36343;2,143
3661,31228;2,15605
3659,26112;2,17004
3657,20997;2,18488
3655,15881;2,19962
3653,10766;2,21353
3651,0565;2,23015
3649,00535;2,25449
3646,95419;2,27979
3644,90304;2,29855
3642,85188;2,31041
3640,80073;2,31582
3638,74957;2,3185
3636,69841;2,32493
3634,64726;2,33471
3632,5961;2,34355
3630,54495;2,35011
3628,49379;2,35814
3626,44264;2,37233
3624,39148;2,39065
3622,34033;2,40774
3620,28917;2,41836
3618,23802;2,42514
3616,18686;2,43324
3614,13571;2,44146
3612,08455;2,45021
3610,0334;2,46096
3607,98224;2,47116
3605,93108;2,47831
3603,87993;2,4815
3601,82877;2,48192
3599,77762;2,4834
3597,72646;2,4899
3595,67531;2,49986
3593,62415;2,50719
3591,573;2,51204
3589,52184;2,51938
3587,47069;2,52762
3585,41953;2,53226
3583,36838;2,53595
3581,31722;2,54098
3579,26607;2,54604
3577,21491;2,55278
3575,16375;2,5608
3573,1126;2,56614
3571,06144;2,56977
3569,01029;2,57461
3566,95913;2,58113
3564,90798;2,58745
3562,85682;2,59147
3560,80567;2,59512
3558,75451;2,60073
3556,70336;2,60947
3554,6522;2,61874
3552,60105;2,62365
3550,54989;2,62716
3548,49874;2,63443
3546,44758;2,64443
3544,39642;2,65189
3542,34527;2,65226
3540,29411;2,64854
3538,24296;2,64706
3536,1918;2,6484
3534,14065;2,64672
3532,08949;2,64041
3530,03834;2,63838
3527,98718;2,64686
3525,93603;2,65743
3523,88487;2,65945
3521,83372;2,65549
3519,78256;2,65527
3517,73141;2,66205
3515,68025;2,66993
3513,62909;2,67274
3511,57794;2,67319
3509,52678;2,67593
3507,47563;2,67972
3505,42447;2,68408
3503,37332;2,68912
3501,32216;2,69288
3499,27101;2,69733
3497,21985;2,7033
3495,1687;2,70847
3493,11754;2,70875
3491,06639;2,70154
3489,01523;2,69504
3486,96407;2,69713
3484,91292;2,70231
3482,86176;2,70733
3480,81061;2,71374
3478,75945;2,72105
3476,7083;2,72912
3474,65714;2,73046
3472,60599;2,7241
3470,55483;2,71918
3468,50368;2,71823
3466,45252;2,71963
3464,40137;2,72421
3462,35021;2,72879
3460,29906;2,73035
3458,2479;2,73178
3456,19674;2,72979
3454,14559;2,724
3452,09443;2,72592
3450,04328;2,73802
3447,99212;2,74517
3445,94097;2,73987
3443,88981;2,73199
3441,83866;2,72826
3439,7875;2,73076
3437,73635;2,73199
3435,68519;2,72779
3433,63404;2,73356
3431,58288;2,74889
3429,53173;2,75147
3427,48057;2,74258
3425,42941;2,73822
3423,37826;2,73888
3421,3271;2,73876
3419,27595;2,73381
3417,22479;2,72679
3415,17364;2,72948
3413,12248;2,7395
3411,07133;2,74097
3409,02017;2,73738
3406,96902;2,74193
3404,91786;2,7484
3402,86671;2,74827
3400,81555;2,74914
3398,7644;2,75348
3396,71324;2,75128
3394,66208;2,74217
3392,61093;2,73906
3390,55977;2,748
3388,50862;2,75821
3386,45746;2,75888
3384,40631;2,7537
3382,35515;2,75614
3380,304;2,76795
3378,25284;2,76985
3376,20169;2,75226
3374,15053;2,73735
3372,09938;2,73811
3370,04822;2,739
3367,99707;2,73868
3365,94591;2,74852
3363,89475;2,75526
3361,8436;2,74554
3359,79244;2,73469
3357,74129;2,73666
3355,69013;2,74371
3353,63898;2,74683
3351,58782;2,74942
3349,53667;2,75627
3347,48551;2,7633
3345,43436;2,76232
3343,3832;2,75192
3341,33205;2,74028
3339,28089;2,74212
3337,22974;2,75411
3335,17858;2,76274
3333,12742;2,76533
3331,07627;2,75657
3329,02511;2,74333
3326,97396;2,73916
3324,9228;2,74084
3322,87165;2,74059
3320,82049;2,73988
3318,76934;2,74178
3316,71818;2,74397
3314,66703;2,74568
3312,61587;2,74564
3310,56472;2,74431
3308,51356;2,74825
3306,46241;2,75698
3304,41125;2,75935
3302,36009;2,75658
3300,30894;2,75968
3298,25778;2,76141
3296,20663;2,7516
3294,15547;2,74
3292,10432;2,7363
3290,05316;2,7405
3288,00201;2,7495
3285,95085;2,75469
3283,8997;2,75498
3281,84854;2,75592
3279,79739;2,75615
3277,74623;2,75042
3275,69508;2,73982
3273,64392;2,73609
3271,59276;2,74248
3269,54161;2,75134
3267,49045;2,75569
3265,4393;2,75215
3263,38814;2,74687
3261,33699;2,74512
3259,28583;2,742
3257,23468;2,73805
3255,18352;2,73746
3253,13237;2,73326
3251,08121;2,72573
3249,03006;2,72851
3246,9789;2,74014
3244,92775;2,74671
3242,87659;2,74645
3240,82543;2,74434
3238,77428;2,74425
3236,72312;2,74742
3234,67197;2,74592
3232,62081;2,7346
3230,56966;2,72297
3228,5185;2,71892
3226,46735;2,72005
3224,41619;2,72519
3222,36504;2,73166
3220,31388;2,73449
3218,26273;2,73708
3216,21157;2,74318
3214,16041;2,7458
3212,10926;2,74048
3210,0581;2,73013
3208,00695;2,718
3205,95579;2,7117
3203,90464;2,71267
3201,85348;2,71737
3199,80233;2,72579
3197,75117;2,72815
3195,70002;2,72209
3193,64886;2,72274
3191,59771;2,72769
3189,54655;2,7232
3187,4954;2,71684
3185,44424;2,71729
3183,39308;2,71536
3181,34193;2,70848
3179,29077;2,70405
3177,23962;2,70441
3175,18846;2,70787
3173,13731;2,70998
3171,08615;2,70646
3169,035;2,70445
3166,98384;2,71118
3164,93269;2,71818
3162,88153;2,71626
3160,83038;2,70836
3158,77922;2,70111
3156,72807;2,69936
3154,67691;2,70315
3152,62575;2,70367
3150,5746;2,69657
3148,52344;2,68892
3146,47229;2,68631
3144,42113;2,68734
3142,36998;2,68741
3140,31882;2,68554
3138,26767;2,68221
3136,21651;2,67958
3134,16536;2,67793
3132,1142;2,67092
3130,06305;2,66287
3128,01189;2,66157
3125,96074;2,66594
3123,90958;2,66997
3121,85842;2,66663
3119,80727;2,65809
3117,75611;2,65344
3115,70496;2,65565
3113,6538;2,65792
3111,60265;2,65358
3109,55149;2,64551
3107,50034;2,63864
3105,44918;2,63565
3103,39803;2,63876
3101,34687;2,64493
3099,29572;2,64664
3097,24456;2,64417
3095,19341;2,64435
3093,14225;2,64882
3091,09109;2,65233
3089,03994;2,64961
3086,98878;2,64271
3084,93763;2,63632
3082,88647;2,63372
3080,83532;2,63395
3078,78416;2,63172
3076,73301;2,62964
3074,68185;2,63304
3072,6307;2,63851
3070,57954;2,64011
3068,52839;2,63603
3066,47723;2,62858
3064,42608;2,62427
3062,37492;2,62662
3060,32376;2,63038
3058,27261;2,63247
3056,22145;2,63544
3054,1703;2,63827
3052,11914;2,63871
3050,06799;2,63977
3048,01683;2,64485
3045,96568;2,64886
3043,91452;2,64577
3041,86337;2,63816
3039,81221;2,63063
3037,76106;2,62753
3035,7099;2,63034
3033,65875;2,6363
3031,60759;2,64023
3029,55643;2,64126
3027,50528;2,64528
3025,45412;2,64918
3023,40297;2,64809
3021,35181;2,64668
3019,30066;2,64875
3017,2495;2,65276
3015,19835;2,65557
3013,14719;2,65792
3011,09604;2,66051
3009,04488;2,66017
3006,99373;2,66084
3004,94257;2,67109
3002,89142;2,68329
3000,84026;2,68704
2998,7891;2,69077
2996,73795;2,69837
2994,68679;2,70779
2992,63564;2,72267
2990,58448;2,7385
2988,53333;2,74976
2986,48217;2,76167
2984,43102;2,78079
2982,37986;2,79632
2980,32871;2,80042
2978,27755;2,80607
2976,2264;2,81437
2974,17524;2,82104
2972,12409;2,83341
2970,07293;2,84584
2968,02177;2,84517
2965,97062;2,83707
2963,91946;2,83436
2961,86831;2,84027
2959,81715;2,85463
2957,766;2,87034
2955,71484;2,8733
2953,66369;2,86649
2951,61253;2,86205
2949,56138;2,86064
2947,51022;2,85591
2945,45907;2,84918
2943,40791;2,84761
2941,35675;2,85221
2939,3056;2,86035
2937,25444;2,86801
2935,20329;2,86737
2933,15213;2,86031
2931,10098;2,85794
2929,04982;2,85126
2926,99867;2,83809
2924,94751;2,8343
2922,89636;2,83071
2920,8452;2,81906
2918,79405;2,81391
2916,74289;2,81481
2914,69174;2,81731
2912,64058;2,82018
2910,58942;2,8139
2908,53827;2,80189
2906,48711;2,79333
2904,43596;2,7928
2902,3848;2,79806
2900,33365;2,79873
2898,28249;2,79718
2896,23134;2,79789
2894,18018;2,7961
2892,12903;2,79023
2890,07787;2,78819
2888,02672;2,79245
2885,97556;2,79011
2883,92441;2,77672
2881,87325;2,76766
2879,82209;2,77005
2877,77094;2,77872
2875,71978;2,79152
2873,66863;2,80332
2871,61747;2,80659
2869,56632;2,80655
2867,51516;2,80708
2865,46401;2,80474
2863,41285;2,79944
2861,3617;2,79449
2859,31054;2,7924
2857,25939;2,79229
2855,20823;2,78888
2853,15708;2,78065
2851,10592;2,77049
2849,05476;2,75714
2847,00361;2,74468
2844,95245;2,74246
2842,9013;2,74669
2840,85014;2,74374
2838,79899;2,72905
2836,74783;2,70838
2834,69668;2,68489
2832,64552;2,66338
2830,59437;2,64925
2828,54321;2,6359
2826,49206;2,62091
2824,4409;2,61023
2822,38975;2,60154
2820,33859;2,59005
2818,28743;2,57702
2816,23628;2,56628
2814,18512;2,55936
2812,13397;2,55356
2810,08281;2,54603
2808,03166;2,53693
2805,9805;2,52567
2803,92935;2,51384
2801,87819;2,50491
2799,82704;2,49867
2797,77588;2,49657
2795,72473;2,49692
2793,67357;2,49206
2791,62242;2,48079
2789,57126;2,46949
2787,5201;2,46544
2785,46895;2,46493
2783,41779;2,4588
2781,36664;2,45191
2779,31548;2,45011
2777,26433;2,4469
2775,21317;2,43977
2773,16202;2,43544
2771,11086;2,43458
2769,05971;2,43199
2767,00855;2,42722
2764,9574;2,42237
2762,90624;2,41777
2760,85509;2,41343
2758,80393;2,41084
2756,75277;2,41102
2754,70162;2,41106
2752,65046;2,40982
2750,59931;2,41022
2748,54815;2,41061
2746,497;2,40844
2744,44584;2,40782
2742,39469;2,40982
2740,34353;2,4101
2738,29238;2,40939
2736,24122;2,41012
2734,19007;2,41035
2732,13891;2,40834
2730,08776;2,40542
2728,0366;2,40494
2725,98544;2,40751
2723,93429;2,40849
2721,88313;2,4059
2719,83198;2,40301
2717,78082;2,39994
2715,72967;2,39503
2713,67851;2,39184
2711,62736;2,39198
2709,5762;2,39077
2707,52505;2,38489
2705,47389;2,37709
2703,42274;2,37307
2701,37158;2,37437
2699,32043;2,37658
2697,26927;2,37472
2695,21811;2,37052
2693,16696;2,36927
2691,1158;2,37004
2689,06465;2,36982
2687,01349;2,36803
2684,96234;2,36388
2682,91118;2,35998
2680,86003;2,35958
2678,80887;2,3613
2676,75772;2,36333
2674,70656;2,36373
2672,65541;2,36093
2670,60425;2,35715
2668,55309;2,35522
2666,50194;2,35474
2664,45078;2,35497
2662,39963;2,35703
2660,34847;2,35906
2658,29732;2,35776
2656,24616;2,35369
2654,19501;2,34903
2652,14385;2,34626
2650,0927;2,34628
2648,04154;2,34797
2645,99039;2,34986
2643,93923;2,35019
2641,88808;2,34986
2639,83692;2,35139
2637,78576;2,35587
2635,73461;2,36276
2633,68345;2,36944
2631,6323;2,37429
2629,58114;2,37815
2627,52999;2,38145
2625,47883;2,38525
2623,42768;2,3901
2621,37652;2,39317
2619,32537;2,39448
2617,27421;2,39725
2615,22306;2,40225
2613,1719;2,40808
2611,12075;2,41194
2609,06959;2,41537
2607,01843;2,42258
2604,96728;2,42819
2602,91612;2,42638
2600,86497;2,42142
2598,81381;2,41746
2596,76266;2,41409
2594,7115;2,41192
2592,66035;2,41421
2590,60919;2,41913
2588,55804;2,42122
2586,50688;2,42136
2584,45573;2,4215
2582,40457;2,42082
2580,35342;2,41978
2578,30226;2,41898
2576,2511;2,41873
2574,19995;2,41766
2572,14879;2,41557
2570,09764;2,41619
2568,04648;2,41699
2565,99533;2,41284
2563,94417;2,40815
2561,89302;2,40824
2559,84186;2,41144
2557,79071;2,41387
2555,73955;2,41414
2553,6884;2,41229
2551,63724;2,41176
2549,58609;2,41677
2547,53493;2,42273
2545,48377;2,4228
2543,43262;2,42017
2541,38146;2,42113
2539,33031;2,42509
2537,27915;2,42955
2535,228;2,43579
2533,17684;2,44425
2531,12569;2,4529
2529,07453;2,46135
2527,02338;2,46961
2524,97222;2,47642
2522,92107;2,48199
2520,86991;2,48656
2518,81876;2,48802
2516,7676;2,48645
2514,71644;2,4852
2512,66529;2,48538
2510,61413;2,48669
2508,56298;2,48736
2506,51182;2,48288
2504,46067;2,47226
2502,40951;2,45988
2500,35836;2,45005
2498,3072;2,44069
2496,25605;2,42799
2494,20489;2,41464
2492,15374;2,40417
2490,10258;2,39555
2488,05143;2,3871
2486,00027;2,3787
2483,94911;2,36992
2481,89796;2,35915
2479,8468;2,34746
2477,79565;2,3378
2475,74449;2,32926
2473,69334;2,32035
2471,64218;2,31121
2469,59103;2,30171
2467,53987;2,29194
2465,48872;2,28207
2463,43756;2,27393
2461,38641;2,26909
2459,33525;2,26628
2457,2841;2,26251
2455,23294;2,25608
2453,18178;2,24884
2451,13063;2,24341
2449,07947;2,23949
2447,02832;2,23586
2444,97716;2,23328
2442,92601;2,23147
2440,87485;2,22779
2438,8237;2,22255
2436,77254;2,21776
2434,72139;2,21357
2432,67023;2,2111
2430,61908;2,21046
2428,56792;2,20875
2426,51677;2,20449
2424,46561;2,1988
2422,41445;2,19467
2420,3633;2,19422
2418,31214;2,19485
2416,26099;2,19369
2414,20983;2,19144
2412,15868;2,18864
2410,10752;2,18521
2408,05637;2,18305
2406,00521;2,1833
2403,95406;2,18372
2401,9029;2,18231
2399,85175;2,1798
2397,80059;2,17686
2395,74944;2,1735
2393,69828;2,17054
2391,64712;2,16903
2389,59597;2,16825
2387,54481;2,16762
2385,49366;2,16743
2383,4425;2,16769
2381,39135;2,16835
2379,34019;2,16889
2377,28904;2,169
2375,23788;2,1695
2373,18673;2,16989
2371,13557;2,16864
2369,08442;2,16664
2367,03326;2,16671
2364,9821;2,16992
2362,93095;2,17158
2360,87979;2,16725
2358,82864;2,16004
2356,77748;2,15496
2354,72633;2,15527
2352,67517;2,16002
2350,62402;2,16386
2348,57286;2,16397
2346,52171;2,16191
2344,47055;2,16183
2342,4194;2,16632
2340,36824;2,1711
2338,31709;2,1714
2336,26593;2,16781
2334,21477;2,16352
2332,16362;2,16182
2330,11246;2,16203
2328,06131;2,1612
2326,01015;2,16013
2323,959;2,15982
2321,90784;2,15937
2319,85669;2,15919
2317,80553;2,15972
2315,75438;2,16055
2313,70322;2,16165
2311,65207;2,16273
2309,60091;2,16349
2307,54976;2,16372
2305,4986;2,1624
2303,44744;2,15988
2301,39629;2,15843
2299,34513;2,15803
2297,29398;2,15702
2295,24282;2,15548
2293,19167;2,15441
2291,14051;2,15394
2289,08936;2,15357
2287,0382;2,15297
2284,98705;2,15245
2282,93589;2,15236
2280,88474;2,15305
2278,83358;2,15485
2276,78243;2,15697
2274,73127;2,15816
2272,68011;2,15796
2270,62896;2,15671
2268,5778;2,15614
2266,52665;2,15692
2264,47549;2,15767
2262,42434;2,15843
2260,37318;2,15998
2258,32203;2,16094
2256,27087;2,16144
2254,21972;2,16349
2252,16856;2,16626
2250,11741;2,1678
2248,06625;2,16842
2246,0151;2,16902
2243,96394;2,17019
2241,91278;2,17037
2239,86163;2,17042
2237,81047;2,17286
2235,75932;2,17632
2233,70816;2,17778
2231,65701;2,17794
2229,60585;2,18024
2227,5547;2,18421
2225,50354;2,18707
2223,45239;2,18845
2221,40123;2,18868
2219,35008;2,18833
2217,29892;2,18863
2215,24777;2,19001
2213,19661;2,19233
2211,14545;2,19493
2209,0943;2,19671
2207,04314;2,19761
2204,99199;2,19806
2202,94083;2,19826
2200,88968;2,19831
2198,83852;2,19948
2196,78737;2,20211
2194,73621;2,20358
2192,68506;2,20352
2190,6339;2,20334
2188,58275;2,20399
2186,53159;2,20576
2184,48044;2,20756
2182,42928;2,20883
2180,37812;2,21006
2178,32697;2,21132
2176,27581;2,21283
2174,22466;2,21519
2172,1735;2,21736
2170,12235;2,21888
2168,07119;2,22164
2166,02004;2,22534
2163,96888;2,22756
2161,91773;2,22942
2159,86657;2,23382
2157,81542;2,23951
2155,76426;2,2447
2153,71311;2,2506
2151,66195;2,25656
2149,61079;2,26024
2147,55964;2,26135
2145,50848;2,26193
2143,45733;2,26559
2141,40617;2,27051
2139,35502;2,27158
2137,30386;2,26929
2135,25271;2,26572
2133,20155;2,26243
2131,1504;2,26085
2129,09924;2,25952
2127,04809;2,25628
2124,99693;2,25029
2122,94578;2,24281
2120,89462;2,23642
2118,84346;2,23149
2116,79231;2,2274
2114,74115;2,22372
2112,69;2,2194
2110,63884;2,21549
2108,58769;2,21355
2106,53653;2,21249
2104,48538;2,21079
2102,43422;2,20927
2100,38307;2,20928
2098,33191;2,21043
2096,28076;2,21172
2094,2296;2,21221
2092,17844;2,21092
2090,12729;2,2081
2088,07613;2,20654
2086,02498;2,20758
2083,97382;2,20865
2081,92267;2,20876
2079,87151;2,20913
2077,82036;2,20934
2075,7692;2,2093
2073,71805;2,21083
2071,66689;2,21383
2069,61574;2,21599
2067,56458;2,21671
2065,51343;2,21646
2063,46227;2,21637
2061,41111;2,21708
2059,35996;2,21663
2057,3088;2,21458
2055,25765;2,21357
2053,20649;2,21445
2051,15534;2,21562
2049,10418;2,21615
2047,05303;2,21675
2045,00187;2,21783
2042,95072;2,21827
2040,89956;2,21832
2038,84841;2,21956
2036,79725;2,22056
2034,7461;2,21944
2032,69494;2,21761
2030,64378;2,21696
2028,59263;2,21782
2026,54147;2,21972
2024,49032;2,22122
2022,43916;2,22063
2020,38801;2,21896
2018,33685;2,21839
2016,2857;2,21906
2014,23454;2,22072
2012,18339;2,22193
2010,13223;2,22034
2008,08108;2,21814
2006,02992;2,21845
2003,97877;2,21896
2001,92761;2,21763
1999,87645;2,21682
1997,8253;2,21824
1995,77414;2,22074
1993,72299;2,2214
1991,67183;2,21943
1989,62068;2,2186
1987,56952;2,22053
1985,51837;2,22259
1983,46721;2,22274
1981,41606;2,22114
1979,3649;2,2193
1977,31375;2,22023
1975,26259;2,22443
1973,21144;2,22878
1971,16028;2,23143
1969,10912;2,23381
1967,05797;2,23741
1965,00681;2,24142
1962,95566;2,24473
1960,9045;2,24613
1958,85335;2,24397
1956,80219;2,23982
1954,75104;2,2366
1952,69988;2,23488
1950,64873;2,23478
1948,59757;2,2361
1946,54642;2,23677
1944,49526;2,23683
1942,44411;2,23833
1940,39295;2,23982
1938,34179;2,23929
1936,29064;2,23958
1934,23948;2,24227
1932,18833;2,24515
1930,13717;2,24699
1928,08602;2,24839
1926,03486;2,24913
1923,98371;2,24944
1921,93255;2,25192
1919,8814;2,25477
1917,83024;2,25474
1915,77909;2,25434
1913,72793;2,25532
1911,67678;2,25793
1909,62562;2,26177
1907,57446;2,26447
1905,52331;2,26464
1903,47215;2,26426
1901,421;2,2652
1899,36984;2,26775
1897,31869;2,27071
1895,26753;2,27217
1893,21638;2,27318
1891,16522;2,27484
1889,11407;2,2766
1887,06291;2,27772
1885,01176;2,27789
1882,9606;2,27921
1880,90945;2,28235
1878,85829;2,28564
1876,80713;2,28769
1874,75598;2,28925
1872,70482;2,29157
1870,65367;2,29335
1868,60251;2,29509
1866,55136;2,29861
1864,5002;2,30148
1862,44905;2,30292
1860,39789;2,30488
1858,34674;2,3077
1856,29558;2,31091
1854,24443;2,31454
1852,19327;2,31794
1850,14212;2,32076
1848,09096;2,32499
1846,0398;2,33118
1843,98865;2,33607
1841,93749;2,33815
1839,88634;2,33976
1837,83518;2,3436
1835,78403;2,3487
1833,73287;2,3531
1831,68172;2,35719
1829,63056;2,3615
1827,57941;2,36475
1825,52825;2,36668
1823,4771;2,37031
1821,42594;2,3767
1819,37478;2,38583
1817,32363;2,39623
1815,27247;2,40466
1813,22132;2,41144
1811,17016;2,4199
1809,11901;2,4314
1807,06785;2,44525
1805,0167;2,46256
1802,96554;2,48475
1800,91439;2,50888
1798,86323;2,52866
1796,81208;2,54028
1794,76092;2,5436
1792,70977;2,53855
1790,65861;2,5282
1788,60745;2,51795
1786,5563;2,50793
1784,50514;2,49679
1782,45399;2,4859
1780,40283;2,4776
1778,35168;2,47413
1776,30052;2,4756
1774,24937;2,4789
1772,19821;2,48021
1770,14706;2,48055
1768,0959;2,48193
1766,04475;2,48487
1763,99359;2,48878
1761,94244;2,49421
1759,89128;2,50205
1757,84012;2,50999
1755,78897;2,51749
1753,73781;2,52377
1751,68666;2,5288
1749,6355;2,53564
1747,58435;2,54314
1745,53319;2,54958
1743,48204;2,55464
1741,43088;2,55704
1739,37973;2,55925
1737,32857;2,56515
1735,27742;2,57235
1733,22626;2,58085
1731,17511;2,58944
1729,12395;2,59382
1727,07279;2,59619
1725,02164;2,60156
1722,97048;2,61271
1720,91933;2,62688
1718,86817;2,63859
1716,81702;2,6476
1714,76586;2,65764
1712,71471;2,66737
1710,66355;2,67161
1708,6124;2,67341
1706,56124;2,68375
1704,51009;2,70494
1702,45893;2,72168
1700,40778;2,72499
1698,35662;2,72653
1696,30546;2,73376
1694,25431;2,74747
1692,20315;2,76092
1690,152;2,76753
1688,10084;2,77257
1686,04969;2,78003
1683,99853;2,78532
1681,94738;2,78697
1679,89622;2,78873
1677,84507;2,79037
1675,79391;2,78838
1673,74276;2,78834
1671,6916;2,79465
1669,64045;2,8031
1667,58929;2,80941
1665,53813;2,81077
1663,48698;2,81162
1661,43582;2,81774
1659,38467;2,82512
1657,33351;2,82987
1655,28236;2,82905
1653,2312;2,8237
1651,18005;2,82902
1649,12889;2,84199
1647,07774;2,85056
1645,02658;2,85244
1642,97543;2,85154
1640,92427;2,85144
1638,87312;2,8528
1636,82196;2,85444
1634,7708;2,85839
1632,71965;2,86402
1630,66849;2,86353
1628,61734;2,855
1626,56618;2,84438
1624,51503;2,83703
1622,46387;2,83942
1620,41272;2,85161
1618,36156;2,86173
1616,31041;2,86418
1614,25925;2,86285
1612,2081;2,85955
1610,15694;2,85428
1608,10579;2,84762
1606,05463;2,84101
1604,00347;2,83966
1601,95232;2,84642
1599,90116;2,85162
1597,85001;2,84623
1595,79885;2,83283
1593,7477;2,81674
1591,69654;2,80249
1589,64539;2,79183
1587,59423;2,78237
1585,54308;2,7709
1583,49192;2,7577
1581,44077;2,74554
1579,38961;2,73497
1577,33846;2,72199
1575,2873;2,70729
1573,23614;2,6953
1571,18499;2,68083
1569,13383;2,66278
1567,08268;2,64572
1565,03152;2,62897
1562,98037;2,61119
1560,92921;2,58503
1558,87806;2,55117
1556,8269;2,52875
1554,77575;2,51033
1552,72459;2,48907
1550,67344;2,47048
1548,62228;2,45708
1546,57113;2,44812
1544,51997;2,44316
1542,46881;2,44079
1540,41766;2,436
1538,3665;2,4324
1536,31535;2,43126
1534,26419;2,42672
1532,21304;2,42142
1530,16188;2,41891
1528,11073;2,41847
1526,05957;2,42053
1524,00842;2,4232
1521,95726;2,42282
1519,90611;2,42073
1517,85495;2,41891
1515,80379;2,42104
1513,75264;2,42788
1511,70148;2,4345
1509,65033;2,43729
1507,59917;2,4357
1505,54802;2,43771
1503,49686;2,4449
1501,44571;2,44925
1499,39455;2,4499
1497,3434;2,45081
1495,29224;2,45498
1493,24109;2,46119
1491,18993;2,46848
1489,13878;2,47829
1487,08762;2,48692
1485,03646;2,49323
1482,98531;2,50098
1480,93415;2,51175
1478,883;2,52466
1476,83184;2,5394
1474,78069;2,55653
1472,72953;2,5735
1470,67838;2,5873
1468,62722;2,59582
1466,57607;2,59931
1464,52491;2,60116
1462,47376;2,60445
1460,4226;2,60579
1458,37145;2,59977
1456,32029;2,5912
1454,26913;2,58729
1452,21798;2,58251
1450,16682;2,57495
1448,11567;2,56668
1446,06451;2,55821
1444,01336;2,5495
1441,9622;2,54223
1439,91105;2,53806
1437,85989;2,53381
1435,80874;2,52719
1433,75758;2,51916
1431,70643;2,50872
1429,65527;2,49601
1427,60412;2,48336
1425,55296;2,4719
1423,5018;2,46185
1421,45065;2,45206
1419,39949;2,441
1417,34834;2,43049
1415,29718;2,4186
1413,24603;2,40321
1411,19487;2,38677
1409,14372;2,37378
1407,09256;2,36972
1405,04141;2,37692
1402,99025;2,39092
1400,9391;2,40413
1398,88794;2,41416
1396,83679;2,42251
1394,78563;2,43317
1392,73447;2,45087
1390,68332;2,47365
1388,63216;2,49782
1386,58101;2,52042
1384,52985;2,53824
1382,4787;2,55107
1380,42754;2,56175
1378,37639;2,5737
1376,32523;2,58525
1374,27408;2,59099
1372,22292;2,59259
1370,17177;2,59562
1368,12061;2,60241
1366,06946;2,61071
1364,0183;2,61374
1361,96714;2,60949
1359,91599;2,60436
1357,86483;2,60338
1355,81368;2,60795
1353,76252;2,61576
1351,71137;2,62074
1349,66021;2,62092
1347,60906;2,62004
1345,5579;2,62111
1343,50675;2,62433
1341,45559;2,62889
1339,40444;2,63325
1337,35328;2,63378
1335,30213;2,63072
1333,25097;2,62993
1331,19981;2,6335
1329,14866;2,63803
1327,0975;2,64269
1325,04635;2,64829
1322,99519;2,65153
1320,94404;2,65204
1318,89288;2,65195
1316,84173;2,6509
1314,79057;2,6512
1312,73942;2,65469
1310,68826;2,65821
1308,63711;2,66031
1306,58595;2,66189
1304,5348;2,65968
1302,48364;2,65513
1300,43248;2,65363
1298,38133;2,65351
1296,33017;2,65433
1294,27902;2,65726
1292,22786;2,66089
1290,17671;2,66464
1288,12555;2,66705
1286,0744;2,66862
1284,02324;2,66969
1281,97209;2,66726
1279,92093;2,66243
1277,86978;2,66002
1275,81862;2,66162
1273,76747;2,66428
1271,71631;2,66406
1269,66515;2,66029
1267,614;2,65715
1265,56284;2,65804
1263,51169;2,66012
1261,46053;2,65905
1259,40938;2,65649
1257,35822;2,65701
1255,30707;2,65846
1253,25591;2,65823
1251,20476;2,65967
1249,1536;2,66256
1247,10245;2,66221
1245,05129;2,65898
1243,00013;2,65719
1240,94898;2,65638
1238,89782;2,65697
1236,84667;2,65983
1234,79551;2,66012
1232,74436;2,65983
1230,6932;2,66432
1228,64205;2,66838
1226,59089;2,66553
1224,53974;2,65924
1222,48858;2,65761
1220,43743;2,66057
1218,38627;2,66172
1216,33512;2,66
1214,28396;2,66101
1212,2328;2,6659
1210,18165;2,66756
1208,13049;2,663
1206,07934;2,65628
1204,02818;2,65031
1201,97703;2,64598
1199,92587;2,64544
1197,87472;2,64821
1195,82356;2,65113
1193,77241;2,65321
1191,72125;2,65566
1189,6701;2,65688
1187,61894;2,656
1185,56779;2,66076
1183,51663;2,66838
1181,46547;2,66851
1179,41432;2,66719
1177,36316;2,67226
1175,31201;2,6811
1173,26085;2,69013
1171,2097;2,69583
1169,15854;2,69639
1167,10739;2,69868
1165,05623;2,70254
1163,00508;2,69764
1160,95392;2,68888
1158,90277;2,68837
1156,85161;2,69546
1154,80046;2,69888
1152,7493;2,69365
1150,69814;2,69228
1148,64699;2,70184
1146,59583;2,71
1144,54468;2,70665
1142,49352;2,70084
1140,44237;2,70262
1138,39121;2,70727
1136,34006;2,70707
1134,2889;2,70437
1132,23775;2,70381
1130,18659;2,70442
1128,13544;2,702
1126,08428;2,69519
1124,03313;2,69104
1121,98197;2,69265
1119,93081;2,69353
1117,87966;2,69499
1115,8285;2,69763
1113,77735;2,69614
1111,72619;2,69676
1109,67504;2,70537
1107,62388;2,71591
1105,57273;2,71883
1103,52157;2,71478
1101,47042;2,71075
1099,41926;2,709
1097,36811;2,70741
1095,31695;2,70726
1093,2658;2,7151
1091,21464;2,72793
1089,16348;2,73214
1087,11233;2,72698
1085,06117;2,72404
1083,01002;2,7269
1080,95886;2,72503
1078,90771;2,7162
1076,85655;2,71034
1074,8054;2,70805
1072,75424;2,70734
1070,70309;2,7095
1068,65193;2,7069
1066,60078;2,70108
1064,54962;2,70608
1062,49847;2,71908
1060,44731;2,72081
1058,39615;2,70955
1056,345;2,7035
1054,29384;2,7055
1052,24269;2,70634
1050,19153;2,70984
1048,14038;2,72006
1046,08922;2,7323
1044,03807;2,74032
1041,98691;2,73783
1039,93576;2,73055
1037,8846;2,72754
1035,83345;2,72717
1033,78229;2,72733
1031,73114;2,72737
1029,67998;2,72548
1027,62882;2,72227
1025,57767;2,71949
1023,52651;2,71779
1021,47536;2,71548
1019,4242;2,71085
1017,37305;2,70722
1015,32189;2,70523
1013,27074;2,70222
1011,21958;2,69863
1009,16843;2,6967
1007,11727;2,695
1005,06612;2,69324
1003,01496;2,69415
1000,96381;2,69505
998,91265;2,69254
996,86149;2,68857
994,81034;2,68864
992,75918;2,69247
990,70803;2,69414
988,65687;2,69215
986,60572;2,68795
984,55456;2,68429
982,50341;2,68388
980,45225;2,68574
978,4011;2,68403
976,34994;2,67958
974,29879;2,67855
972,24763;2,6793
970,19647;2,6787
968,14532;2,67364
966,09416;2,66488
964,04301;2,66068
961,99185;2,66073
959,9407;2,65849
957,88954;2,65298
955,83839;2,64774
953,78723;2,64517
951,73608;2,64115
949,68492;2,63165
947,63377;2,61812
945,58261;2,6077
943,53146;2,60712
941,4803;2,6132
939,42914;2,61843
937,37799;2,62232
935,32683;2,6264
933,27568;2,62452
931,22452;2,61666
929,17337;2,61122
927,12221;2,61026
925,07106;2,61292
923,0199;2,61801
920,96875;2,62314
918,91759;2,62712
916,86644;2,62499
914,81528;2,61857
912,76413;2,61912
910,71297;2,62364
908,66181;2,62258
906,61066;2,61661
904,5595;2,61176
902,50835;2,61488
900,45719;2,62356
898,40604;2,62562
896,35488;2,61806
894,30373;2,61151
892,25257;2,60949
890,20142;2,60879
888,15026;2,61646
886,09911;2,64222
884,04795;2,67397
881,9968;2,68418
879,94564;2,66663
877,89448;2,63279
875,84333;2,58621
873,79217;2,53299
871,74102;2,49801
869,68986;2,50824
867,63871;2,55763
865,58755;2,59905
863,5364;2,61033
861,48524;2,61811
859,43409;2,62755
857,38293;2,62486
855,33178;2,62054
853,28062;2,62767
851,22947;2,63752
849,17831;2,64509
847,12715;2,65229
845,076;2,65629
843,02484;2,65312
840,97369;2,64415
838,92253;2,64232
836,87138;2,65264
834,82022;2,65951
832,76907;2,64987
830,71791;2,63502
828,66676;2,63079
826,6156;2,63896
824,56445;2,65647
822,51329;2,67255
820,46214;2,68072
818,41098;2,69331
816,35982;2,71287
814,30867;2,71767
812,25751;2,69981
810,20636;2,68531
808,1552;2,69332
806,10405;2,70907
804,05289;2,70563
802,00174;2,68672
799,95058;2,67343
797,89943;2,67519
795,84827;2,68764
793,79712;2,69859
791,74596;2,70899
789,69481;2,72102
787,64365;2,7318
785,59249;2,73487
783,54134;2,72325
781,49018;2,71032
779,43903;2,71167
777,38787;2,72103
775,33672;2,71884
773,28556;2,70738
771,23441;2,70465
769,18325;2,70916
767,1321;2,71129
765,08094;2,71301
763,02979;2,71799
760,97863;2,71902
758,92748;2,7171
756,87632;2,71896
754,82516;2,72376
752,77401;2,72967
750,72285;2,72636
748,6717;2,71323
746,62054;2,70879
744,56939;2,72651
742,51823;2,74959
740,46708;2,74307
738,41592;2,71541
736,36477;2,70527
734,31361;2,71449
732,26246;2,71709
730,2113;2,71385
728,16015;2,71341
726,10899;2,72071
724,05783;2,73587
722,00668;2,75123
719,95552;2,765
717,90437;2,77619
715,85321;2,76883
713,80206;2,73785
711,7509;2,71144
709,69975;2,70341
707,64859;2,70004
705,59744;2,69652
703,54628;2,70342
701,49513;2,72186
699,44397;2,73527
697,39281;2,73211
695,34166;2,72059
693,2905;2,71522
691,23935;2,71905
689,18819;2,72578
687,13704;2,72158
685,08588;2,69931
683,03473;2,67547
680,98357;2,66946
678,93242;2,68296
676,88126;2,70529
674,83011;2,71862
672,77895;2,71401
670,7278;2,69992
668,67664;2,69181
666,62548;2,70112
664,57433;2,71733
662,52317;2,71895
660,47202;2,70516
658,42086;2,694
656,36971;2,69644
654,31855;2,71392
652,2674;2,73514
650,21624;2,74085
648,16509;2,72942
646,11393;2,70812
644,06278;2,68712
642,01162;2,68699
639,96047;2,71334
637,90931;2,74716
635,85815;2,76556
633,807;2,75823
631,75584;2,7392
629,70469;2,73234
627,65353;2,74178
625,60238;2,74933
623,55122;2,75521
621,50007;2,74446
619,44891;2,70929
617,39776;2,68652
615,3466;2,70552
613,29545;2,74891
611,24429;2,76527
609,19314;2,74295
607,14198;2,73557
605,09082;2,76448
603,03967;2,78286
600,98851;2,76536
598,93736;2,74453
596,8862;2,73384
594,83505;2,73245
592,78389;2,74035
590,73274;2,74611
588,68158;2,7414
586,63043;2,73324
584,57927;2,72965
582,52812;2,73145
580,47696;2,72872
578,42581;2,71865
576,37465;2,72079
574,32349;2,74846
572,27234;2,77725
570,22118;2,78327
568,17003;2,76293
566,11887;2,72391
564,06772;2,69502
562,01656;2,71122
559,96541;2,75278
557,91425;2,76764
555,8631;2,76025
553,81194;2,76304
551,76079;2,78332
549,70963;2,78899
547,65848;2,77403
545,60732;2,76444
543,55616;2,74533
541,50501;2,7318
539,45385;2,75691
537,4027;2,79312
535,35154;2,81506
533,30039;2,82445
531,24923;2,83805
529,19808;2,83791
527,14692;2,77602
525,09577;2,70165
523,04461;2,68461
520,99346;2,71529
518,9423;2,74269
516,89115;2,7363
514,83999;2,73681
512,78883;2,76007
510,73768;2,78427
508,68652;2,82496
506,63537;2,851
504,58421;2,81477
502,53306;2,76511
500,4819;2,75686
498,43075;2,77768
496,37959;2,78771
494,32844;2,78473
492,27728;2,79561
490,22613;2,82111
488,17497;2,815
486,12382;2,75553
484,07266;2,70863
482,0215;2,69335
479,97035;2,68621
477,91919;2,68045
475,86804;2,68722
473,81688;2,72791
471,76573;2,77298
469,71457;2,76229
467,66342;2,75519
465,61226;2,79598
463,56111;2,81882
461,50995;2,79667
459,4588;2,74797
457,40764;2,75684
455,35649;2,82921
453,30533;2,85772
451,25417;2,82219
449,20302;2,79279
447,15186;2,78047
445,10071;2,77512
443,04955;2,8182
440,9984;2,89092
438,94724;2,89047
436,89609;2,8525
434,84493;2,88521
432,79378;2,95038
430,74262;2,91828
428,69147;2,83687
426,64031;2,81888
424,58916;2,85376
422,538;2,84073
420,48684;2,76453
418,43569;2,68817
416,38453;2,62032
414,33338;2,58364
412,28222;2,60963
410,23107;2,66233
408,17991;2,67115
406,12876;2,61918
404,0776;2,59088
402,02645;2,64575
399,97529;2,74888
