3997,70175;1,79713
3995,6506;1,79708
3993,59944;1,79817
3991,54829;1,79865
3989,49713;1,79704
3987,44598;1,79451
3985,39482;1,79369
3983,34367;1,79515
3981,29251;1,79709
3979,24136;1,79778
3977,1902;1,79693
3975,13905;1,79596
3973,08789;1,79583
3971,03673;1,79573
3968,98558;1,7948
3966,93442;1,79349
3964,88327;1,79347
3962,83211;1,79481
3960,78096;1,79584
3958,7298;1,79661
3956,67865;1,79802
3954,62749;1,79902
3952,57634;1,79847
3950,52518;1,79709
3948,47403;1,79643
3946,42287;1,79734
3944,37172;1,79839
3942,32056;1,79785
3940,2694;1,79677
3938,21825;1,79644
3936,16709;1,79619
3934,11594;1,79552
3932,06478;1,79459
3930,01363;1,79377
3927,96247;1,79329
3925,91132;1,79219
3923,86016;1,79035
3921,80901;1,78972
3919,75785;1,79049
3917,7067;1,78988
3915,65554;1,78727
3913,60439;1,78463
3911,55323;1,78233
3909,50207;1,78056
3907,45092;1,77978
3905,39976;1,77926
3903,34861;1,77834
3901,29745;1,77633
3899,2463;1,77372
3897,19514;1,77328
3895,14399;1,77479
3893,09283;1,77521
3891,04168;1,77417
3888,99052;1,77412
3886,93937;1,77401
3884,88821;1,7723
3882,83706;1,77087
3880,7859;1,77019
3878,73474;1,77006
3876,68359;1,76985
3874,63243;1,76862
3872,58128;1,76806
3870,53012;1,76884
3868,47897;1,7701
3866,42781;1,77036
3864,37666;1,7681
3862,3255;1,76519
3860,27435;1,764
3858,22319;1,76465
3856,17204;1,76562
3854,12088;1,76362
3852,06973;1,76034
3850,01857;1,7613
3847,96741;1,76444
3845,91626;1,76558
3843,8651;1,7647
3841,81395;1,76396
3839,76279;1,76314
3837,71164;1,76136
3835,66048;1,75958
3833,60933;1,75808
3831,55817;1,75704
3829,50702;1,75755
3827,45586;1,75883
3825,40471;1,75924
3823,35355;1,75752
3821,3024;1,75427
3819,25124;1,75309
3817,20008;1,75391
3815,14893;1,7554
3813,09777;1,75694
3811,04662;1,7569
3808,99546;1,75507
3806,94431;1,75286
3804,89315;1,7519
3802,842;1,75099
3800,79084;1,75055
3798,73969;1,75204
3796,68853;1,75343
3794,63738;1,75421
3792,58622;1,75452
3790,53506;1,75413
3788,48391;1,75387
3786,43275;1,75416
3784,3816;1,75466
3782,33044;1,75454
3780,27929;1,75254
3778,22813;1,74988
3776,17698;1,74898
3774,12582;1,74969
3772,07467;1,74976
3770,02351;1,74835
3767,97236;1,74744
3765,9212;1,74738
3763,87005;1,74821
3761,81889;1,75022
3759,76773;1,75144
3757,71658;1,75089
3755,66542;1,75053
3753,61427;1,75009
3751,56311;1,74765
3749,51196;1,74628
3747,4608;1,74969
3745,40965;1,75336
3743,35849;1,75359
3741,30734;1,75322
3739,25618;1,75397
3737,20503;1,75449
3735,15387;1,75407
3733,10272;1,75433
3731,05156;1,75624
3729,0004;1,75834
3726,94925;1,75918
3724,89809;1,75993
3722,84694;1,76108
3720,79578;1,76156
3718,74463;1,7622
3716,69347;1,76444
3714,64232;1,76752
3712,59116;1,76996
3710,54001;1,77171
3708,48885;1,77286
3706,4377;1,77378
3704,38654;1,77597
3702,33539;1,78045
3700,28423;1,78677
3698,23307;1,79292
3696,18192;1,79795
3694,13076;1,80243
3692,07961;1,80604
3690,02845;1,80813
3687,9773;1,81
3685,92614;1,814
3683,87499;1,81967
3681,82383;1,82591
3679,77268;1,83257
3677,72152;1,83876
3675,67037;1,84368
3673,61921;1,85005
3671,56806;1,85788
3669,5169;1,86467
3667,46574;1,86999
3665,41459;1,8745
3663,36343;1,87888
3661,31228;1,88383
3659,26112;1,89044
3657,20997;1,89788
3655,15881;1,9041
3653,10766;1,90867
3651,0565;1,91293
3649,00535;1,91908
3646,95419;1,92764
3644,90304;1,93626
3642,85188;1,94302
3640,80073;1,94867
3638,74957;1,9549
3636,69841;1,96238
3634,64726;1,96986
3632,5961;1,97635
3630,54495;1,98259
3628,49379;1,98953
3626,44264;1,9966
3624,39148;2,00314
3622,34033;2,01012
3620,28917;2,01731
3618,23802;2,02385
3616,18686;2,02992
3614,13571;2,03578
3612,08455;2,0415
3610,0334;2,04717
3607,98224;2,05294
3605,93108;2,05885
3603,87993;2,06477
3601,82877;2,07072
3599,77762;2,07658
3597,72646;2,08211
3595,67531;2,08812
3593,62415;2,09535
3591,573;2,10165
3589,52184;2,10507
3587,47069;2,10747
3585,41953;2,11175
3583,36838;2,11762
3581,31722;2,12343
3579,26607;2,12858
3577,21491;2,13334
3575,16375;2,1382
3573,1126;2,14356
3571,06144;2,15034
3569,01029;2,15905
3566,95913;2,16642
3564,90798;2,16901
3562,85682;2,16972
3560,80567;2,17312
3558,75451;2,18024
3556,70336;2,18782
3554,6522;2,19216
3552,60105;2,19483
3550,54989;2,20074
3548,49874;2,20975
3546,44758;2,2177
3544,39642;2,22397
3542,34527;2,23035
3540,29411;2,23592
3538,24296;2,23835
3536,1918;2,23849
3534,14065;2,24003
3532,08949;2,24523
3530,03834;2,25301
3527,98718;2,26005
3525,93603;2,26486
3523,88487;2,26764
3521,83372;2,2685
3519,78256;2,26957
3517,73141;2,27227
3515,68025;2,27635
3513,62909;2,28208
3511,57794;2,28906
3509,52678;2,29627
3507,47563;2,30192
3505,42447;2,30605
3503,37332;2,31172
3501,32216;2,31855
3499,27101;2,32339
3497,21985;2,32588
3495,1687;2,32947
3493,11754;2,33636
3491,06639;2,34488
3489,01523;2,35463
3486,96407;2,36362
3484,91292;2,36857
3482,86176;2,37347
3480,81061;2,37994
3478,75945;2,38147
3476,7083;2,37908
3474,65714;2,37924
3472,60599;2,38343
3470,55483;2,38799
3468,50368;2,38888
3466,45252;2,388
3464,40137;2,38987
3462,35021;2,39445
3460,29906;2,39888
3458,2479;2,40188
3456,19674;2,40486
3454,14559;2,40755
3452,09443;2,40611
3450,04328;2,40373
3447,99212;2,40607
3445,94097;2,41006
3443,88981;2,41346
3441,83866;2,41766
3439,7875;2,4225
3437,73635;2,42914
3435,68519;2,43519
3433,63404;2,43663
3431,58288;2,43782
3429,53173;2,44085
3427,48057;2,44373
3425,42941;2,44777
3423,37826;2,45036
3421,3271;2,45008
3419,27595;2,45264
3417,22479;2,45878
3415,17364;2,46208
3413,12248;2,46016
3411,07133;2,45901
3409,02017;2,46403
3406,96902;2,47276
3404,91786;2,4796
3402,86671;2,48201
3400,81555;2,48403
3398,7644;2,49052
3396,71324;2,49472
3394,66208;2,4944
3392,61093;2,49606
3390,55977;2,49676
3388,50862;2,49226
3386,45746;2,49088
3384,40631;2,49652
3382,35515;2,50313
3380,304;2,50513
3378,25284;2,50577
3376,20169;2,51004
3374,15053;2,51284
3372,09938;2,51201
3370,04822;2,51405
3367,99707;2,51917
3365,94591;2,52349
3363,89475;2,52587
3361,8436;2,52594
3359,79244;2,52585
3357,74129;2,52695
3355,69013;2,53041
3353,63898;2,53958
3351,58782;2,54974
3349,53667;2,55379
3347,48551;2,55526
3345,43436;2,55848
3343,3832;2,56353
3341,33205;2,56836
3339,28089;2,56757
3337,22974;2,56112
3335,17858;2,55755
3333,12742;2,5615
3331,07627;2,56816
3329,02511;2,57318
3326,97396;2,57948
3324,9228;2,58682
3322,87165;2,58803
3320,82049;2,5851
3318,76934;2,58678
3316,71818;2,59305
3314,66703;2,59734
3312,61587;2,59638
3310,56472;2,59385
3308,51356;2,59381
3306,46241;2,59678
3304,41125;2,60345
3302,36009;2,61297
3300,30894;2,61694
3298,25778;2,60845
3296,20663;2,59703
3294,15547;2,59618
3292,10432;2,60206
3290,05316;2,60274
3288,00201;2,60086
3285,95085;2,60099
3283,8997;2,60024
3281,84854;2,60115
3279,79739;2,60163
3277,74623;2,59602
3275,69508;2,59186
3273,64392;2,59396
3271,59276;2,59319
3269,54161;2,58666
3267,49045;2,58221
3265,4393;2,58162
3263,38814;2,58016
3261,33699;2,57928
3259,28583;2,58153
3257,23468;2,58061
3255,18352;2,57405
3253,13237;2,5699
3251,08121;2,56974
3249,03006;2,5659
3246,9789;2,56043
3244,92775;2,55908
3242,87659;2,55567
3240,82543;2,54761
3238,77428;2,54284
3236,72312;2,54346
3234,67197;2,54455
3232,62081;2,54106
3230,56966;2,53472
3228,5185;2,5336
3226,46735;2,53541
3224,41619;2,53373
3222,36504;2,53153
3220,31388;2,53
3218,26273;2,52671
3216,21157;2,52175
3214,16041;2,51933
3212,10926;2,52194
3210,0581;2,52509
3208,00695;2,52713
3205,95579;2,52799
3203,90464;2,52553
3201,85348;2,52058
3199,80233;2,51529
3197,75117;2,51023
3195,70002;2,50529
3193,64886;2,50148
3191,59771;2,49962
3189,54655;2,49921
3187,4954;2,49768
3185,44424;2,49248
3183,39308;2,48685
3181,34193;2,48534
3179,29077;2,48533
3177,23962;2,48327
3175,18846;2,48071
3173,13731;2,47786
3171,08615;2,47528
3169,035;2,47567
3166,98384;2,47653
3164,93269;2,47186
3162,88153;2,46454
3160,83038;2,46223
3158,77922;2,46288
3156,72807;2,45974
3154,67691;2,45322
3152,62575;2,44889
3150,5746;2,44687
3148,52344;2,44336
3146,47229;2,43834
3144,42113;2,43335
3142,36998;2,42866
3140,31882;2,42538
3138,26767;2,42559
3136,21651;2,42737
3134,16536;2,42691
3132,1142;2,42376
3130,06305;2,42031
3128,01189;2,41839
3125,96074;2,4165
3123,90958;2,41543
3121,85842;2,41714
3119,80727;2,41844
3117,75611;2,41788
3115,70496;2,41773
3113,6538;2,419
3111,60265;2,42151
3109,55149;2,42268
3107,50034;2,41965
3105,44918;2,4148
3103,39803;2,41354
3101,34687;2,41592
3099,29572;2,41673
3097,24456;2,41531
3095,19341;2,41635
3093,14225;2,42145
3091,09109;2,42611
3089,03994;2,42518
3086,98878;2,4219
3084,93763;2,42293
3082,88647;2,42698
3080,83532;2,42952
3078,78416;2,43132
3076,73301;2,43551
3074,68185;2,44002
3072,6307;2,44074
3070,57954;2,43925
3068,52839;2,43948
3066,47723;2,44221
3064,42608;2,44494
3062,37492;2,44703
3060,32376;2,45099
3058,27261;2,45519
3056,22145;2,45542
3054,1703;2,4535
3052,11914;2,45409
3050,06799;2,45641
3048,01683;2,45838
3045,96568;2,46153
3043,91452;2,46242
3041,86337;2,45853
3039,81221;2,45818
3037,76106;2,46374
3035,7099;2,46732
3033,65875;2,46696
3031,60759;2,46565
3029,55643;2,46549
3027,50528;2,46863
3025,45412;2,47423
3023,40297;2,48134
3021,35181;2,48833
3019,30066;2,49203
3017,2495;2,49461
3015,19835;2,49955
3013,14719;2,50613
3011,09604;2,51243
3009,04488;2,51997
3006,99373;2,5288
3004,94257;2,53757
3002,89142;2,55048
3000,84026;2,56742
2998,7891;2,58446
2996,73795;2,60401
2994,68679;2,63089
2992,63564;2,66231
2990,58448;2,68918
2988,53333;2,71049
2986,48217;2,73339
2984,43102;2,76245
2982,37986;2,79492
2980,32871;2,82442
2978,27755;2,85357
2976,2264;2,88745
2974,17524;2,92467
2972,12409;2,95875
2970,07293;2,98414
2968,02177;2,99911
2965,97062;3,00625
2963,91946;3,01436
2961,86831;3,03023
2959,81715;3,04899
2957,766;3,05499
2955,71484;3,04215
2953,66369;3,01768
2951,61253;2,99632
2949,56138;2,99449
2947,51022;3,00913
2945,45907;3,01523
2943,40791;3,00636
2941,35675;2,99597
2939,3056;2,9958
2937,25444;3,00413
2935,20329;3,01772
2933,15213;3,0318
2931,10098;3,03238
2929,04982;3,02265
2926,99867;3,01053
2924,94751;2,99448
2922,89636;2,98999
2920,8452;2,99515
2918,79405;2,988
2916,74289;2,97158
2914,69174;2,96037
2912,64058;2,95902
2910,58942;2,96451
2908,53827;2,96457
2906,48711;2,9522
2904,43596;2,93679
2902,3848;2,92673
2900,33365;2,92044
2898,28249;2,91871
2896,23134;2,9187
2894,18018;2,91205
2892,12903;2,9052
2890,07787;2,906
2888,02672;2,90095
2885,97556;2,87946
2883,92441;2,86184
2881,87325;2,86179
2879,82209;2,86428
2877,77094;2,86366
2875,71978;2,86692
2873,66863;2,88156
2871,61747;2,9039
2869,56632;2,91611
2867,51516;2,9138
2865,46401;2,90643
2863,41285;2,9069
2861,3617;2,91224
2859,31054;2,91021
2857,25939;2,90482
2855,20823;2,90459
2853,15708;2,8985
2851,10592;2,88119
2849,05476;2,86581
2847,00361;2,85519
2844,95245;2,84323
2842,9013;2,82702
2840,85014;2,8042
2838,79899;2,76819
2836,74783;2,72348
2834,69668;2,67844
2832,64552;2,63319
2830,59437;2,59208
2828,54321;2,55813
2826,49206;2,52917
2824,4409;2,50344
2822,38975;2,4798
2820,33859;2,45841
2818,28743;2,43935
2816,23628;2,42111
2814,18512;2,40454
2812,13397;2,38967
2810,08281;2,37331
2808,03166;2,35697
2805,9805;2,34303
2803,92935;2,33042
2801,87819;2,31999
2799,82704;2,3127
2797,77588;2,30818
2795,72473;2,30326
2793,67357;2,29336
2791,62242;2,28099
2789,57126;2,27019
2787,5201;2,26081
2785,46895;2,25383
2783,41779;2,24973
2781,36664;2,24489
2779,31548;2,23736
2777,26433;2,22997
2775,21317;2,22546
2773,16202;2,22286
2771,11086;2,21849
2769,05971;2,21156
2767,00855;2,20509
2764,9574;2,20133
2762,90624;2,19944
2760,85509;2,1968
2758,80393;2,19379
2756,75277;2,19297
2754,70162;2,19389
2752,65046;2,19353
2750,59931;2,19082
2748,54815;2,18813
2746,497;2,18735
2744,44584;2,18792
2742,39469;2,18853
2740,34353;2,18924
2738,29238;2,19235
2736,24122;2,19756
2734,19007;2,20179
2732,13891;2,2045
2730,08776;2,2058
2728,0366;2,20493
2725,98544;2,20351
2723,93429;2,20273
2721,88313;2,20013
2719,83198;2,19639
2717,78082;2,19283
2715,72967;2,18675
2713,67851;2,17933
2711,62736;2,17397
2709,5762;2,16948
2707,52505;2,16384
2705,47389;2,15936
2703,42274;2,15765
2701,37158;2,15567
2699,32043;2,15183
2697,26927;2,14844
2695,21811;2,14668
2693,16696;2,14576
2691,1158;2,1451
2689,06465;2,14432
2687,01349;2,14368
2684,96234;2,14242
2682,91118;2,14092
2680,86003;2,14128
2678,80887;2,14174
2676,75772;2,14099
2674,70656;2,14031
2672,65541;2,13949
2670,60425;2,13811
2668,55309;2,13625
2666,50194;2,13438
2664,45078;2,13333
2662,39963;2,13186
2660,34847;2,12757
2658,29732;2,12271
2656,24616;2,12083
2654,19501;2,12074
2652,14385;2,11949
2650,0927;2,11687
2648,04154;2,1145
2645,99039;2,11213
2643,93923;2,10893
2641,88808;2,10557
2639,83692;2,10446
2637,78576;2,10595
2635,73461;2,10661
2633,68345;2,10617
2631,6323;2,10651
2629,58114;2,10686
2627,52999;2,10588
2625,47883;2,1042
2623,42768;2,10325
2621,37652;2,10214
2619,32537;2,09961
2617,27421;2,0969
2615,22306;2,09507
2613,1719;2,0942
2611,12075;2,09383
2609,06959;2,09262
2607,01843;2,09079
2604,96728;2,08916
2602,91612;2,08732
2600,86497;2,08538
2598,81381;2,08402
2596,76266;2,08294
2594,7115;2,08156
2592,66035;2,08014
2590,60919;2,0779
2588,55804;2,07396
2586,50688;2,06981
2584,45573;2,06734
2582,40457;2,06669
2580,35342;2,06623
2578,30226;2,06394
2576,2511;2,0601
2574,19995;2,05604
2572,14879;2,05273
2570,09764;2,05133
2568,04648;2,05073
2565,99533;2,04883
2563,94417;2,04641
2561,89302;2,04484
2559,84186;2,0434
2557,79071;2,04065
2555,73955;2,03686
2553,6884;2,03476
2551,63724;2,03556
2549,58609;2,03626
2547,53493;2,03469
2545,48377;2,0322
2543,43262;2,02998
2541,38146;2,02805
2539,33031;2,0266
2537,27915;2,0261
2535,228;2,02637
2533,17684;2,02612
2531,12569;2,02451
2529,07453;2,02289
2527,02338;2,02244
2524,97222;2,02172
2522,92107;2,02017
2520,86991;2,01866
2518,81876;2,01735
2516,7676;2,01639
2514,71644;2,01512
2512,66529;2,01262
2510,61413;2,01022
2508,56298;2,00898
2506,51182;2,0079
2504,46067;2,00668
2502,40951;2,00538
2500,35836;2,00331
2498,3072;2,0006
2496,25605;1,99843
2494,20489;1,99699
2492,15374;1,99531
2490,10258;1,99297
2488,05143;1,99035
2486,00027;1,98812
2483,94911;1,98612
2481,89796;1,98378
2479,8468;1,98144
2477,79565;1,97933
2475,74449;1,97717
2473,69334;1,97507
2471,64218;1,97337
2469,59103;1,97178
2467,53987;1,96979
2465,48872;1,96783
2463,43756;1,96599
2461,38641;1,96437
2459,33525;1,96336
2457,2841;1,96172
2455,23294;1,95949
2453,18178;1,9574
2451,13063;1,95493
2449,07947;1,95302
2447,02832;1,95258
2444,97716;1,95275
2442,92601;1,95264
2440,87485;1,9521
2438,8237;1,95126
2436,77254;1,95024
2434,72139;1,94919
2432,67023;1,9479
2430,61908;1,9462
2428,56792;1,94424
2426,51677;1,94283
2424,46561;1,94256
2422,41445;1,9424
2420,3633;1,94139
2418,31214;1,94018
2416,26099;1,93928
2414,20983;1,93887
2412,15868;1,93884
2410,10752;1,93813
2408,05637;1,93708
2406,00521;1,93679
2403,95406;1,9367
2401,9029;1,93618
2399,85175;1,9351
2397,80059;1,93333
2395,74944;1,93111
2393,69828;1,92934
2391,64712;1,92887
2389,59597;1,92925
2387,54481;1,92887
2385,49366;1,92737
2383,4425;1,92659
2381,39135;1,92736
2379,34019;1,92755
2377,28904;1,92577
2375,23788;1,92395
2373,18673;1,92417
2371,13557;1,92567
2369,08442;1,92649
2367,03326;1,92632
2364,9821;1,9255
2362,93095;1,92216
2360,87979;1,91602
2358,82864;1,91159
2356,77748;1,91121
2354,72633;1,91235
2352,67517;1,91322
2350,62402;1,91382
2348,57286;1,91391
2346,52171;1,91324
2344,47055;1,91216
2342,4194;1,91187
2340,36824;1,91302
2338,31709;1,91359
2336,26593;1,91203
2334,21477;1,91021
2332,16362;1,91019
2330,11246;1,91148
2328,06131;1,91272
2326,01015;1,91316
2323,959;1,91292
2321,90784;1,91233
2319,85669;1,91142
2317,80553;1,91064
2315,75438;1,91106
2313,70322;1,91243
2311,65207;1,91274
2309,60091;1,91144
2307,54976;1,90993
2305,4986;1,90858
2303,44744;1,90672
2301,39629;1,90461
2299,34513;1,90361
2297,29398;1,90414
2295,24282;1,9049
2293,19167;1,90446
2291,14051;1,9025
2289,08936;1,89999
2287,0382;1,89832
2284,98705;1,8977
2282,93589;1,897
2280,88474;1,89613
2278,83358;1,89634
2276,78243;1,89736
2274,73127;1,89777
2272,68011;1,89742
2270,62896;1,89668
2268,5778;1,8956
2266,52665;1,89469
2264,47549;1,89434
2262,42434;1,89401
2260,37318;1,89359
2258,32203;1,89354
2256,27087;1,89339
2254,21972;1,89257
2252,16856;1,89146
2250,11741;1,89096
2248,06625;1,89178
2246,0151;1,89304
2243,96394;1,8943
2241,91278;1,89485
2239,86163;1,89392
2237,81047;1,89199
2235,75932;1,89037
2233,70816;1,89024
2231,65701;1,89121
2229,60585;1,89132
2227,5547;1,89079
2225,50354;1,8911
2223,45239;1,89173
2221,40123;1,89195
2219,35008;1,89234
2217,29892;1,89259
2215,24777;1,89185
2213,19661;1,89138
2211,14545;1,89209
2209,0943;1,8927
2207,04314;1,89304
2204,99199;1,89327
2202,94083;1,89302
2200,88968;1,89273
2198,83852;1,89258
2196,78737;1,89285
2194,73621;1,89401
2192,68506;1,89559
2190,6339;1,89621
2188,58275;1,89567
2186,53159;1,89523
2184,48044;1,89515
2182,42928;1,89505
2180,37812;1,89512
2178,32697;1,89531
2176,27581;1,89524
2174,22466;1,89481
2172,1735;1,89441
2170,12235;1,89474
2168,07119;1,89563
2166,02004;1,89649
2163,96888;1,89764
2161,91773;1,89854
2159,86657;1,89823
2157,81542;1,89804
2155,76426;1,89885
2153,71311;1,89926
2151,66195;1,89901
2149,61079;1,89936
2147,55964;1,90032
2145,50848;1,90091
2143,45733;1,90078
2141,40617;1,90025
2139,35502;1,89941
2137,30386;1,89855
2135,25271;1,89777
2133,20155;1,89682
2131,1504;1,8962
2129,09924;1,89568
2127,04809;1,89482
2124,99693;1,89439
2122,94578;1,89455
2120,89462;1,89397
2118,84346;1,89256
2116,79231;1,89162
2114,74115;1,89112
2112,69;1,8903
2110,63884;1,88942
2108,58769;1,88902
2106,53653;1,88918
2104,48538;1,88981
2102,43422;1,89029
2100,38307;1,89041
2098,33191;1,89059
2096,28076;1,89036
2094,2296;1,89004
2092,17844;1,88923
2090,12729;1,88807
2088,07613;1,88806
2086,02498;1,88863
2083,97382;1,88847
2081,92267;1,88771
2079,87151;1,88712
2077,82036;1,88727
2075,7692;1,8877
2073,71805;1,88775
2071,66689;1,88769
2069,61574;1,88768
2067,56458;1,88773
2065,51343;1,8882
2063,46227;1,88912
2061,41111;1,88986
2059,35996;1,88988
2057,3088;1,88951
2055,25765;1,88933
2053,20649;1,88956
2051,15534;1,88997
2049,10418;1,89039
2047,05303;1,89131
2045,00187;1,89211
2042,95072;1,8916
2040,89956;1,89073
2038,84841;1,8904
2036,79725;1,89017
2034,7461;1,88999
2032,69494;1,88962
2030,64378;1,88893
2028,59263;1,88852
2026,54147;1,88858
2024,49032;1,88856
2022,43916;1,88819
2020,38801;1,88781
2018,33685;1,88734
2016,2857;1,8868
2014,23454;1,8863
2012,18339;1,88538
2010,13223;1,88449
2008,08108;1,88431
2006,02992;1,88425
2003,97877;1,88381
2001,92761;1,88331
1999,87645;1,88268
1997,8253;1,88165
1995,77414;1,88091
1993,72299;1,88099
1991,67183;1,88151
1989,62068;1,88223
1987,56952;1,8828
1985,51837;1,88315
1983,46721;1,88381
1981,41606;1,88504
1979,3649;1,88579
1977,31375;1,88537
1975,26259;1,88497
1973,21144;1,88542
1971,16028;1,88596
1969,10912;1,88556
1967,05797;1,8851
1965,00681;1,8867
1962,95566;1,8894
1960,9045;1,89067
1958,85335;1,8905
1956,80219;1,88977
1954,75104;1,88891
1952,69988;1,88848
1950,64873;1,88879
1948,59757;1,88975
1946,54642;1,8908
1944,49526;1,89103
1942,44411;1,89067
1940,39295;1,89136
1938,34179;1,8932
1936,29064;1,89496
1934,23948;1,89611
1932,18833;1,89676
1930,13717;1,89715
1928,08602;1,89793
1926,03486;1,89952
1923,98371;1,90108
1921,93255;1,90271
1919,8814;1,90433
1917,83024;1,90498
1915,77909;1,90542
1913,72793;1,90606
1911,67678;1,90705
1909,62562;1,9089
1907,57446;1,91089
1905,52331;1,91192
1903,47215;1,9123
1901,421;1,91306
1899,36984;1,91453
1897,31869;1,91572
1895,26753;1,91564
1893,21638;1,91527
1891,16522;1,91566
1889,11407;1,91657
1887,06291;1,91731
1885,01176;1,91709
1882,9606;1,91666
1880,90945;1,91683
1878,85829;1,91727
1876,80713;1,91755
1874,75598;1,9177
1872,70482;1,91816
1870,65367;1,91842
1868,60251;1,91842
1866,55136;1,91962
1864,5002;1,92118
1862,44905;1,92151
1860,39789;1,92125
1858,34674;1,92162
1856,29558;1,92271
1854,24443;1,92397
1852,19327;1,92523
1850,14212;1,92657
1848,09096;1,92749
1846,0398;1,92681
1843,98865;1,92563
1841,93749;1,9273
1839,88634;1,93063
1837,83518;1,93281
1835,78403;1,93414
1833,73287;1,93557
1831,68172;1,93629
1829,63056;1,93655
1827,57941;1,93822
1825,52825;1,94075
1823,4771;1,94352
1821,42594;1,94631
1819,37478;1,94846
1817,32363;1,95025
1815,27247;1,95252
1813,22132;1,95545
1811,17016;1,95887
1809,11901;1,96302
1807,06785;1,96818
1805,0167;1,97373
1802,96554;1,97831
1800,91439;1,98181
1798,86323;1,98556
1796,81208;1,98973
1794,76092;1,993
1792,70977;1,99526
1790,65861;1,99879
1788,60745;2,00365
1786,5563;2,00791
1784,50514;2,01172
1782,45399;2,0158
1780,40283;2,02046
1778,35168;2,02625
1776,30052;2,03253
1774,24937;2,0383
1772,19821;2,04434
1770,14706;2,05191
1768,0959;2,06018
1766,04475;2,06841
1763,99359;2,07584
1761,94244;2,08324
1759,89128;2,09257
1757,84012;2,10251
1755,78897;2,11208
1753,73781;2,12194
1751,68666;2,13254
1749,6355;2,14378
1747,58435;2,15365
1745,53319;2,16242
1743,48204;2,17187
1741,43088;2,18192
1739,37973;2,19204
1737,32857;2,20159
1735,27742;2,21119
1733,22626;2,22528
1731,17511;2,24268
1729,12395;2,2587
1727,07279;2,27278
1725,02164;2,28446
1722,97048;2,29504
1720,91933;2,30651
1718,86817;2,32034
1716,81702;2,34089
1714,76586;2,3676
1712,71471;2,39364
1710,66355;2,4162
1708,6124;2,43812
1706,56124;2,46371
1704,51009;2,49096
1702,45893;2,51356
1700,40778;2,53894
1698,35662;2,57611
1696,30546;2,61155
1694,25431;2,63508
1692,20315;2,65015
1690,152;2,66412
1688,10084;2,67894
1686,04969;2,69254
1683,99853;2,7081
1681,94738;2,72694
1679,89622;2,74115
1677,84507;2,74706
1675,79391;2,74988
1673,74276;2,75727
1671,6916;2,76759
1669,64045;2,77745
1667,58929;2,79016
1665,53813;2,80574
1663,48698;2,81907
1661,43582;2,82719
1659,38467;2,83507
1657,33351;2,84312
1655,28236;2,84285
1653,2312;2,83615
1651,18005;2,83355
1649,12889;2,82959
1647,07774;2,82562
1645,02658;2,83088
1642,97543;2,83874
1640,92427;2,84022
1638,87312;2,83571
1636,82196;2,83135
1634,7708;2,83147
1632,71965;2,82979
1630,66849;2,82135
1628,61734;2,81284
1626,56618;2,81043
1624,51503;2,80768
1622,46387;2,80108
1620,41272;2,79739
1618,36156;2,79471
1616,31041;2,78932
1614,25925;2,78752
1612,2081;2,78923
1610,15694;2,78788
1608,10579;2,78157
1606,05463;2,77511
1604,00347;2,77428
1601,95232;2,77543
1599,90116;2,76981
1597,85001;2,75859
1595,79885;2,75001
1593,7477;2,7489
1591,69654;2,75288
1589,64539;2,75372
1587,59423;2,74862
1585,54308;2,74148
1583,49192;2,73372
1581,44077;2,72718
1579,38961;2,72435
1577,33846;2,72417
1575,2873;2,72734
1573,23614;2,73433
1571,18499;2,74098
1569,13383;2,74476
1567,08268;2,74439
1565,03152;2,73912
1562,98037;2,73257
1560,92921;2,72562
1558,87806;2,71797
1556,8269;2,71641
1554,77575;2,71671
1552,72459;2,71503
1550,67344;2,71583
1548,62228;2,72001
1546,57113;2,72145
1544,51997;2,71474
1542,46881;2,70254
1540,41766;2,69398
1538,3665;2,69432
1536,31535;2,69419
1534,26419;2,68772
1532,21304;2,68336
1530,16188;2,68251
1528,11073;2,67616
1526,05957;2,66522
1524,00842;2,65738
1521,95726;2,65538
1519,90611;2,6575
1517,85495;2,65615
1515,80379;2,6502
1513,75264;2,64749
1511,70148;2,64925
1509,65033;2,64695
1507,59917;2,63356
1505,54802;2,61921
1503,49686;2,61506
1501,44571;2,61505
1499,39455;2,61409
1497,3434;2,61202
1495,29224;2,6112
1493,24109;2,61234
1491,18993;2,61357
1489,13878;2,61659
1487,08762;2,62359
1485,03646;2,63504
1482,98531;2,65198
1480,93415;2,67312
1478,883;2,69809
1476,83184;2,7303
1474,78069;2,76799
1472,72953;2,80599
1470,67838;2,8403
1468,62722;2,86585
1466,57607;2,88287
1464,52491;2,89169
1462,47376;2,89088
1460,4226;2,8827
1458,37145;2,87478
1456,32029;2,87405
1454,26913;2,87532
1452,21798;2,87059
1450,16682;2,8555
1448,11567;2,83349
1446,06451;2,81573
1444,01336;2,80263
1441,9622;2,79
1439,91105;2,78263
1437,85989;2,77842
1435,80874;2,76266
1433,75758;2,73502
1431,70643;2,71185
1429,65527;2,69759
1427,60412;2,68465
1425,55296;2,67124
1423,5018;2,66227
1421,45065;2,6575
1419,39949;2,65332
1417,34834;2,65043
1415,29718;2,64671
1413,24603;2,63954
1411,19487;2,63208
1409,14372;2,62801
1407,09256;2,62896
1405,04141;2,63459
1402,99025;2,6416
1400,9391;2,64677
1398,88794;2,64925
1396,83679;2,6533
1394,78563;2,66748
1392,73447;2,69276
1390,68332;2,71948
1388,63216;2,74208
1386,58101;2,76249
1384,52985;2,7823
1382,4787;2,80062
1380,42754;2,81442
1378,37639;2,82068
1376,32523;2,82029
1374,27408;2,81427
1372,22292;2,80082
1370,17177;2,78156
1368,12061;2,76489
1366,06946;2,75631
1364,0183;2,74886
1361,96714;2,73343
1359,91599;2,71255
1357,86483;2,69589
1355,81368;2,68904
1353,76252;2,68951
1351,71137;2,69044
1349,66021;2,68689
1347,60906;2,68118
1345,5579;2,67903
1343,50675;2,67956
1341,45559;2,67712
1339,40444;2,67382
1337,35328;2,67498
1335,30213;2,67533
1333,25097;2,67255
1331,19981;2,67316
1329,14866;2,67799
1327,0975;2,67956
1325,04635;2,67449
1322,99519;2,66835
1320,94404;2,6652
1318,89288;2,66544
1316,84173;2,66787
1314,79057;2,67043
1312,73942;2,6737
1310,68826;2,67632
1308,63711;2,67399
1306,58595;2,66668
1304,5348;2,66141
1302,48364;2,6601
1300,43248;2,65438
1298,38133;2,64431
1296,33017;2,64008
1294,27902;2,6434
1292,22786;2,6458
1290,17671;2,64369
1288,12555;2,64158
1286,0744;2,64029
1284,02324;2,63786
1281,97209;2,63484
1279,92093;2,63156
1277,86978;2,62935
1275,81862;2,62898
1273,76747;2,62895
1271,71631;2,62867
1269,66515;2,62853
1267,614;2,62924
1265,56284;2,62865
1263,51169;2,62486
1261,46053;2,62229
1259,40938;2,62335
1257,35822;2,6237
1255,30707;2,62097
1253,25591;2,61753
1251,20476;2,61788
1249,1536;2,62345
1247,10245;2,62824
1245,05129;2,62769
1243,00013;2,62447
1240,94898;2,6224
1238,89782;2,6221
1236,84667;2,62033
1234,79551;2,61718
1232,74436;2,61469
1230,6932;2,61142
1228,64205;2,60639
1226,59089;2,60088
1224,53974;2,59792
1222,48858;2,59782
1220,43743;2,59317
1218,38627;2,58064
1216,33512;2,56919
1214,28396;2,56546
1212,2328;2,56707
1210,18165;2,56741
1208,13049;2,56266
1206,07934;2,55369
1204,02818;2,54526
1201,97703;2,54501
1199,92587;2,54963
1197,87472;2,549
1195,82356;2,54184
1193,77241;2,53403
1191,72125;2,52987
1189,6701;2,52808
1187,61894;2,52761
1185,56779;2,5299
1183,51663;2,53239
1181,46547;2,5313
1179,41432;2,5312
1177,36316;2,53729
1175,31201;2,54642
1173,26085;2,55146
1171,2097;2,54947
1169,15854;2,54498
1167,10739;2,54132
1165,05623;2,53736
1163,00508;2,53515
1160,95392;2,53804
1158,90277;2,54034
1156,85161;2,53597
1154,80046;2,52923
1152,7493;2,52391
1150,69814;2,51854
1148,64699;2,51406
1146,59583;2,51028
1144,54468;2,50572
1142,49352;2,504
1140,44237;2,50533
1138,39121;2,50425
1136,34006;2,49811
1134,2889;2,49276
1132,23775;2,49434
1130,18659;2,50045
1128,13544;2,50574
1126,08428;2,50569
1124,03313;2,50143
1121,98197;2,49978
1119,93081;2,50255
1117,87966;2,5027
1115,8285;2,49824
1113,77735;2,49737
1111,72619;2,50081
1109,67504;2,50148
1107,62388;2,50016
1105,57273;2,50105
1103,52157;2,50238
1101,47042;2,50239
1099,41926;2,50199
1097,36811;2,50215
1095,31695;2,50284
1093,2658;2,50323
1091,21464;2,50605
1089,16348;2,51341
1087,11233;2,52075
1085,06117;2,52162
1083,01002;2,51775
1080,95886;2,51618
1078,90771;2,51618
1076,85655;2,51456
1074,8054;2,51616
1072,75424;2,52208
1070,70309;2,52352
1068,65193;2,51783
1066,60078;2,51149
1064,54962;2,51014
1062,49847;2,51259
1060,44731;2,51235
1058,39615;2,50733
1056,345;2,50271
1054,29384;2,50235
1052,24269;2,5037
1050,19153;2,50574
1048,14038;2,50613
1046,08922;2,50202
1044,03807;2,50004
1041,98691;2,50298
1039,93576;2,50418
1037,8846;2,50243
1035,83345;2,50436
1033,78229;2,51245
1031,73114;2,5171
1029,67998;2,51136
1027,62882;2,50376
1025,57767;2,49986
1023,52651;2,49491
1021,47536;2,48889
1019,4242;2,48301
1017,37305;2,47743
1015,32189;2,4749
1013,27074;2,47066
1011,21958;2,46228
1009,16843;2,45573
1007,11727;2,44957
1005,06612;2,44314
1003,01496;2,44106
1000,96381;2,44085
998,91265;2,43633
996,86149;2,42791
994,81034;2,42024
992,75918;2,41385
990,70803;2,40702
988,65687;2,40385
986,60572;2,40634
984,55456;2,40696
982,50341;2,40497
980,45225;2,40703
978,4011;2,41085
976,34994;2,41029
974,29879;2,40601
972,24763;2,40186
970,19647;2,39912
968,14532;2,39588
966,09416;2,38935
964,04301;2,38203
961,99185;2,38
959,9407;2,38335
957,88954;2,38675
955,83839;2,38686
953,78723;2,38418
951,73608;2,38134
949,68492;2,38052
947,63377;2,38103
945,58261;2,38035
943,53146;2,37799
941,4803;2,37574
939,42914;2,37359
937,37799;2,36994
935,32683;2,36761
933,27568;2,37075
931,22452;2,37384
929,17337;2,37109
927,12221;2,36792
925,07106;2,36871
923,0199;2,36924
920,96875;2,36784
918,91759;2,367
916,86644;2,3658
914,81528;2,3666
912,76413;2,37185
910,71297;2,37781
908,66181;2,38156
906,61066;2,3837
904,5595;2,38828
902,50835;2,39595
900,45719;2,40186
898,40604;2,40573
896,35488;2,41113
894,30373;2,41598
892,25257;2,41782
890,20142;2,42269
888,15026;2,43093
886,09911;2,4376
884,04795;2,44699
881,9968;2,45575
879,94564;2,45547
877,89448;2,45221
875,84333;2,44768
873,79217;2,43896
871,74102;2,43629
869,68986;2,44837
867,63871;2,4678
865,58755;2,47872
863,5364;2,47926
861,48524;2,47735
859,43409;2,47329
857,38293;2,47093
855,33178;2,47362
853,28062;2,47623
851,22947;2,47574
849,17831;2,47544
847,12715;2,4757
845,076;2,47095
843,02484;2,46275
840,97369;2,45689
838,92253;2,45473
836,87138;2,45682
834,82022;2,46424
832,76907;2,47336
830,71791;2,47583
828,66676;2,47272
826,6156;2,47664
824,56445;2,4927
822,51329;2,50761
820,46214;2,51257
818,41098;2,51887
816,35982;2,5298
814,30867;2,53201
812,25751;2,52595
810,20636;2,52365
808,1552;2,52129
806,10405;2,51524
804,05289;2,51606
802,00174;2,51924
799,95058;2,51476
797,89943;2,50634
795,84827;2,49821
793,79712;2,49989
791,74596;2,51052
789,69481;2,51904
787,64365;2,5207
785,59249;2,51534
783,54134;2,51176
781,49018;2,50856
779,43903;2,50521
777,38787;2,50862
775,33672;2,51407
773,28556;2,51426
771,23441;2,51126
769,18325;2,51232
767,1321;2,51909
765,08094;2,52809
763,02979;2,5318
760,97863;2,52363
758,92748;2,51497
756,87632;2,52537
754,82516;2,54902
752,77401;2,56109
750,72285;2,56262
748,6717;2,56613
746,62054;2,56489
744,56939;2,55653
742,51823;2,55433
740,46708;2,55596
738,41592;2,55193
736,36477;2,55486
734,31361;2,56763
732,26246;2,57608
730,2113;2,57401
728,16015;2,57197
726,10899;2,57899
724,05783;2,57654
722,00668;2,56016
719,95552;2,54505
717,90437;2,53988
715,85321;2,54284
713,80206;2,54377
711,7509;2,53903
709,69975;2,53939
707,64859;2,54389
705,59744;2,5417
703,54628;2,54411
701,49513;2,55863
699,44397;2,56378
697,39281;2,55557
695,34166;2,5549
693,2905;2,56149
691,23935;2,55687
689,18819;2,54107
687,13704;2,53086
685,08588;2,53178
683,03473;2,53735
680,98357;2,54122
678,93242;2,54177
676,88126;2,54309
674,83011;2,54897
672,77895;2,55505
670,7278;2,55481
668,67664;2,55053
666,62548;2,55083
664,57433;2,55144
662,52317;2,54504
660,47202;2,53951
658,42086;2,53796
656,36971;2,52911
654,31855;2,51695
652,2674;2,52029
650,21624;2,53641
648,16509;2,54295
646,11393;2,53466
644,06278;2,52847
642,01162;2,53378
639,96047;2,54158
637,90931;2,54563
635,85815;2,55181
633,807;2,55788
631,75584;2,55425
629,70469;2,54386
627,65353;2,53744
625,60238;2,54031
623,55122;2,54479
621,50007;2,5441
619,44891;2,54842
617,39776;2,56362
615,3466;2,58027
613,29545;2,59341
611,24429;2,594
609,19314;2,5805
607,14198;2,5754
605,09082;2,58675
603,03967;2,60156
600,98851;2,61333
598,93736;2,62313
596,8862;2,62524
594,83505;2,6023
592,78389;2,56924
590,73274;2,55141
588,68158;2,55073
586,63043;2,55919
584,57927;2,58489
582,52812;2,62691
580,47696;2,63847
578,42581;2,60702
576,37465;2,57687
574,32349;2,56902
572,27234;2,57621
570,22118;2,5747
568,17003;2,56561
566,11887;2,5728
564,06772;2,57422
562,01656;2,5502
559,96541;2,53913
557,91425;2,56132
555,8631;2,59246
553,81194;2,59744
551,76079;2,56056
549,70963;2,51746
547,65848;2,51322
545,60732;2,53308
543,55616;2,53628
541,50501;2,53328
539,45385;2,5446
537,4027;2,54513
535,35154;2,52373
533,30039;2,50992
531,24923;2,51735
529,19808;2,52924
527,14692;2,52724
525,09577;2,52405
523,04461;2,53021
520,99346;2,53747
518,9423;2,55016
516,89115;2,56246
514,83999;2,55922
512,78883;2,55003
510,73768;2,54991
508,68652;2,55117
506,63537;2,5422
504,58421;2,5223
502,53306;2,50459
500,4819;2,50867
498,43075;2,52141
496,37959;2,52235
494,32844;2,51621
492,27728;2,51442
490,22613;2,52972
488,17497;2,55524
486,12382;2,55901
484,07266;2,53643
482,0215;2,53106
479,97035;2,56004
477,91919;2,5759
475,86804;2,55635
473,81688;2,55328
471,76573;2,57323
469,71457;2,56672
467,66342;2,54692
465,61226;2,54128
463,56111;2,54283
461,50995;2,5494
459,4588;2,54001
457,40764;2,51708
455,35649;2,52321
453,30533;2,55154
451,25417;2,57188
449,20302;2,57224
447,15186;2,54808
445,10071;2,5244
443,04955;2,54842
440,9984;2,60404
438,94724;2,60803
436,89609;2,55793
434,84493;2,51239
432,79378;2,48749
430,74262;2,48072
428,69147;2,49671
426,64031;2,53498
424,58916;2,57699
422,538;2,59755
420,48684;2,56356
418,43569;2,48126
416,38453;2,46681
414,33338;2,51563
412,28222;2,52808
410,23107;2,49264
408,17991;2,46253
406,12876;2,46873
404,0776;2,52152
402,02645;2,57739
399,97529;2,57751
