3997,70175;1,82443
3995,6506;1,82621
3993,59944;1,82758
3991,54829;1,82834
3989,49713;1,82932
3987,44598;1,83154
3985,39482;1,8341
3983,34367;1,83557
3981,29251;1,83633
3979,24136;1,83699
3977,1902;1,83768
3975,13905;1,83886
3973,08789;1,84117
3971,03673;1,84518
3968,98558;1,85022
3966,93442;1,85473
3964,88327;1,8589
3962,83211;1,86321
3960,78096;1,86734
3958,7298;1,87224
3956,67865;1,87786
3954,62749;1,88178
3952,57634;1,88402
3950,52518;1,88703
3948,47403;1,89082
3946,42287;1,8927
3944,37172;1,89165
3942,32056;1,89003
3940,2694;1,88948
3938,21825;1,88841
3936,16709;1,88585
3934,11594;1,88251
3932,06478;1,87688
3930,01363;1,8677
3927,96247;1,85813
3925,91132;1,85052
3923,86016;1,84398
3921,80901;1,83696
3919,75785;1,82841
3917,7067;1,81951
3915,65554;1,81223
3913,60439;1,80644
3911,55323;1,80102
3909,50207;1,79479
3907,45092;1,78696
3905,39976;1,7785
3903,34861;1,77155
3901,29745;1,7665
3899,2463;1,76296
3897,19514;1,76165
3895,14399;1,76163
3893,09283;1,76033
3891,04168;1,75707
3888,99052;1,75399
3886,93937;1,75148
3884,88821;1,74833
3882,83706;1,74617
3880,7859;1,74613
3878,73474;1,74713
3876,68359;1,74747
3874,63243;1,74538
3872,58128;1,74228
3870,53012;1,74042
3868,47897;1,73933
3866,42781;1,73885
3864,37666;1,73901
3862,3255;1,73926
3860,27435;1,73887
3858,22319;1,73754
3856,17204;1,73533
3854,12088;1,73189
3852,06973;1,7301
3850,01857;1,73266
3847,96741;1,73622
3845,91626;1,73714
3843,8651;1,7342
3841,81395;1,72924
3839,76279;1,72683
3837,71164;1,72793
3835,66048;1,72889
3833,60933;1,72936
3831,55817;1,73126
3829,50702;1,73328
3827,45586;1,7332
3825,40471;1,73204
3823,35355;1,73155
3821,3024;1,73083
3819,25124;1,73061
3817,20008;1,73276
3815,14893;1,73517
3813,09777;1,73603
3811,04662;1,73584
3808,99546;1,73465
3806,94431;1,73293
3804,89315;1,73244
3802,842;1,73306
3800,79084;1,73346
3798,73969;1,73457
3796,68853;1,73661
3794,63738;1,73912
3792,58622;1,74154
3790,53506;1,74243
3788,48391;1,74205
3786,43275;1,74239
3784,3816;1,744
3782,33044;1,74514
3780,27929;1,74439
3778,22813;1,74362
3776,17698;1,74509
3774,12582;1,74718
3772,07467;1,74776
3770,02351;1,7473
3767,97236;1,74763
3765,9212;1,74937
3763,87005;1,75154
3761,81889;1,7531
3759,76773;1,75399
3757,71658;1,755
3755,66542;1,75648
3753,61427;1,75764
3751,56311;1,7579
3749,51196;1,75872
3747,4608;1,7618
3745,40965;1,76535
3743,35849;1,76663
3741,30734;1,76709
3739,25618;1,76851
3737,20503;1,77011
3735,15387;1,77159
3733,10272;1,77415
3731,05156;1,7779
3729,0004;1,78247
3726,94925;1,78819
3724,89809;1,79399
3722,84694;1,79835
3720,79578;1,80191
3718,74463;1,80637
3716,69347;1,81138
3714,64232;1,81561
3712,59116;1,81982
3710,54001;1,82654
3708,48885;1,83669
3706,4377;1,84948
3704,38654;1,86715
3702,33539;1,89353
3700,28423;1,92595
3698,23307;1,95463
3696,18192;1,97213
3694,13076;1,97675
3692,07961;1,97162
3690,02845;1,96156
3687,9773;1,95169
3685,92614;1,94732
3683,87499;1,9486
3681,82383;1,9515
3679,77268;1,95365
3677,72152;1,95707
3675,67037;1,96363
3673,61921;1,97084
3671,56806;1,97761
3669,5169;1,98649
3667,46574;1,99874
3665,41459;2,01247
3663,36343;2,0256
3661,31228;2,03667
3659,26112;2,04556
3657,20997;2,05481
3655,15881;2,06576
3653,10766;2,07688
3651,0565;2,08991
3649,00535;2,10986
3646,95419;2,13558
3644,90304;2,15711
3642,85188;2,16753
3640,80073;2,1693
3638,74957;2,1692
3636,69841;2,17096
3634,64726;2,1745
3632,5961;2,17936
3630,54495;2,18743
3628,49379;2,19925
3626,44264;2,21077
3624,39148;2,21983
3622,34033;2,226
3620,28917;2,23032
3618,23802;2,23638
3616,18686;2,24547
3614,13571;2,25598
3612,08455;2,26652
3610,0334;2,27541
3607,98224;2,28187
3605,93108;2,28844
3603,87993;2,29755
3601,82877;2,30719
3599,77762;2,31452
3597,72646;2,32059
3595,67531;2,32815
3593,62415;2,33709
3591,573;2,34309
3589,52184;2,34407
3587,47069;2,34657
3585,41953;2,35659
3583,36838;2,36854
3581,31722;2,37418
3579,26607;2,3714
3577,21491;2,36645
3575,16375;2,36752
3573,1126;2,37369
3571,06144;2,37806
3569,01029;2,37841
3566,95913;2,37769
3564,90798;2,38064
3562,85682;2,38948
3560,80567;2,39868
3558,75451;2,40328
3556,70336;2,40716
3554,6522;2,41257
3552,60105;2,41685
3550,54989;2,41966
3548,49874;2,42204
3546,44758;2,42533
3544,39642;2,42922
3542,34527;2,43203
3540,29411;2,43624
3538,24296;2,44292
3536,1918;2,44878
3534,14065;2,45202
3532,08949;2,45293
3530,03834;2,45398
3527,98718;2,45834
3525,93603;2,46411
3523,88487;2,46768
3521,83372;2,47069
3519,78256;2,47385
3517,73141;2,47461
3515,68025;2,47638
3513,62909;2,48289
3511,57794;2,49082
3509,52678;2,4971
3507,47563;2,50073
3505,42447;2,50139
3503,37332;2,50029
3501,32216;2,50138
3499,27101;2,50827
3497,21985;2,51751
3495,1687;2,52422
3493,11754;2,52782
3491,06639;2,53179
3489,01523;2,5386
3486,96407;2,54229
3484,91292;2,53999
3482,86176;2,53753
3480,81061;2,53803
3478,75945;2,5439
3476,7083;2,5514
3474,65714;2,55209
3472,60599;2,55093
3470,55483;2,55376
3468,50368;2,55766
3466,45252;2,56326
3464,40137;2,56928
3462,35021;2,56912
3460,29906;2,56586
3458,2479;2,56661
3456,19674;2,568
3454,14559;2,56913
3452,09443;2,57323
3450,04328;2,57643
3447,99212;2,57649
3445,94097;2,57495
3443,88981;2,5725
3441,83866;2,57196
3439,7875;2,57273
3437,73635;2,57278
3435,68519;2,57432
3433,63404;2,57819
3431,58288;2,58343
3429,53173;2,58615
3427,48057;2,58157
3425,42941;2,5761
3423,37826;2,57729
3421,3271;2,58237
3419,27595;2,58748
3417,22479;2,59061
3415,17364;2,59363
3413,12248;2,59765
3411,07133;2,60012
3409,02017;2,59758
3406,96902;2,58981
3404,91786;2,58451
3402,86671;2,5849
3400,81555;2,5867
3398,7644;2,58815
3396,71324;2,5905
3394,66208;2,59371
3392,61093;2,59103
3390,55977;2,5844
3388,50862;2,58305
3386,45746;2,59032
3384,40631;2,59832
3382,35515;2,5961
3380,304;2,5857
3378,25284;2,57809
3376,20169;2,57636
3374,15053;2,57615
3372,09938;2,5737
3370,04822;2,57024
3367,99707;2,57289
3365,94591;2,58332
3363,89475;2,59022
3361,8436;2,58725
3359,79244;2,58413
3357,74129;2,58768
3355,69013;2,59357
3353,63898;2,59514
3351,58782;2,5898
3349,53667;2,57961
3347,48551;2,57212
3345,43436;2,57273
3343,3832;2,57265
3341,33205;2,56799
3339,28089;2,56607
3337,22974;2,56534
3335,17858;2,56288
3333,12742;2,55986
3331,07627;2,55662
3329,02511;2,55552
3326,97396;2,55911
3324,9228;2,56344
3322,87165;2,56242
3320,82049;2,55746
3318,76934;2,55238
3316,71818;2,54954
3314,66703;2,54858
3312,61587;2,54861
3310,56472;2,55243
3308,51356;2,5583
3306,46241;2,56021
3304,41125;2,55857
3302,36009;2,55865
3300,30894;2,56107
3298,25778;2,56147
3296,20663;2,55963
3294,15547;2,55921
3292,10432;2,55783
3290,05316;2,55278
3288,00201;2,54698
3285,95085;2,54343
3283,8997;2,54517
3281,84854;2,5498
3279,79739;2,5507
3277,74623;2,54798
3275,69508;2,54777
3273,64392;2,55112
3271,59276;2,5487
3269,54161;2,53856
3267,49045;2,53401
3265,4393;2,53864
3263,38814;2,53773
3261,33699;2,52912
3259,28583;2,52599
3257,23468;2,52925
3255,18352;2,53137
3253,13237;2,532
3251,08121;2,53085
3249,03006;2,52817
3246,9789;2,53302
3244,92775;2,5423
3242,87659;2,54328
3240,82543;2,54054
3238,77428;2,54083
3236,72312;2,53956
3234,67197;2,53527
3232,62081;2,53127
3230,56966;2,52946
3228,5185;2,53053
3226,46735;2,53133
3224,41619;2,52939
3222,36504;2,52725
3220,31388;2,52674
3218,26273;2,52614
3216,21157;2,52569
3214,16041;2,52427
3212,10926;2,51991
3210,0581;2,51644
3208,00695;2,51543
3205,95579;2,51364
3203,90464;2,51046
3201,85348;2,50698
3199,80233;2,50274
3197,75117;2,49989
3195,70002;2,5011
3193,64886;2,50119
3191,59771;2,49447
3189,54655;2,48737
3187,4954;2,49001
3185,44424;2,49805
3183,39308;2,50203
3181,34193;2,50427
3179,29077;2,50685
3177,23962;2,50524
3175,18846;2,50008
3173,13731;2,49623
3171,08615;2,49317
3169,035;2,4888
3166,98384;2,48615
3164,93269;2,48488
3162,88153;2,48025
3160,83038;2,47374
3158,77922;2,47017
3156,72807;2,46816
3154,67691;2,46447
3152,62575;2,46127
3150,5746;2,45934
3148,52344;2,45597
3146,47229;2,45192
3144,42113;2,44907
3142,36998;2,44537
3140,31882;2,43944
3138,26767;2,43555
3136,21651;2,43452
3134,16536;2,43269
3132,1142;2,43188
3130,06305;2,43481
3128,01189;2,44002
3125,96074;2,44214
3123,90958;2,43769
3121,85842;2,43281
3119,80727;2,43055
3117,75611;2,4273
3115,70496;2,42404
3113,6538;2,42308
3111,60265;2,42309
3109,55149;2,42208
3107,50034;2,42048
3105,44918;2,41979
3103,39803;2,42089
3101,34687;2,42175
3099,29572;2,41951
3097,24456;2,41766
3095,19341;2,41906
3093,14225;2,41891
3091,09109;2,41643
3089,03994;2,41616
3086,98878;2,41775
3084,93763;2,41886
3082,88647;2,41862
3080,83532;2,41678
3078,78416;2,41515
3076,73301;2,41527
3074,68185;2,41559
3072,6307;2,41445
3070,57954;2,41222
3068,52839;2,41159
3066,47723;2,41499
3064,42608;2,41911
3062,37492;2,41788
3060,32376;2,41243
3058,27261;2,40935
3056,22145;2,41125
3054,1703;2,41673
3052,11914;2,42245
3050,06799;2,42507
3048,01683;2,42503
3045,96568;2,42465
3043,91452;2,42473
3041,86337;2,42417
3039,81221;2,42484
3037,76106;2,42984
3035,7099;2,4354
3033,65875;2,4374
3031,60759;2,43848
3029,55643;2,44103
3027,50528;2,4446
3025,45412;2,44855
3023,40297;2,45239
3021,35181;2,45681
3019,30066;2,46214
3017,2495;2,4666
3015,19835;2,46937
3013,14719;2,47393
3011,09604;2,48402
3009,04488;2,49861
3006,99373;2,51531
3004,94257;2,53288
3002,89142;2,54953
3000,84026;2,56681
2998,7891;2,58851
2996,73795;2,61138
2994,68679;2,631
2992,63564;2,6535
2990,58448;2,68338
2988,53333;2,71169
2986,48217;2,72746
2984,43102;2,73394
2982,37986;2,74045
2980,32871;2,74406
2978,27755;2,73277
2976,2264;2,71751
2974,17524;2,71693
2972,12409;2,72031
2970,07293;2,71619
2968,02177;2,71053
2965,97062;2,70667
2963,91946;2,70824
2961,86831;2,7185
2959,81715;2,73159
2957,766;2,7399
2955,71484;2,73983
2953,66369;2,73425
2951,61253;2,73041
2949,56138;2,72949
2947,51022;2,73207
2945,45907;2,73018
2943,40791;2,71765
2941,35675;2,71105
2939,3056;2,71834
2937,25444;2,72591
2935,20329;2,7261
2933,15213;2,72139
2931,10098;2,71433
2929,04982;2,71154
2926,99867;2,71541
2924,94751;2,7159
2922,89636;2,71027
2920,8452;2,70783
2918,79405;2,70933
2916,74289;2,71023
2914,69174;2,70935
2912,64058;2,70389
2910,58942;2,69692
2908,53827;2,69705
2906,48711;2,70316
2904,43596;2,70305
2902,3848;2,69548
2900,33365;2,69188
2898,28249;2,69336
2896,23134;2,69821
2894,18018;2,7045
2892,12903;2,70783
2890,07787;2,71661
2888,02672;2,7334
2885,97556;2,74546
2883,92441;2,75068
2881,87325;2,75829
2879,82209;2,77186
2877,77094;2,78364
2875,71978;2,79205
2873,66863;2,80409
2871,61747;2,81203
2869,56632;2,80294
2867,51516;2,78269
2865,46401;2,76899
2863,41285;2,76709
2861,3617;2,7679
2859,31054;2,7611
2857,25939;2,75056
2855,20823;2,73908
2853,15708;2,72355
2851,10592;2,70951
2849,05476;2,69993
2847,00361;2,6898
2844,95245;2,67374
2842,9013;2,6545
2840,85014;2,63483
2838,79899;2,61298
2836,74783;2,59017
2834,69668;2,56562
2832,64552;2,53953
2830,59437;2,51577
2828,54321;2,49473
2826,49206;2,475
2824,4409;2,45629
2822,38975;2,43829
2820,33859;2,42524
2818,28743;2,41757
2816,23628;2,40748
2814,18512;2,39534
2812,13397;2,38535
2810,08281;2,37605
2808,03166;2,36727
2805,9805;2,36239
2803,92935;2,36079
2801,87819;2,35784
2799,82704;2,35254
2797,77588;2,34446
2795,72473;2,33242
2793,67357;2,31937
2791,62242;2,3094
2789,57126;2,30221
2787,5201;2,29501
2785,46895;2,28756
2783,41779;2,28025
2781,36664;2,27235
2779,31548;2,26454
2777,26433;2,25886
2775,21317;2,25658
2773,16202;2,25402
2771,11086;2,24792
2769,05971;2,24225
2767,00855;2,23926
2764,9574;2,23705
2762,90624;2,23538
2760,85509;2,23411
2758,80393;2,23207
2756,75277;2,22954
2754,70162;2,22724
2752,65046;2,2254
2750,59931;2,22367
2748,54815;2,22073
2746,497;2,21812
2744,44584;2,21776
2742,39469;2,21662
2740,34353;2,21359
2738,29238;2,21187
2736,24122;2,21049
2734,19007;2,20842
2732,13891;2,20737
2730,08776;2,20653
2728,0366;2,20511
2725,98544;2,20364
2723,93429;2,20376
2721,88313;2,20665
2719,83198;2,20896
2717,78082;2,20711
2715,72967;2,20419
2713,67851;2,2039
2711,62736;2,20364
2709,5762;2,20098
2707,52505;2,19773
2705,47389;2,19607
2703,42274;2,19568
2701,37158;2,19536
2699,32043;2,19544
2697,26927;2,19749
2695,21811;2,20067
2693,16696;2,20235
2691,1158;2,20268
2689,06465;2,20261
2687,01349;2,20179
2684,96234;2,20061
2682,91118;2,201
2680,86003;2,20338
2678,80887;2,20606
2676,75772;2,20876
2674,70656;2,21215
2672,65541;2,21528
2670,60425;2,21704
2668,55309;2,21861
2666,50194;2,22168
2664,45078;2,22527
2662,39963;2,22697
2660,34847;2,22623
2658,29732;2,22544
2656,24616;2,22759
2654,19501;2,23253
2652,14385;2,23794
2650,0927;2,24318
2648,04154;2,24979
2645,99039;2,2589
2643,93923;2,26997
2641,88808;2,28163
2639,83692;2,29538
2637,78576;2,31577
2635,73461;2,34084
2633,68345;2,36493
2631,6323;2,38803
2629,58114;2,41097
2627,52999;2,43196
2625,47883;2,44964
2623,42768;2,46552
2621,37652;2,48088
2619,32537;2,49512
2617,27421;2,50904
2615,22306;2,52437
2613,1719;2,53835
2611,12075;2,5473
2609,06959;2,55446
2607,01843;2,56331
2604,96728;2,57178
2602,91612;2,57897
2600,86497;2,58709
2598,81381;2,59375
2596,76266;2,59599
2594,7115;2,59778
2592,66035;2,60126
2590,60919;2,6024
2588,55804;2,60425
2586,50688;2,60953
2584,45573;2,61158
2582,40457;2,61199
2580,35342;2,61455
2578,30226;2,61457
2576,2511;2,61342
2574,19995;2,61643
2572,14879;2,62061
2570,09764;2,62054
2568,04648;2,61814
2565,99533;2,61793
2563,94417;2,62017
2561,89302;2,62345
2559,84186;2,62755
2557,79071;2,63036
2555,73955;2,6314
2553,6884;2,63633
2551,63724;2,64574
2549,58609;2,65303
2547,53493;2,65623
2545,48377;2,65645
2543,43262;2,65771
2541,38146;2,66275
2539,33031;2,67204
2537,27915;2,68866
2535,228;2,7106
2533,17684;2,73401
2531,12569;2,75527
2529,07453;2,7696
2527,02338;2,78172
2524,97222;2,79624
2522,92107;2,80824
2520,86991;2,81398
2518,81876;2,81805
2516,7676;2,82412
2514,71644;2,82859
2512,66529;2,82869
2510,61413;2,82496
2508,56298;2,8166
2506,51182;2,8027
2504,46067;2,78702
2502,40951;2,76741
2500,35836;2,74218
2498,3072;2,71775
2496,25605;2,6944
2494,20489;2,67336
2492,15374;2,65916
2490,10258;2,64438
2488,05143;2,62154
2486,00027;2,59722
2483,94911;2,57727
2481,89796;2,55916
2479,8468;2,53796
2477,79565;2,51258
2475,74449;2,48732
2473,69334;2,46433
2471,64218;2,44252
2469,59103;2,42189
2467,53987;2,40367
2465,48872;2,38984
2463,43756;2,37873
2461,38641;2,36589
2459,33525;2,35105
2457,2841;2,33554
2455,23294;2,32065
2453,18178;2,30931
2451,13063;2,30103
2449,07947;2,29259
2447,02832;2,28402
2444,97716;2,27552
2442,92601;2,26608
2440,87485;2,25758
2438,8237;2,25048
2436,77254;2,24279
2434,72139;2,2358
2432,67023;2,23177
2430,61908;2,22836
2428,56792;2,2221
2426,51677;2,21421
2424,46561;2,20694
2422,41445;2,2009
2420,3633;2,19708
2418,31214;2,19321
2416,26099;2,18717
2414,20983;2,18237
2412,15868;2,17999
2410,10752;2,1764
2408,05637;2,17045
2406,00521;2,16517
2403,95406;2,1625
2401,9029;2,16105
2399,85175;2,15908
2397,80059;2,15592
2395,74944;2,15243
2393,69828;2,1507
2391,64712;2,15058
2389,59597;2,14928
2387,54481;2,14616
2385,49366;2,143
2383,4425;2,14067
2381,39135;2,13983
2379,34019;2,14052
2377,28904;2,14082
2375,23788;2,13975
2373,18673;2,13787
2371,13557;2,13628
2369,08442;2,13839
2367,03326;2,14429
2364,9821;2,14716
2362,93095;2,14475
2360,87979;2,14207
2358,82864;2,14124
2356,77748;2,1416
2354,72633;2,14274
2352,67517;2,14354
2350,62402;2,14327
2348,57286;2,14255
2346,52171;2,14225
2344,47055;2,14226
2342,4194;2,14105
2340,36824;2,13709
2338,31709;2,13168
2336,26593;2,12867
2334,21477;2,12906
2332,16362;2,12994
2330,11246;2,12949
2328,06131;2,12973
2326,01015;2,13223
2323,959;2,13513
2321,90784;2,13777
2319,85669;2,1404
2317,80553;2,14084
2315,75438;2,13833
2313,70322;2,13549
2311,65207;2,13436
2309,60091;2,13453
2307,54976;2,13458
2305,4986;2,13349
2303,44744;2,13112
2301,39629;2,12837
2299,34513;2,12671
2297,29398;2,12623
2295,24282;2,12526
2293,19167;2,12277
2291,14051;2,11953
2289,08936;2,11714
2287,0382;2,11664
2284,98705;2,11734
2282,93589;2,118
2280,88474;2,1183
2278,83358;2,11862
2276,78243;2,11907
2274,73127;2,11917
2272,68011;2,1191
2270,62896;2,11949
2268,5778;2,12108
2266,52665;2,12386
2264,47549;2,12618
2262,42434;2,12755
2260,37318;2,12966
2258,32203;2,13346
2256,27087;2,13751
2254,21972;2,13962
2252,16856;2,14014
2250,11741;2,1414
2248,06625;2,14503
2246,0151;2,14975
2243,96394;2,15352
2241,91278;2,15638
2239,86163;2,15963
2237,81047;2,16322
2235,75932;2,1679
2233,70816;2,17335
2231,65701;2,17796
2229,60585;2,18155
2227,5547;2,18448
2225,50354;2,18759
2223,45239;2,1915
2221,40123;2,19467
2219,35008;2,1968
2217,29892;2,19925
2215,24777;2,20132
2213,19661;2,20185
2211,14545;2,20159
2209,0943;2,20233
2207,04314;2,20381
2204,99199;2,20452
2202,94083;2,20502
2200,88968;2,20548
2198,83852;2,20496
2196,78737;2,20483
2194,73621;2,2064
2192,68506;2,20891
2190,6339;2,21155
2188,58275;2,21343
2186,53159;2,21406
2184,48044;2,21315
2182,42928;2,2115
2180,37812;2,21253
2178,32697;2,21745
2176,27581;2,22281
2174,22466;2,22578
2172,1735;2,22768
2170,12235;2,23144
2168,07119;2,23889
2166,02004;2,24952
2163,96888;2,26082
2161,91773;2,27153
2159,86657;2,28167
2157,81542;2,29399
2155,76426;2,31061
2153,71311;2,3266
2151,66195;2,33922
2149,61079;2,35136
2147,55964;2,36345
2145,50848;2,3718
2143,45733;2,37453
2141,40617;2,37435
2139,35502;2,37309
2137,30386;2,37113
2135,25271;2,36913
2133,20155;2,36437
2131,1504;2,35337
2129,09924;2,33855
2127,04809;2,3227
2124,99693;2,30612
2122,94578;2,28861
2120,89462;2,26979
2118,84346;2,25218
2116,79231;2,23881
2114,74115;2,22916
2112,69;2,22058
2110,63884;2,21198
2108,58769;2,20412
2106,53653;2,19822
2104,48538;2,19447
2102,43422;2,19164
2100,38307;2,18879
2098,33191;2,18674
2096,28076;2,18568
2094,2296;2,18431
2092,17844;2,18257
2090,12729;2,18216
2088,07613;2,18262
2086,02498;2,18339
2083,97382;2,18492
2081,92267;2,18626
2079,87151;2,1876
2077,82036;2,18951
2075,7692;2,19019
2073,71805;2,1889
2071,66689;2,18761
2069,61574;2,18822
2067,56458;2,19038
2065,51343;2,19225
2063,46227;2,19317
2061,41111;2,19444
2059,35996;2,19742
2057,3088;2,20019
2055,25765;2,20048
2053,20649;2,20067
2051,15534;2,20216
2049,10418;2,20304
2047,05303;2,20261
2045,00187;2,20175
2042,95072;2,20161
2040,89956;2,20311
2038,84841;2,20649
2036,79725;2,21017
2034,7461;2,21241
2032,69494;2,21373
2030,64378;2,21513
2028,59263;2,21648
2026,54147;2,21707
2024,49032;2,2167
2022,43916;2,21611
2020,38801;2,21629
2018,33685;2,21703
2016,2857;2,21784
2014,23454;2,21808
2012,18339;2,21756
2010,13223;2,21824
2008,08108;2,22034
2006,02992;2,22163
2003,97877;2,22243
2001,92761;2,22418
1999,87645;2,22528
1997,8253;2,22506
1995,77414;2,22634
1993,72299;2,22858
1991,67183;2,2283
1989,62068;2,22683
1987,56952;2,22718
1985,51837;2,22792
1983,46721;2,22818
1981,41606;2,2294
1979,3649;2,23145
1977,31375;2,23364
1975,26259;2,23634
1973,21144;2,23979
1971,16028;2,2438
1969,10912;2,25067
1967,05797;2,26465
1965,00681;2,28627
1962,95566;2,3092
1960,9045;2,32137
1958,85335;2,31419
1956,80219;2,2949
1954,75104;2,27832
1952,69988;2,26922
1950,64873;2,26501
1948,59757;2,26581
1946,54642;2,26982
1944,49526;2,27215
1942,44411;2,2721
1940,39295;2,27192
1938,34179;2,27277
1936,29064;2,27519
1934,23948;2,27866
1932,18833;2,28306
1930,13717;2,28801
1928,08602;2,29133
1926,03486;2,29339
1923,98371;2,29638
1921,93255;2,30002
1919,8814;2,30254
1917,83024;2,30367
1915,77909;2,30574
1913,72793;2,30946
1911,67678;2,31248
1909,62562;2,31475
1907,57446;2,31845
1905,52331;2,32308
1903,47215;2,32789
1901,421;2,33288
1899,36984;2,33626
1897,31869;2,33826
1895,26753;2,34106
1893,21638;2,34443
1891,16522;2,34728
1889,11407;2,35161
1887,06291;2,35864
1885,01176;2,36559
1882,9606;2,37119
1880,90945;2,37629
1878,85829;2,38162
1876,80713;2,38752
1874,75598;2,3944
1872,70482;2,40122
1870,65367;2,40634
1868,60251;2,41299
1866,55136;2,4238
1864,5002;2,43565
1862,44905;2,44729
1860,39789;2,45899
1858,34674;2,46858
1856,29558;2,47593
1854,24443;2,48407
1852,19327;2,49307
1850,14212;2,50148
1848,09096;2,51109
1846,0398;2,52435
1843,98865;2,53994
1841,93749;2,55438
1839,88634;2,5669
1837,83518;2,57919
1835,78403;2,59295
1833,73287;2,6069
1831,68172;2,61956
1829,63056;2,63421
1827,57941;2,65213
1825,52825;2,6685
1823,4771;2,68176
1821,42594;2,69652
1819,37478;2,71584
1817,32363;2,73687
1815,27247;2,75752
1813,22132;2,78308
1811,17016;2,81786
1809,11901;2,85862
1807,06785;2,9058
1805,0167;2,96067
1802,96554;3,0115
1800,91439;3,0445
1798,86323;3,05987
1796,81208;3,06558
1794,76092;3,06246
1792,70977;3,04767
1790,65861;3,02585
1788,60745;3,0006
1786,5563;2,96971
1784,50514;2,93404
1782,45399;2,8995
1780,40283;2,87229
1778,35168;2,85629
1776,30052;2,85119
1774,24937;2,8531
1772,19821;2,85958
1770,14706;2,86873
1768,0959;2,87751
1766,04475;2,88509
1763,99359;2,89307
1761,94244;2,905
1759,89128;2,92013
1757,84012;2,93066
1755,78897;2,93139
1753,73781;2,9252
1751,68666;2,92222
1749,6355;2,9329
1747,58435;2,95216
1745,53319;2,96511
1743,48204;2,97089
1741,43088;2,98011
1739,37973;2,99438
1737,32857;3,00258
1735,27742;3,00027
1733,22626;2,99338
1731,17511;2,98773
1729,12395;2,98723
1727,07279;2,9951
1725,02164;3,00705
1722,97048;3,01666
1720,91933;3,01701
1718,86817;3,00457
1716,81702;2,99561
1714,76586;3,00502
1712,71471;3,01845
1710,66355;3,02597
1708,6124;3,03609
1706,56124;3,05091
1704,51009;3,05765
1702,45893;3,05521
1700,40778;3,05508
1698,35662;3,05901
1696,30546;3,06931
1694,25431;3,0895
1692,20315;3,10757
1690,152;3,12121
1688,10084;3,13534
1686,04969;3,14841
1683,99853;3,17001
1681,94738;3,20083
1679,89622;3,21711
1677,84507;3,20875
1675,79391;3,18253
1673,74276;3,16322
1671,6916;3,16795
1669,64045;3,18537
1667,58929;3,19705
1665,53813;3,19736
1663,48698;3,19259
1661,43582;3,19241
1659,38467;3,20711
1657,33351;3,23869
1655,28236;3,28049
1653,2312;3,31875
1651,18005;3,34381
1649,12889;3,36507
1647,07774;3,36542
1645,02658;3,34393
1642,97543;3,33407
1640,92427;3,33469
1638,87312;3,32755
1636,82196;3,31472
1634,7708;3,31353
1632,71965;3,32922
1630,66849;3,34546
1628,61734;3,35067
1626,56618;3,35456
1624,51503;3,37045
1622,46387;3,38402
1620,41272;3,37432
1618,36156;3,3524
1616,31041;3,33997
1614,25925;3,34234
1612,2081;3,35311
1610,15694;3,36537
1608,10579;3,35906
1606,05463;3,32287
1604,00347;3,28202
1601,95232;3,26315
1599,90116;3,26209
1597,85001;3,25299
1595,79885;3,23607
1593,7477;3,23417
1591,69654;3,24129
1589,64539;3,23194
1587,59423;3,20472
1585,54308;3,17227
1583,49192;3,14189
1581,44077;3,11089
1579,38961;3,07303
1577,33846;3,02807
1575,2873;2,98089
1573,23614;2,93588
1571,18499;2,88712
1569,13383;2,83478
1567,08268;2,78921
1565,03152;2,74972
1562,98037;2,71292
1560,92921;2,66862
1558,87806;2,60584
1556,8269;2,5559
1554,77575;2,5346
1552,72459;2,52181
1550,67344;2,50833
1548,62228;2,49601
1546,57113;2,48564
1544,51997;2,47563
1542,46881;2,4669
1540,41766;2,46114
1538,3665;2,45949
1536,31535;2,46121
1534,26419;2,46141
1532,21304;2,45872
1530,16188;2,4557
1528,11073;2,45131
1526,05957;2,44368
1524,00842;2,43558
1521,95726;2,43113
1519,90611;2,43088
1517,85495;2,43159
1515,80379;2,43236
1513,75264;2,43417
1511,70148;2,43422
1509,65033;2,42974
1507,59917;2,42566
1505,54802;2,43001
1503,49686;2,43901
1501,44571;2,4453
1499,39455;2,44711
1497,3434;2,44607
1495,29224;2,44439
1493,24109;2,44247
1491,18993;2,44117
1489,13878;2,44323
1487,08762;2,44934
1485,03646;2,45692
1482,98531;2,46169
1480,93415;2,46053
1478,883;2,45526
1476,83184;2,45059
1474,78069;2,44851
1472,72953;2,44952
1470,67838;2,4536
1468,62722;2,45641
1466,57607;2,45618
1464,52491;2,45671
1462,47376;2,45766
1460,4226;2,45266
1458,37145;2,44225
1456,32029;2,43846
1454,26913;2,44647
1452,21798;2,45484
1450,16682;2,45457
1448,11567;2,44654
1446,06451;2,43837
1444,01336;2,43562
1441,9622;2,4363
1439,91105;2,43604
1437,85989;2,4331
1435,80874;2,42782
1433,75758;2,42063
1431,70643;2,41068
1429,65527;2,39897
1427,60412;2,38977
1425,55296;2,38256
1423,5018;2,37343
1421,45065;2,36159
1419,39949;2,34648
1417,34834;2,32922
1415,29718;2,31305
1413,24603;2,29711
1411,19487;2,28123
1409,14372;2,27031
1407,09256;2,27035
1405,04141;2,28292
1402,99025;2,30184
1400,9391;2,3181
1398,88794;2,32927
1396,83679;2,33864
1394,78563;2,35037
1392,73447;2,3656
1390,68332;2,38291
1388,63216;2,40184
1386,58101;2,42245
1384,52985;2,44394
1382,4787;2,46314
1380,42754;2,47558
1378,37639;2,48215
1376,32523;2,48915
1374,27408;2,50015
1372,22292;2,51068
1370,17177;2,51509
1368,12061;2,51612
1366,06946;2,51814
1364,0183;2,51977
1361,96714;2,52069
1359,91599;2,52424
1357,86483;2,5283
1355,81368;2,52856
1353,76252;2,52765
1351,71137;2,5298
1349,66021;2,53468
1347,60906;2,53972
1345,5579;2,54085
1343,50675;2,53707
1341,45559;2,53407
1339,40444;2,53604
1337,35328;2,54161
1335,30213;2,54772
1333,25097;2,55161
1331,19981;2,55455
1329,14866;2,55945
1327,0975;2,56281
1325,04635;2,5612
1322,99519;2,55984
1320,94404;2,56336
1318,89288;2,5687
1316,84173;2,57206
1314,79057;2,5736
1312,73942;2,57434
1310,68826;2,57424
1308,63711;2,57254
1306,58595;2,56954
1304,5348;2,56453
1302,48364;2,558
1300,43248;2,55374
1298,38133;2,55321
1296,33017;2,55637
1294,27902;2,56129
1292,22786;2,56293
1290,17671;2,56148
1288,12555;2,56157
1286,0744;2,56366
1284,02324;2,56751
1281,97209;2,57316
1279,92093;2,5767
1277,86978;2,57666
1275,81862;2,57755
1273,76747;2,57972
1271,71631;2,57916
1269,66515;2,57897
1267,614;2,58185
1265,56284;2,58394
1263,51169;2,58475
1261,46053;2,58696
1259,40938;2,58982
1257,35822;2,58997
1255,30707;2,58735
1253,25591;2,58451
1251,20476;2,58417
1249,1536;2,58797
1247,10245;2,59194
1245,05129;2,59299
1243,00013;2,59421
1240,94898;2,59822
1238,89782;2,60318
1236,84667;2,60398
1234,79551;2,59954
1232,74436;2,59755
1230,6932;2,60341
1228,64205;2,61082
1226,59089;2,6119
1224,53974;2,60818
1222,48858;2,60508
1220,43743;2,60692
1218,38627;2,6147
1216,33512;2,62184
1214,28396;2,62253
1212,2328;2,62172
1210,18165;2,62413
1208,13049;2,62741
1206,07934;2,62863
1204,02818;2,62856
1201,97703;2,63153
1199,92587;2,63614
1197,87472;2,63825
1195,82356;2,63977
1193,77241;2,6436
1191,72125;2,64778
1189,6701;2,65009
1187,61894;2,65543
1185,56779;2,6651
1183,51663;2,67407
1181,46547;2,67731
1179,41432;2,67199
1177,36316;2,66615
1175,31201;2,66597
1173,26085;2,66793
1171,2097;2,67025
1169,15854;2,67433
1167,10739;2,67887
1165,05623;2,68015
1163,00508;2,67706
1160,95392;2,67143
1158,90277;2,66443
1156,85161;2,65542
1154,80046;2,64876
1152,7493;2,64858
1150,69814;2,64771
1148,64699;2,64287
1146,59583;2,64037
1144,54468;2,63848
1142,49352;2,63101
1140,44237;2,62263
1138,39121;2,62062
1136,34006;2,61846
1134,2889;2,61169
1132,23775;2,61088
1130,18659;2,61865
1128,13544;2,62463
1126,08428;2,62336
1124,03313;2,61764
1121,98197;2,61098
1119,93081;2,60535
1117,87966;2,60394
1115,8285;2,60886
1113,77735;2,61287
1111,72619;2,61095
1109,67504;2,61078
1107,62388;2,61381
1105,57273;2,613
1103,52157;2,611
1101,47042;2,61387
1099,41926;2,61662
1097,36811;2,61344
1095,31695;2,60967
1093,2658;2,61401
1091,21464;2,62877
1089,16348;2,65029
1087,11233;2,67205
1085,06117;2,68592
1083,01002;2,68256
1080,95886;2,66396
1078,90771;2,64386
1076,85655;2,63164
1074,8054;2,62888
1072,75424;2,63247
1070,70309;2,6348
1068,65193;2,62936
1066,60078;2,62327
1064,54962;2,62284
1062,49847;2,61713
1060,44731;2,60596
1058,39615;2,60639
1056,345;2,61694
1054,29384;2,62106
1052,24269;2,61451
1050,19153;2,60368
1048,14038;2,59893
1046,08922;2,60363
1044,03807;2,6095
1041,98691;2,61264
1039,93576;2,61604
1037,8846;2,62307
1035,83345;2,63323
1033,78229;2,64459
1031,73114;2,65024
1029,67998;2,64676
1027,62882;2,64865
1025,57767;2,65713
1023,52651;2,65931
1021,47536;2,65914
1019,4242;2,66055
1017,37305;2,66003
1015,32189;2,66014
1013,27074;2,65949
1011,21958;2,65459
1009,16843;2,64913
1007,11727;2,64528
1005,06612;2,64196
1003,01496;2,64055
1000,96381;2,64103
998,91265;2,64126
996,86149;2,63936
994,81034;2,63552
992,75918;2,63011
990,70803;2,62196
988,65687;2,61805
986,60572;2,62221
984,55456;2,62445
982,50341;2,62287
980,45225;2,6218
978,4011;2,61991
976,34994;2,61843
974,29879;2,61951
972,24763;2,61856
970,19647;2,61138
968,14532;2,6039
966,09416;2,60321
964,04301;2,60824
961,99185;2,6102
959,9407;2,60648
957,88954;2,60746
955,83839;2,61558
953,78723;2,62178
951,73608;2,62159
949,68492;2,62047
947,63377;2,62003
945,58261;2,6195
943,53146;2,6237
941,4803;2,63011
939,42914;2,63408
937,37799;2,63566
935,32683;2,63432
933,27568;2,6311
931,22452;2,63059
929,17337;2,62963
927,12221;2,62203
925,07106;2,61425
923,0199;2,60524
920,96875;2,58819
918,91759;2,57783
916,86644;2,58091
914,81528;2,58367
912,76413;2,58517
910,71297;2,58864
908,66181;2,58766
906,61066;2,58329
904,5595;2,58597
902,50835;2,59568
900,45719;2,60362
898,40604;2,61198
896,35488;2,61713
894,30373;2,60253
892,25257;2,55803
890,20142;2,49468
888,15026;2,4609
886,09911;2,50329
884,04795;2,60913
881,9968;2,69261
879,94564;2,69861
877,89448;2,66361
875,84333;2,60782
873,79217;2,53966
871,74102;2,49841
869,68986;2,5128
867,63871;2,56135
865,58755;2,59797
863,5364;2,60928
861,48524;2,60707
859,43409;2,60026
857,38293;2,59457
855,33178;2,59461
853,28062;2,60748
851,22947;2,64457
849,17831;2,69189
847,12715;2,68847
845,076;2,63304
843,02484;2,59353
840,97369;2,58497
838,92253;2,57962
836,87138;2,56528
834,82022;2,55366
832,76907;2,55496
830,71791;2,56953
828,66676;2,59055
826,6156;2,60212
824,56445;2,59815
822,51329;2,59006
820,46214;2,58636
818,41098;2,58867
816,35982;2,59097
814,30867;2,58894
812,25751;2,5956
810,20636;2,61253
808,1552;2,62312
806,10405;2,62439
804,05289;2,6236
802,00174;2,62089
799,95058;2,62195
797,89943;2,63265
795,84827;2,64181
793,79712;2,646
791,74596;2,65258
789,69481;2,66126
787,64365;2,66774
785,59249;2,66398
783,54134;2,65943
781,49018;2,66924
779,43903;2,67912
777,38787;2,68371
775,33672;2,69374
773,28556;2,70023
771,23441;2,70192
769,18325;2,70872
767,1321;2,71201
765,08094;2,70128
763,02979;2,6787
760,97863;2,66331
758,92748;2,66619
756,87632;2,66909
754,82516;2,66573
752,77401;2,66917
750,72285;2,67886
748,6717;2,68793
746,62054;2,68731
744,56939;2,67138
742,51823;2,65547
740,46708;2,66177
738,41592;2,69165
736,36477;2,72729
734,31361;2,74949
732,26246;2,74825
730,2113;2,74344
728,16015;2,76315
726,10899;2,81051
724,05783;2,8663
722,00668;2,91097
719,95552;2,94794
717,90437;3,00633
715,85321;3,0601
713,80206;3,0208
711,7509;2,91249
709,69975;2,84058
707,64859;2,83306
705,59744;2,83891
703,54628;2,81891
701,49513;2,79131
699,44397;2,77459
697,39281;2,76895
695,34166;2,76842
693,2905;2,7577
691,23935;2,73796
689,18819;2,72259
687,13704;2,71529
685,08588;2,71062
683,03473;2,69913
680,98357;2,68625
678,93242;2,68197
676,88126;2,6851
674,83011;2,69762
672,77895;2,7246
670,7278;2,75771
668,67664;2,77134
666,62548;2,75371
664,57433;2,73124
662,52317;2,71899
660,47202;2,71804
658,42086;2,72634
656,36971;2,74177
654,31855;2,76201
652,2674;2,78212
650,21624;2,79942
648,16509;2,80947
646,11393;2,8023
644,06278;2,78211
642,01162;2,76505
639,96047;2,75404
637,90931;2,75234
635,85815;2,76942
633,807;2,79849
631,75584;2,81644
629,70469;2,80901
627,65353;2,78748
625,60238;2,7763
623,55122;2,77535
621,50007;2,77545
619,44891;2,79149
617,39776;2,83214
615,3466;2,86297
613,29545;2,84521
611,24429;2,79991
609,19314;2,78309
607,14198;2,82033
605,09082;2,87482
603,03967;2,888
600,98851;2,87093
598,93736;2,87112
596,8862;2,89289
594,83505;2,89968
592,78389;2,88151
590,73274;2,87923
588,68158;2,89349
586,63043;2,88507
584,57927;2,879
582,52812;2,89789
580,47696;2,90733
578,42581;2,89799
576,37465;2,90332
574,32349;2,91758
572,27234;2,91787
570,22118;2,91617
568,17003;2,90562
566,11887;2,87988
564,06772;2,87447
562,01656;2,90704
559,96541;2,949
557,91425;2,97291
555,8631;2,94501
553,81194;2,89986
551,76079;2,90433
549,70963;2,92611
547,65848;2,91583
545,60732;2,89296
543,55616;2,9088
541,50501;2,98125
539,45385;3,05614
537,4027;3,0462
535,35154;2,97199
533,30039;2,91924
531,24923;2,91968
529,19808;2,9519
527,14692;2,97421
525,09577;2,99515
523,04461;3,02216
520,99346;3,04913
518,9423;3,09966
516,89115;3,11667
514,83999;3,07203
512,78883;3,03482
510,73768;3,04546
508,68652;3,10574
506,63537;3,16842
504,58421;3,18283
502,53306;3,20275
500,4819;3,21798
498,43075;3,1801
496,37959;3,12072
494,32844;3,0748
492,27728;3,06693
490,22613;3,08805
488,17497;3,1158
486,12382;3,12002
484,07266;3,0939
482,0215;3,17848
479,97035;3,37687
477,91919;3,41269
475,86804;3,45671
473,81688;3,4243
471,76573;3,34341
469,71457;3,2847
467,66342;3,17013
465,61226;3,0718
463,56111;3,09973
461,50995;3,31082
459,4588;3,47923
457,40764;3,18723
455,35649;2,96399
453,30533;2,91037
451,25417;2,95157
449,20302;3,06876
447,15186;3,17536
445,10071;3,11624
443,04955;3,02057
440,9984;2,97081
438,94724;2,95915
436,89609;2,99256
434,84493;3,07833
432,79378;3,31152
430,74262;3,46736
428,69147;3,31332
426,64031;3,07822
424,58916;3,05921
422,538;3,27936
420,48684;3,218
418,43569;3,0014
416,38453;2,91181
414,33338;2,90689
412,28222;2,85322
410,23107;2,78544
408,17991;2,83086
406,12876;2,96511
404,0776;3,0064
402,02645;2,97878
399,97529;3,02493
