3997,70175;1,80735
3995,6506;1,80775
3993,59944;1,80936
3991,54829;1,81158
3989,49713;1,81327
3987,44598;1,81495
3985,39482;1,81705
3983,34367;1,81814
3981,29251;1,8181
3979,24136;1,81871
3977,1902;1,82018
3975,13905;1,82104
3973,08789;1,82143
3971,03673;1,82261
3968,98558;1,82465
3966,93442;1,82706
3964,88327;1,82926
3962,83211;1,83075
3960,78096;1,83217
3958,7298;1,83431
3956,67865;1,83651
3954,62749;1,83817
3952,57634;1,83961
3950,52518;1,84126
3948,47403;1,84294
3946,42287;1,84421
3944,37172;1,84468
3942,32056;1,84429
3940,2694;1,84394
3938,21825;1,84361
3936,16709;1,84256
3934,11594;1,84033
3932,06478;1,8362
3930,01363;1,83078
3927,96247;1,82547
3925,91132;1,82041
3923,86016;1,81658
3921,80901;1,81501
3919,75785;1,81341
3917,7067;1,80902
3915,65554;1,80289
3913,60439;1,79839
3911,55323;1,79621
3909,50207;1,79427
3907,45092;1,79139
3905,39976;1,78772
3903,34861;1,78358
3901,29745;1,78002
3899,2463;1,77859
3897,19514;1,77945
3895,14399;1,78107
3893,09283;1,78167
3891,04168;1,78073
3888,99052;1,77995
3886,93937;1,77852
3884,88821;1,77506
3882,83706;1,77319
3880,7859;1,77285
3878,73474;1,77171
3876,68359;1,77106
3874,63243;1,77016
3872,58128;1,76927
3870,53012;1,76929
3868,47897;1,76921
3866,42781;1,76968
3864,37666;1,76937
3862,3255;1,76731
3860,27435;1,76566
3858,22319;1,76532
3856,17204;1,7646
3854,12088;1,76015
3852,06973;1,75471
3850,01857;1,75488
3847,96741;1,75833
3845,91626;1,76046
3843,8651;1,76019
3841,81395;1,75874
3839,76279;1,75649
3837,71164;1,75341
3835,66048;1,75255
3833,60933;1,75482
3831,55817;1,75679
3829,50702;1,75727
3827,45586;1,75722
3825,40471;1,75673
3823,35355;1,75557
3821,3024;1,75301
3819,25124;1,75282
3817,20008;1,75737
3815,14893;1,76084
3813,09777;1,76172
3811,04662;1,76285
3808,99546;1,76325
3806,94431;1,76025
3804,89315;1,75673
3802,842;1,75615
3800,79084;1,7564
3798,73969;1,75845
3796,68853;1,76316
3794,63738;1,76746
3792,58622;1,7699
3790,53506;1,77039
3788,48391;1,7695
3786,43275;1,76852
3784,3816;1,7682
3782,33044;1,76926
3780,27929;1,77068
3778,22813;1,77104
3776,17698;1,77166
3774,12582;1,77333
3772,07467;1,7753
3770,02351;1,77647
3767,97236;1,77704
3765,9212;1,77763
3763,87005;1,77788
3761,81889;1,77849
3759,76773;1,77922
3757,71658;1,78012
3755,66542;1,78222
3753,61427;1,7835
3751,56311;1,78121
3749,51196;1,77871
3747,4608;1,78209
3745,40965;1,78938
3743,35849;1,79424
3741,30734;1,79621
3739,25618;1,79786
3737,20503;1,79934
3735,15387;1,80152
3733,10272;1,80653
3731,05156;1,81357
3729,0004;1,82005
3726,94925;1,82477
3724,89809;1,82767
3722,84694;1,83038
3720,79578;1,83424
3718,74463;1,83856
3716,69347;1,8426
3714,64232;1,84651
3712,59116;1,84965
3710,54001;1,85271
3708,48885;1,85916
3706,4377;1,86961
3704,38654;1,88439
3702,33539;1,90676
3700,28423;1,93772
3698,23307;1,97114
3696,18192;1,99801
3694,13076;2,01242
3692,07961;2,01381
3690,02845;2,00386
3687,9773;1,9891
3685,92614;1,98033
3683,87499;1,97941
3681,82383;1,98161
3679,77268;1,98428
3677,72152;1,98881
3675,67037;1,99561
3673,61921;2,00426
3671,56806;2,01589
3669,5169;2,02962
3667,46574;2,0445
3665,41459;2,06058
3663,36343;2,07598
3661,31228;2,08845
3659,26112;2,10048
3657,20997;2,11603
3655,15881;2,13299
3653,10766;2,14796
3651,0565;2,16537
3649,00535;2,1935
3646,95419;2,22773
3644,90304;2,25299
3642,85188;2,26703
3640,80073;2,27471
3638,74957;2,27747
3636,69841;2,27706
3634,64726;2,27512
3632,5961;2,2722
3630,54495;2,27252
3628,49379;2,27972
3626,44264;2,29128
3624,39148;2,30262
3622,34033;2,31125
3620,28917;2,31613
3618,23802;2,31834
3616,18686;2,3232
3614,13571;2,33332
3612,08455;2,34347
3610,0334;2,35076
3607,98224;2,36
3605,93108;2,3731
3603,87993;2,38404
3601,82877;2,38802
3599,77762;2,3907
3597,72646;2,39997
3595,67531;2,41154
3593,62415;2,41605
3591,573;2,41582
3589,52184;2,41875
3587,47069;2,42345
3585,41953;2,42644
3583,36838;2,43028
3581,31722;2,43841
3579,26607;2,45084
3577,21491;2,46079
3575,16375;2,46252
3573,1126;2,46074
3571,06144;2,46304
3569,01029;2,47024
3566,95913;2,47862
3564,90798;2,4858
3562,85682;2,4923
3560,80567;2,49717
3558,75451;2,49987
3556,70336;2,50324
3554,6522;2,50846
3552,60105;2,51455
3550,54989;2,52084
3548,49874;2,52421
3546,44758;2,52287
3544,39642;2,52278
3542,34527;2,52654
3540,29411;2,52756
3538,24296;2,52717
3536,1918;2,53423
3534,14065;2,54477
3532,08949;2,5479
3530,03834;2,54567
3527,98718;2,5482
3525,93603;2,55651
3523,88487;2,56222
3521,83372;2,56392
3519,78256;2,56491
3517,73141;2,56475
3515,68025;2,56468
3513,62909;2,5655
3511,57794;2,56585
3509,52678;2,56689
3507,47563;2,57077
3505,42447;2,57734
3503,37332;2,58229
3501,32216;2,58177
3499,27101;2,57644
3497,21985;2,57046
3495,1687;2,57314
3493,11754;2,58426
3491,06639;2,59139
3489,01523;2,59035
3486,96407;2,5862
3484,91292;2,58334
3482,86176;2,5842
3480,81061;2,58935
3478,75945;2,59527
3476,7083;2,59827
3474,65714;2,60009
3472,60599;2,60006
3470,55483;2,59344
3468,50368;2,58597
3466,45252;2,58886
3464,40137;2,60091
3462,35021;2,61001
3460,29906;2,61125
3458,2479;2,60984
3456,19674;2,60591
3454,14559;2,60051
3452,09443;2,60216
3450,04328;2,61291
3447,99212;2,62549
3445,94097;2,63242
3443,88981;2,63212
3441,83866;2,6294
3439,7875;2,62725
3437,73635;2,62227
3435,68519;2,61598
3433,63404;2,61049
3431,58288;2,60671
3429,53173;2,61013
3427,48057;2,61642
3425,42941;2,61696
3423,37826;2,61663
3421,3271;2,61926
3419,27595;2,62161
3417,22479;2,62144
3415,17364;2,61931
3413,12248;2,61882
3411,07133;2,61855
3409,02017;2,6175
3406,96902;2,6204
3404,91786;2,62818
3402,86671;2,63467
3400,81555;2,63303
3398,7644;2,62789
3396,71324;2,62509
3394,66208;2,62566
3392,61093;2,62965
3390,55977;2,63627
3388,50862;2,63933
3386,45746;2,63345
3384,40631;2,62707
3382,35515;2,62703
3380,304;2,6273
3378,25284;2,62695
3376,20169;2,62743
3374,15053;2,62432
3372,09938;2,61799
3370,04822;2,61515
3367,99707;2,62051
3365,94591;2,6324
3363,89475;2,64386
3361,8436;2,64775
3359,79244;2,64272
3357,74129;2,63587
3355,69013;2,63544
3353,63898;2,63848
3351,58782;2,63819
3349,53667;2,63715
3347,48551;2,63756
3345,43436;2,63697
3343,3832;2,63822
3341,33205;2,64223
3339,28089;2,64388
3337,22974;2,64464
3335,17858;2,64461
3333,12742;2,63886
3331,07627;2,63334
3329,02511;2,63426
3326,97396;2,63936
3324,9228;2,64424
3322,87165;2,64468
3320,82049;2,63925
3318,76934;2,63108
3316,71818;2,62875
3314,66703;2,63426
3312,61587;2,63696
3310,56472;2,63533
3308,51356;2,64218
3306,46241;2,65662
3304,41125;2,65982
3302,36009;2,64918
3300,30894;2,64671
3298,25778;2,65981
3296,20663;2,67203
3294,15547;2,67493
3292,10432;2,66976
3290,05316;2,66047
3288,00201;2,65596
3285,95085;2,65328
3283,8997;2,64694
3281,84854;2,64778
3279,79739;2,65703
3277,74623;2,65629
3275,69508;2,643
3273,64392;2,63296
3271,59276;2,63375
3269,54161;2,63739
3267,49045;2,63623
3265,4393;2,63654
3263,38814;2,6374
3261,33699;2,63057
3259,28583;2,62587
3257,23468;2,62924
3255,18352;2,63018
3253,13237;2,62748
3251,08121;2,62311
3249,03006;2,61358
3246,9789;2,60575
3244,92775;2,60634
3242,87659;2,60864
3240,82543;2,6083
3238,77428;2,60912
3236,72312;2,61077
3234,67197;2,61381
3232,62081;2,6186
3230,56966;2,61889
3228,5185;2,61415
3226,46735;2,60903
3224,41619;2,60656
3222,36504;2,60718
3220,31388;2,60796
3218,26273;2,6066
3216,21157;2,60361
3214,16041;2,59869
3212,10926;2,59244
3210,0581;2,59018
3208,00695;2,59186
3205,95579;2,59243
3203,90464;2,59308
3201,85348;2,59589
3199,80233;2,59713
3197,75117;2,59392
3195,70002;2,58909
3193,64886;2,58796
3191,59771;2,59192
3189,54655;2,59214
3187,4954;2,58343
3185,44424;2,57703
3183,39308;2,57801
3181,34193;2,57838
3179,29077;2,5746
3177,23962;2,56925
3175,18846;2,56854
3173,13731;2,5742
3171,08615;2,5786
3169,035;2,57719
3166,98384;2,57153
3164,93269;2,56205
3162,88153;2,55198
3160,83038;2,5491
3158,77922;2,55426
3156,72807;2,55686
3154,67691;2,55288
3152,62575;2,55074
3150,5746;2,5517
3148,52344;2,55266
3146,47229;2,55218
3144,42113;2,54799
3142,36998;2,54261
3140,31882;2,53974
3138,26767;2,54183
3136,21651;2,54515
3134,16536;2,54138
3132,1142;2,53345
3130,06305;2,53177
3128,01189;2,53488
3125,96074;2,53199
3123,90958;2,52536
3121,85842;2,52504
3119,80727;2,52821
3117,75611;2,52944
3115,70496;2,52949
3113,6538;2,52696
3111,60265;2,52453
3109,55149;2,52644
3107,50034;2,52858
3105,44918;2,52788
3103,39803;2,52876
3101,34687;2,5339
3099,29572;2,5353
3097,24456;2,52791
3095,19341;2,52141
3093,14225;2,52031
3091,09109;2,51972
3089,03994;2,51982
3086,98878;2,52213
3084,93763;2,5251
3082,88647;2,52702
3080,83532;2,52551
3078,78416;2,5202
3076,73301;2,51388
3074,68185;2,51004
3072,6307;2,51098
3070,57954;2,51449
3068,52839;2,5168
3066,47723;2,5172
3064,42608;2,51745
3062,37492;2,51751
3060,32376;2,5134
3058,27261;2,50736
3056,22145;2,50575
3054,1703;2,50699
3052,11914;2,50797
3050,06799;2,51026
3048,01683;2,51345
3045,96568;2,51399
3043,91452;2,51077
3041,86337;2,50666
3039,81221;2,50439
3037,76106;2,50284
3035,7099;2,5
3033,65875;2,49867
3031,60759;2,50336
3029,55643;2,51149
3027,50528;2,51592
3025,45412;2,51566
3023,40297;2,51664
3021,35181;2,51995
3019,30066;2,52114
3017,2495;2,52457
3015,19835;2,53442
3013,14719;2,54293
3011,09604;2,54711
3009,04488;2,55066
3006,99373;2,55502
3004,94257;2,55986
3002,89142;2,55938
3000,84026;2,55231
2998,7891;2,54653
2996,73795;2,54675
2994,68679;2,55335
2992,63564;2,5631
2990,58448;2,57053
2988,53333;2,57512
2986,48217;2,57952
2984,43102;2,58586
2982,37986;2,59186
2980,32871;2,5954
2978,27755;2,60129
2976,2264;2,61129
2974,17524;2,6189
2972,12409;2,62327
2970,07293;2,63082
2968,02177;2,64257
2965,97062;2,65775
2963,91946;2,66985
2961,86831;2,66963
2959,81715;2,66595
2957,766;2,67034
2955,71484;2,67666
2953,66369;2,67509
2951,61253;2,66705
2949,56138;2,66565
2947,51022;2,6763
2945,45907;2,68986
2943,40791;2,69782
2941,35675;2,69957
2939,3056;2,7006
2937,25444;2,70225
2935,20329;2,69901
2933,15213;2,69365
2931,10098;2,69505
2929,04982;2,69843
2926,99867;2,69381
2924,94751;2,68449
2922,89636;2,67746
2920,8452;2,66923
2918,79405;2,65632
2916,74289;2,64499
2914,69174;2,6416
2912,64058;2,6409
2910,58942;2,63593
2908,53827;2,63233
2906,48711;2,63166
2904,43596;2,62503
2902,3848;2,61787
2900,33365;2,62094
2898,28249;2,62497
2896,23134;2,62246
2894,18018;2,62011
2892,12903;2,61738
2890,07787;2,61347
2888,02672;2,61084
2885,97556;2,60714
2883,92441;2,60299
2881,87325;2,60541
2879,82209;2,6149
2877,77094;2,62013
2875,71978;2,61851
2873,66863;2,61834
2871,61747;2,62191
2869,56632;2,62725
2867,51516;2,63352
2865,46401;2,63861
2863,41285;2,63814
2861,3617;2,63434
2859,31054;2,63554
2857,25939;2,6442
2855,20823;2,65256
2853,15708;2,6474
2851,10592;2,63075
2849,05476;2,6173
2847,00361;2,60923
2844,95245;2,60021
2842,9013;2,58612
2840,85014;2,56632
2838,79899;2,54755
2836,74783;2,53598
2834,69668;2,52873
2832,64552;2,52072
2830,59437;2,51148
2828,54321;2,50153
2826,49206;2,49036
2824,4409;2,47814
2822,38975;2,46831
2820,33859;2,46252
2818,28743;2,45653
2816,23628;2,4493
2814,18512;2,44466
2812,13397;2,44301
2810,08281;2,44081
2808,03166;2,43434
2805,9805;2,42497
2803,92935;2,4205
2801,87819;2,42215
2799,82704;2,42041
2797,77588;2,41315
2795,72473;2,40753
2793,67357;2,40543
2791,62242;2,40322
2789,57126;2,39866
2787,5201;2,3919
2785,46895;2,38551
2783,41779;2,38275
2781,36664;2,38133
2779,31548;2,37791
2777,26433;2,37461
2775,21317;2,37267
2773,16202;2,37148
2771,11086;2,37083
2769,05971;2,36836
2767,00855;2,36335
2764,9574;2,35881
2762,90624;2,35692
2760,85509;2,35639
2758,80393;2,35538
2756,75277;2,35325
2754,70162;2,34911
2752,65046;2,34367
2750,59931;2,34052
2748,54815;2,3403
2746,497;2,33981
2744,44584;2,34014
2742,39469;2,34194
2740,34353;2,34016
2738,29238;2,3357
2736,24122;2,33447
2734,19007;2,33497
2732,13891;2,33325
2730,08776;2,33053
2728,0366;2,32748
2725,98544;2,32315
2723,93429;2,31979
2721,88313;2,31848
2719,83198;2,31643
2717,78082;2,31299
2715,72967;2,3087
2713,67851;2,30428
2711,62736;2,30316
2709,5762;2,30414
2707,52505;2,3023
2705,47389;2,29898
2703,42274;2,29726
2701,37158;2,29667
2699,32043;2,29605
2697,26927;2,29491
2695,21811;2,29339
2693,16696;2,29157
2691,1158;2,29134
2689,06465;2,2934
2687,01349;2,29442
2684,96234;2,2939
2682,91118;2,29409
2680,86003;2,2947
2678,80887;2,29431
2676,75772;2,29326
2674,70656;2,29344
2672,65541;2,29498
2670,60425;2,29408
2668,55309;2,28949
2666,50194;2,28591
2664,45078;2,28604
2662,39963;2,28759
2660,34847;2,28743
2658,29732;2,28562
2656,24616;2,28493
2654,19501;2,28626
2652,14385;2,28743
2650,0927;2,28598
2648,04154;2,28387
2645,99039;2,28524
2643,93923;2,28947
2641,88808;2,29448
2639,83692;2,30029
2637,78576;2,30624
2635,73461;2,3129
2633,68345;2,32171
2631,6323;2,33141
2629,58114;2,33921
2627,52999;2,34404
2625,47883;2,34791
2623,42768;2,35222
2621,37652;2,35656
2619,32537;2,36173
2617,27421;2,36681
2615,22306;2,37131
2613,1719;2,37679
2611,12075;2,38034
2609,06959;2,38206
2607,01843;2,38641
2604,96728;2,3918
2602,91612;2,39566
2600,86497;2,39904
2598,81381;2,4018
2596,76266;2,40211
2594,7115;2,39983
2592,66035;2,39711
2590,60919;2,39747
2588,55804;2,40111
2586,50688;2,40498
2584,45573;2,40871
2582,40457;2,41107
2580,35342;2,41004
2578,30226;2,40767
2576,2511;2,40587
2574,19995;2,40574
2572,14879;2,40703
2570,09764;2,4079
2568,04648;2,40914
2565,99533;2,411
2563,94417;2,41153
2561,89302;2,41048
2559,84186;2,41085
2557,79071;2,41485
2555,73955;2,41818
2553,6884;2,41835
2551,63724;2,41942
2549,58609;2,42194
2547,53493;2,42479
2545,48377;2,42981
2543,43262;2,43583
2541,38146;2,43982
2539,33031;2,44342
2537,27915;2,44862
2535,228;2,45466
2533,17684;2,46165
2531,12569;2,47029
2529,07453;2,48001
2527,02338;2,4868
2524,97222;2,48876
2522,92107;2,49208
2520,86991;2,49967
2518,81876;2,50549
2516,7676;2,50719
2514,71644;2,50826
2512,66529;2,50699
2510,61413;2,50417
2508,56298;2,50576
2506,51182;2,50558
2504,46067;2,49838
2502,40951;2,49188
2500,35836;2,48603
2498,3072;2,47736
2496,25605;2,46788
2494,20489;2,45884
2492,15374;2,44969
2490,10258;2,4397
2488,05143;2,43056
2486,00027;2,42206
2483,94911;2,41253
2481,89796;2,40388
2479,8468;2,39679
2477,79565;2,3875
2475,74449;2,37491
2473,69334;2,36305
2471,64218;2,35443
2469,59103;2,34746
2467,53987;2,34005
2465,48872;2,33214
2463,43756;2,32427
2461,38641;2,31714
2459,33525;2,31111
2457,2841;2,30605
2455,23294;2,302
2453,18178;2,29823
2451,13063;2,29409
2449,07947;2,29077
2447,02832;2,28853
2444,97716;2,28529
2442,92601;2,28256
2440,87485;2,28236
2438,8237;2,28208
2436,77254;2,28053
2434,72139;2,28057
2432,67023;2,28358
2430,61908;2,28784
2428,56792;2,29096
2426,51677;2,29253
2424,46561;2,29608
2422,41445;2,30214
2420,3633;2,3075
2418,31214;2,31256
2416,26099;2,31816
2414,20983;2,32264
2412,15868;2,3249
2410,10752;2,32362
2408,05637;2,31728
2406,00521;2,30898
2403,95406;2,30133
2401,9029;2,29265
2399,85175;2,28285
2397,80059;2,27266
2395,74944;2,26161
2393,69828;2,24957
2391,64712;2,23892
2389,59597;2,23267
2387,54481;2,2307
2385,49366;2,22951
2383,4425;2,22626
2381,39135;2,22191
2379,34019;2,2191
2377,28904;2,21864
2375,23788;2,21888
2373,18673;2,21934
2371,13557;2,22087
2369,08442;2,22098
2367,03326;2,21945
2364,9821;2,22006
2362,93095;2,22276
2360,87979;2,22717
2358,82864;2,23192
2356,77748;2,2315
2354,72633;2,22501
2352,67517;2,22065
2350,62402;2,22224
2348,57286;2,22121
2346,52171;2,21444
2344,47055;2,20996
2342,4194;2,20913
2340,36824;2,20836
2338,31709;2,21024
2336,26593;2,21239
2334,21477;2,20943
2332,16362;2,20512
2330,11246;2,20423
2328,06131;2,20434
2326,01015;2,20267
2323,959;2,19941
2321,90784;2,19561
2319,85669;2,19309
2317,80553;2,19283
2315,75438;2,19316
2313,70322;2,19252
2311,65207;2,19132
2309,60091;2,1904
2307,54976;2,18912
2305,4986;2,18666
2303,44744;2,18463
2301,39629;2,1842
2299,34513;2,18403
2297,29398;2,1827
2295,24282;2,17996
2293,19167;2,17703
2291,14051;2,17568
2289,08936;2,17558
2287,0382;2,175
2284,98705;2,17405
2282,93589;2,17347
2280,88474;2,17291
2278,83358;2,17311
2276,78243;2,17561
2274,73127;2,17923
2272,68011;2,18135
2270,62896;2,18153
2268,5778;2,18086
2266,52665;2,18035
2264,47549;2,1806
2262,42434;2,18127
2260,37318;2,18164
2258,32203;2,18188
2256,27087;2,18319
2254,21972;2,18586
2252,16856;2,18851
2250,11741;2,19024
2248,06625;2,19176
2246,0151;2,19354
2243,96394;2,19552
2241,91278;2,19639
2239,86163;2,19511
2237,81047;2,19413
2235,75932;2,19502
2233,70816;2,19727
2231,65701;2,20071
2229,60585;2,20415
2227,5547;2,20659
2225,50354;2,20854
2223,45239;2,20942
2221,40123;2,20951
2219,35008;2,21146
2217,29892;2,21421
2215,24777;2,21516
2213,19661;2,21637
2211,14545;2,21891
2209,0943;2,21985
2207,04314;2,21857
2204,99199;2,21737
2202,94083;2,21769
2200,88968;2,21897
2198,83852;2,22052
2196,78737;2,22208
2194,73621;2,22291
2192,68506;2,22345
2190,6339;2,22514
2188,58275;2,22759
2186,53159;2,2283
2184,48044;2,22719
2182,42928;2,22745
2180,37812;2,22987
2178,32697;2,23222
2176,27581;2,23371
2174,22466;2,23617
2172,1735;2,24013
2170,12235;2,24243
2168,07119;2,24227
2166,02004;2,24366
2163,96888;2,24792
2161,91773;2,25387
2159,86657;2,26127
2157,81542;2,26793
2155,76426;2,2736
2153,71311;2,28025
2151,66195;2,28611
2149,61079;2,29101
2147,55964;2,29663
2145,50848;2,29992
2143,45733;2,30019
2141,40617;2,30158
2139,35502;2,30344
2137,30386;2,30082
2135,25271;2,29506
2133,20155;2,29192
2131,1504;2,29097
2129,09924;2,28895
2127,04809;2,28422
2124,99693;2,27657
2122,94578;2,26906
2120,89462;2,26361
2118,84346;2,25858
2116,79231;2,25291
2114,74115;2,24886
2112,69;2,24847
2110,63884;2,2478
2108,58769;2,24351
2106,53653;2,23919
2104,48538;2,23837
2102,43422;2,23914
2100,38307;2,23853
2098,33191;2,23743
2096,28076;2,23802
2094,2296;2,23953
2092,17844;2,23951
2090,12729;2,23951
2088,07613;2,24225
2086,02498;2,24446
2083,97382;2,24339
2081,92267;2,24201
2079,87151;2,24222
2077,82036;2,24305
2075,7692;2,24489
2073,71805;2,24782
2071,66689;2,25034
2069,61574;2,25228
2067,56458;2,2538
2065,51343;2,25391
2063,46227;2,25406
2061,41111;2,2557
2059,35996;2,25747
2057,3088;2,25914
2055,25765;2,26076
2053,20649;2,26215
2051,15534;2,2643
2049,10418;2,26667
2047,05303;2,26751
2045,00187;2,26703
2042,95072;2,26597
2040,89956;2,26552
2038,84841;2,26685
2036,79725;2,26804
2034,7461;2,26795
2032,69494;2,26832
2030,64378;2,27025
2028,59263;2,27286
2026,54147;2,27491
2024,49032;2,275
2022,43916;2,27364
2020,38801;2,27328
2018,33685;2,27337
2016,2857;2,27344
2014,23454;2,27481
2012,18339;2,27563
2010,13223;2,27469
2008,08108;2,27408
2006,02992;2,27439
2003,97877;2,27481
2001,92761;2,2756
1999,87645;2,27739
1997,8253;2,27944
1995,77414;2,28061
1993,72299;2,28186
1991,67183;2,284
1989,62068;2,28567
1987,56952;2,28569
1985,51837;2,28523
1983,46721;2,28556
1981,41606;2,28616
1979,3649;2,28746
1977,31375;2,28995
1975,26259;2,2919
1973,21144;2,29196
1971,16028;2,29084
1969,10912;2,29079
1967,05797;2,29554
1965,00681;2,30551
1962,95566;2,3151
1960,9045;2,31869
1958,85335;2,31601
1956,80219;2,31214
1954,75104;2,30987
1952,69988;2,30766
1950,64873;2,30586
1948,59757;2,30614
1946,54642;2,30848
1944,49526;2,31078
1942,44411;2,31093
1940,39295;2,31068
1938,34179;2,31274
1936,29064;2,31613
1934,23948;2,31861
1932,18833;2,32044
1930,13717;2,32146
1928,08602;2,32109
1926,03486;2,3213
1923,98371;2,32255
1921,93255;2,32515
1919,8814;2,32935
1917,83024;2,33189
1915,77909;2,33233
1913,72793;2,33273
1911,67678;2,33208
1909,62562;2,33077
1907,57446;2,33217
1905,52331;2,33613
1903,47215;2,339
1901,421;2,34027
1899,36984;2,34262
1897,31869;2,34579
1895,26753;2,34613
1893,21638;2,34482
1891,16522;2,34701
1889,11407;2,35192
1887,06291;2,35515
1885,01176;2,35558
1882,9606;2,35551
1880,90945;2,35784
1878,85829;2,36272
1876,80713;2,36801
1874,75598;2,37166
1872,70482;2,37306
1870,65367;2,37425
1868,60251;2,3776
1866,55136;2,38204
1864,5002;2,38524
1862,44905;2,38837
1860,39789;2,39352
1858,34674;2,3988
1856,29558;2,40227
1854,24443;2,40556
1852,19327;2,40901
1850,14212;2,41147
1848,09096;2,41416
1846,0398;2,41884
1843,98865;2,4242
1841,93749;2,42899
1839,88634;2,43446
1837,83518;2,44076
1835,78403;2,44724
1833,73287;2,45276
1831,68172;2,45521
1829,63056;2,45657
1827,57941;2,46169
1825,52825;2,46968
1823,4771;2,47663
1821,42594;2,48172
1819,37478;2,48696
1817,32363;2,49407
1815,27247;2,50288
1813,22132;2,51297
1811,17016;2,52404
1809,11901;2,5348
1807,06785;2,54564
1805,0167;2,5578
1802,96554;2,57075
1800,91439;2,58385
1798,86323;2,59533
1796,81208;2,60141
1794,76092;2,60108
1792,70977;2,59804
1790,65861;2,59711
1788,60745;2,59829
1786,5563;2,59594
1784,50514;2,58874
1782,45399;2,58229
1780,40283;2,57825
1778,35168;2,57513
1776,30052;2,57448
1774,24937;2,57701
1772,19821;2,58063
1770,14706;2,58582
1768,0959;2,59457
1766,04475;2,60367
1763,99359;2,60996
1761,94244;2,61772
1759,89128;2,63406
1757,84012;2,65667
1755,78897;2,67567
1753,73781;2,68908
1751,68666;2,70077
1749,6355;2,70589
1747,58435;2,69894
1745,53319;2,68674
1743,48204;2,67763
1741,43088;2,67104
1739,37973;2,66163
1737,32857;2,65081
1735,27742;2,6427
1733,22626;2,63529
1731,17511;2,62823
1729,12395;2,62435
1727,07279;2,62198
1725,02164;2,61788
1722,97048;2,6122
1720,91933;2,60571
1718,86817;2,59905
1716,81702;2,5988
1714,76586;2,60898
1712,71471;2,61913
1710,66355;2,61901
1708,6124;2,61049
1706,56124;2,60619
1704,51009;2,61334
1702,45893;2,62224
1700,40778;2,62702
1698,35662;2,63523
1696,30546;2,6461
1694,25431;2,65434
1692,20315;2,65913
1690,152;2,65671
1688,10084;2,6486
1686,04969;2,64316
1683,99853;2,64401
1681,94738;2,64915
1679,89622;2,65331
1677,84507;2,65599
1675,79391;2,65959
1673,74276;2,66274
1671,6916;2,66363
1669,64045;2,66286
1667,58929;2,66137
1665,53813;2,65939
1663,48698;2,65585
1661,43582;2,65022
1659,38467;2,64432
1657,33351;2,6398
1655,28236;2,63522
1653,2312;2,62589
1651,18005;2,61501
1649,12889;2,61143
1647,07774;2,61308
1645,02658;2,61324
1642,97543;2,61202
1640,92427;2,61211
1638,87312;2,61056
1636,82196;2,60575
1634,7708;2,60406
1632,71965;2,60595
1630,66849;2,60286
1628,61734;2,59396
1626,56618;2,58713
1624,51503;2,58694
1622,46387;2,58862
1620,41272;2,58628
1618,36156;2,58032
1616,31041;2,57531
1614,25925;2,57542
1612,2081;2,5784
1610,15694;2,58064
1608,10579;2,58278
1606,05463;2,58614
1604,00347;2,58955
1601,95232;2,59299
1599,90116;2,59555
1597,85001;2,59352
1595,79885;2,58735
1593,7477;2,58264
1591,69654;2,58372
1589,64539;2,58813
1587,59423;2,5911
1585,54308;2,59215
1583,49192;2,59221
1581,44077;2,59105
1579,38961;2,58969
1577,33846;2,58933
1575,2873;2,58989
1573,23614;2,59082
1571,18499;2,58758
1569,13383;2,57859
1567,08268;2,57308
1565,03152;2,57481
1562,98037;2,57588
1560,92921;2,56627
1558,87806;2,54665
1556,8269;2,53646
1554,77575;2,53681
1552,72459;2,53668
1550,67344;2,53383
1548,62228;2,52929
1546,57113;2,52424
1544,51997;2,5194
1542,46881;2,51296
1540,41766;2,5024
1538,3665;2,49548
1536,31535;2,49866
1534,26419;2,50742
1532,21304;2,5167
1530,16188;2,52255
1528,11073;2,52319
1526,05957;2,51993
1524,00842;2,51642
1521,95726;2,51726
1519,90611;2,52542
1517,85495;2,53632
1515,80379;2,54423
1513,75264;2,54984
1511,70148;2,55689
1509,65033;2,56672
1507,59917;2,58095
1505,54802;2,6012
1503,49686;2,61904
1501,44571;2,62928
1499,39455;2,6372
1497,3434;2,65131
1495,29224;2,67044
1493,24109;2,68505
1491,18993;2,6944
1489,13878;2,70402
1487,08762;2,71399
1485,03646;2,72066
1482,98531;2,72336
1480,93415;2,72314
1478,883;2,72062
1476,83184;2,7144
1474,78069;2,70105
1472,72953;2,68085
1470,67838;2,66148
1468,62722;2,64596
1466,57607;2,62851
1464,52491;2,60648
1462,47376;2,58668
1460,4226;2,5721
1458,37145;2,55249
1456,32029;2,52253
1454,26913;2,49829
1452,21798;2,48487
1450,16682;2,47373
1448,11567;2,45959
1446,06451;2,44366
1444,01336;2,42895
1441,9622;2,41546
1439,91105;2,40094
1437,85989;2,38473
1435,80874;2,37323
1433,75758;2,37177
1431,70643;2,37331
1429,65527;2,37246
1427,60412;2,37135
1425,55296;2,37063
1423,5018;2,3687
1421,45065;2,36544
1419,39949;2,36149
1417,34834;2,35903
1415,29718;2,35761
1413,24603;2,35181
1411,19487;2,3404
1409,14372;2,32778
1407,09256;2,31512
1405,04141;2,30065
1402,99025;2,28727
1400,9391;2,27633
1398,88794;2,26492
1396,83679;2,25313
1394,78563;2,24276
1392,73447;2,23509
1390,68332;2,22963
1388,63216;2,22484
1386,58101;2,22178
1384,52985;2,22207
1382,4787;2,22435
1380,42754;2,22718
1378,37639;2,2302
1376,32523;2,23346
1374,27408;2,23874
1372,22292;2,24646
1370,17177;2,25384
1368,12061;2,26023
1366,06946;2,26659
1364,0183;2,27174
1361,96714;2,27536
1359,91599;2,28008
1357,86483;2,28631
1355,81368;2,29213
1353,76252;2,29646
1351,71137;2,29858
1349,66021;2,30054
1347,60906;2,3053
1345,5579;2,31065
1343,50675;2,31383
1341,45559;2,31588
1339,40444;2,31895
1337,35328;2,32405
1335,30213;2,32968
1333,25097;2,3327
1331,19981;2,33254
1329,14866;2,33288
1327,0975;2,33524
1325,04635;2,33668
1322,99519;2,3362
1320,94404;2,33621
1318,89288;2,33844
1316,84173;2,3422
1314,79057;2,34576
1312,73942;2,34691
1310,68826;2,34628
1308,63711;2,34727
1306,58595;2,34987
1304,5348;2,35073
1302,48364;2,34873
1300,43248;2,34588
1298,38133;2,34374
1296,33017;2,3445
1294,27902;2,34755
1292,22786;2,34781
1290,17671;2,34597
1288,12555;2,34644
1286,0744;2,34897
1284,02324;2,35125
1281,97209;2,35227
1279,92093;2,35203
1277,86978;2,35201
1275,81862;2,35328
1273,76747;2,35524
1271,71631;2,35781
1269,66515;2,3618
1267,614;2,36623
1265,56284;2,36849
1263,51169;2,36963
1261,46053;2,37042
1259,40938;2,36934
1257,35822;2,36883
1255,30707;2,37051
1253,25591;2,37206
1251,20476;2,37256
1249,1536;2,37264
1247,10245;2,373
1245,05129;2,37385
1243,00013;2,37291
1240,94898;2,37076
1238,89782;2,37121
1236,84667;2,37214
1234,79551;2,37082
1232,74436;2,36997
1230,6932;2,36975
1228,64205;2,36899
1226,59089;2,36939
1224,53974;2,37055
1222,48858;2,37058
1220,43743;2,37109
1218,38627;2,37503
1216,33512;2,37887
1214,28396;2,37794
1212,2328;2,37555
1210,18165;2,37547
1208,13049;2,37617
1206,07934;2,37489
1204,02818;2,37178
1201,97703;2,37121
1199,92587;2,37562
1197,87472;2,38102
1195,82356;2,38439
1193,77241;2,38634
1191,72125;2,38713
1189,6701;2,38934
1187,61894;2,39296
1185,56779;2,39338
1183,51663;2,3916
1181,46547;2,39282
1179,41432;2,39772
1177,36316;2,40299
1175,31201;2,40346
1173,26085;2,40154
1171,2097;2,40248
1169,15854;2,40105
1167,10739;2,39556
1165,05623;2,3917
1163,00508;2,39013
1160,95392;2,39008
1158,90277;2,39145
1156,85161;2,39296
1154,80046;2,39573
1152,7493;2,39756
1150,69814;2,39513
1148,64699;2,3917
1146,59583;2,39016
1144,54468;2,38946
1142,49352;2,38824
1140,44237;2,38648
1138,39121;2,38468
1136,34006;2,38383
1134,2889;2,38618
1132,23775;2,39175
1130,18659;2,39522
1128,13544;2,39419
1126,08428;2,39209
1124,03313;2,39241
1121,98197;2,39639
1119,93081;2,39952
1117,87966;2,40002
1115,8285;2,40275
1113,77735;2,40583
1111,72619;2,40362
1109,67504;2,39979
1107,62388;2,39992
1105,57273;2,40135
1103,52157;2,40064
1101,47042;2,39967
1099,41926;2,39844
1097,36811;2,3954
1095,31695;2,39422
1093,2658;2,39452
1091,21464;2,39096
1089,16348;2,3855
1087,11233;2,38502
1085,06117;2,38917
1083,01002;2,38984
1080,95886;2,3863
1078,90771;2,38355
1076,85655;2,38103
1074,8054;2,37748
1072,75424;2,37368
1070,70309;2,37155
1068,65193;2,3734
1066,60078;2,37583
1064,54962;2,37647
1062,49847;2,37525
1060,44731;2,37172
1058,39615;2,37389
1056,345;2,38436
1054,29384;2,38261
1052,24269;2,35606
1050,19153;2,33316
1048,14038;2,33238
1046,08922;2,33629
1044,03807;2,33605
1041,98691;2,33812
1039,93576;2,34113
1037,8846;2,34111
1035,83345;2,33968
1033,78229;2,34125
1031,73114;2,34546
1029,67998;2,34997
1027,62882;2,35467
1025,57767;2,35707
1023,52651;2,35443
1021,47536;2,3501
1019,4242;2,349
1017,37305;2,35143
1015,32189;2,35431
1013,27074;2,3558
1011,21958;2,3578
1009,16843;2,36081
1007,11727;2,36204
1005,06612;2,36102
1003,01496;2,35784
1000,96381;2,35399
998,91265;2,35397
996,86149;2,35648
994,81034;2,35601
992,75918;2,35379
990,70803;2,3545
988,65687;2,35634
986,60572;2,35641
984,55456;2,35638
982,50341;2,35729
980,45225;2,35786
978,4011;2,35582
976,34994;2,35165
974,29879;2,34837
972,24763;2,34731
970,19647;2,34727
968,14532;2,34702
966,09416;2,3466
964,04301;2,34602
961,99185;2,34522
959,9407;2,34381
957,88954;2,34165
955,83839;2,34019
953,78723;2,34019
951,73608;2,34162
949,68492;2,34402
947,63377;2,3435
945,58261;2,33925
943,53146;2,33559
941,4803;2,33559
939,42914;2,3389
937,37799;2,34055
935,32683;2,33972
933,27568;2,33945
931,22452;2,33941
929,17337;2,33896
927,12221;2,33936
925,07106;2,34292
923,0199;2,34559
920,96875;2,34314
918,91759;2,34135
916,86644;2,34114
914,81528;2,33736
912,76413;2,33197
910,71297;2,32686
908,66181;2,32297
906,61066;2,32312
904,5595;2,32581
902,50835;2,32858
900,45719;2,32931
898,40604;2,32711
896,35488;2,32461
894,30373;2,32067
892,25257;2,30731
890,20142;2,28141
888,15026;2,25747
886,09911;2,25461
884,04795;2,27269
881,9968;2,29309
879,94564;2,30096
877,89448;2,29609
875,84333;2,28482
873,79217;2,27671
871,74102;2,28673
869,68986;2,31857
867,63871;2,35334
865,58755;2,37375
863,5364;2,38412
861,48524;2,39297
859,43409;2,40018
857,38293;2,40469
855,33178;2,40798
853,28062;2,41467
851,22947;2,42998
849,17831;2,45426
847,12715;2,47839
845,076;2,48866
843,02484;2,47432
840,97369;2,41206
838,92253;2,31874
836,87138;2,25913
834,82022;2,25428
832,76907;2,27539
830,71791;2,29567
828,66676;2,30972
826,6156;2,31527
824,56445;2,31264
822,51329;2,30947
820,46214;2,31514
818,41098;2,32689
816,35982;2,33189
814,30867;2,33066
812,25751;2,33154
810,20636;2,3379
808,1552;2,34671
806,10405;2,35118
804,05289;2,35049
802,00174;2,34781
799,95058;2,34553
797,89943;2,3453
795,84827;2,34705
793,79712;2,34922
791,74596;2,35054
789,69481;2,35229
787,64365;2,35549
785,59249;2,35768
783,54134;2,35656
781,49018;2,35389
779,43903;2,34954
777,38787;2,34711
775,33672;2,35426
773,28556;2,36702
771,23441;2,37121
769,18325;2,36386
767,1321;2,35865
765,08094;2,35831
763,02979;2,35778
760,97863;2,36255
758,92748;2,37069
756,87632;2,3746
754,82516;2,3749
752,77401;2,36947
750,72285;2,35908
748,6717;2,35535
746,62054;2,36021
744,56939;2,36609
742,51823;2,3716
740,46708;2,37539
738,41592;2,37535
736,36477;2,37186
734,31361;2,36646
732,26246;2,36421
730,2113;2,37127
728,16015;2,38456
726,10899;2,39251
724,05783;2,39112
722,00668;2,38514
719,95552;2,38509
717,90437;2,39436
715,85321;2,40259
713,80206;2,40223
711,7509;2,40013
709,69975;2,40216
707,64859;2,40114
705,59744;2,39438
703,54628;2,39271
701,49513;2,40015
699,44397;2,40763
697,39281;2,41286
695,34166;2,42454
693,2905;2,44192
691,23935;2,45279
689,18819;2,45638
687,13704;2,4683
685,08588;2,49097
683,03473;2,48167
680,98357;2,39747
678,93242;2,27952
676,88126;2,20441
674,83011;2,19939
672,77895;2,23593
670,7278;2,26715
668,67664;2,2824
666,62548;2,30417
664,57433;2,32249
662,52317;2,31974
660,47202;2,30683
658,42086;2,30155
656,36971;2,30813
654,31855;2,31935
652,2674;2,32762
650,21624;2,33171
648,16509;2,33364
646,11393;2,33096
644,06278;2,32288
642,01162;2,31856
639,96047;2,32443
637,90931;2,33417
635,85815;2,34133
633,807;2,34592
631,75584;2,34551
629,70469;2,34056
627,65353;2,34011
625,60238;2,34718
623,55122;2,34796
621,50007;2,34114
619,44891;2,34129
617,39776;2,34872
615,3466;2,35582
613,29545;2,36349
611,24429;2,36765
609,19314;2,36021
607,14198;2,34553
605,09082;2,33449
603,03967;2,33305
600,98851;2,33632
598,93736;2,34076
596,8862;2,34831
594,83505;2,34604
592,78389;2,33341
590,73274;2,33256
588,68158;2,34512
586,63043;2,34971
584,57927;2,33494
582,52812;2,31565
580,47696;2,31412
578,42581;2,33092
576,37465;2,34853
574,32349;2,35398
572,27234;2,34948
570,22118;2,3453
568,17003;2,34509
566,11887;2,34693
564,06772;2,35058
562,01656;2,35747
559,96541;2,36745
557,91425;2,37664
555,8631;2,37472
553,81194;2,35824
551,76079;2,34406
549,70963;2,34757
547,65848;2,35919
545,60732;2,36241
543,55616;2,36126
541,50501;2,35919
539,45385;2,35195
537,4027;2,3426
535,35154;2,33942
533,30039;2,34591
531,24923;2,35322
529,19808;2,35356
527,14692;2,35366
525,09577;2,35526
523,04461;2,3475
520,99346;2,33937
518,9423;2,34844
516,89115;2,36224
514,83999;2,35439
512,78883;2,331
510,73768;2,31636
508,68652;2,32314
506,63537;2,34525
504,58421;2,36331
502,53306;2,36185
500,4819;2,34703
498,43075;2,33774
496,37959;2,33508
494,32844;2,33729
492,27728;2,34867
490,22613;2,36119
488,17497;2,36642
486,12382;2,36048
484,07266;2,34738
482,0215;2,34806
479,97035;2,37162
477,91919;2,40426
475,86804;2,42214
473,81688;2,41093
471,76573;2,38849
469,71457;2,37932
467,66342;2,38076
465,61226;2,37967
463,56111;2,37573
461,50995;2,3784
459,4588;2,38651
457,40764;2,37682
455,35649;2,33728
453,30533;2,30411
451,25417;2,31456
449,20302;2,35064
447,15186;2,36949
445,10071;2,3721
443,04955;2,36894
440,9984;2,35091
438,94724;2,33275
436,89609;2,32229
434,84493;2,31508
432,79378;2,3201
430,74262;2,32867
428,69147;2,31827
426,64031;2,308
424,58916;2,32753
422,538;2,35103
420,48684;2,33884
418,43569;2,30984
416,38453;2,31717
414,33338;2,36567
412,28222;2,39988
410,23107;2,37039
408,17991;2,31569
406,12876;2,28872
404,0776;2,29474
402,02645;2,32373
399,97529;2,3526
