3997,70175;1,73166
3995,6506;1,73356
3993,59944;1,7348
3991,54829;1,73716
3989,49713;1,74005
3987,44598;1,74186
3985,39482;1,74277
3983,34367;1,74356
3981,29251;1,7451
3979,24136;1,74742
3977,1902;1,74936
3975,13905;1,751
3973,08789;1,75346
3971,03673;1,75655
3968,98558;1,7595
3966,93442;1,76268
3964,88327;1,76637
3962,83211;1,76966
3960,78096;1,77311
3958,7298;1,77786
3956,67865;1,78261
3954,62749;1,78661
3952,57634;1,79046
3950,52518;1,79373
3948,47403;1,79551
3946,42287;1,79604
3944,37172;1,79633
3942,32056;1,79592
3940,2694;1,79498
3938,21825;1,7945
3936,16709;1,79389
3934,11594;1,79199
3932,06478;1,78691
3930,01363;1,7791
3927,96247;1,77192
3925,91132;1,76573
3923,86016;1,75847
3921,80901;1,75101
3919,75785;1,74455
3917,7067;1,73819
3915,65554;1,73226
3913,60439;1,72829
3911,55323;1,72513
3909,50207;1,72023
3907,45092;1,71438
3905,39976;1,70861
3903,34861;1,70225
3901,29745;1,69774
3899,2463;1,69684
3897,19514;1,69678
3895,14399;1,69683
3893,09283;1,69709
3891,04168;1,69523
3888,99052;1,69295
3886,93937;1,69387
3884,88821;1,69445
3882,83706;1,69409
3880,7859;1,69474
3878,73474;1,69374
3876,68359;1,69281
3874,63243;1,69167
3872,58128;1,68891
3870,53012;1,68721
3868,47897;1,68529
3866,42781;1,68422
3864,37666;1,6837
3862,3255;1,68071
3860,27435;1,67674
3858,22319;1,67354
3856,17204;1,67233
3854,12088;1,67056
3852,06973;1,66516
3850,01857;1,66305
3847,96741;1,66546
3845,91626;1,66673
3843,8651;1,66451
3841,81395;1,66059
3839,76279;1,65792
3837,71164;1,65649
3835,66048;1,65609
3833,60933;1,65748
3831,55817;1,65833
3829,50702;1,65772
3827,45586;1,65702
3825,40471;1,65541
3823,35355;1,65401
3821,3024;1,65167
3819,25124;1,64878
3817,20008;1,6521
3815,14893;1,65638
3813,09777;1,65709
3811,04662;1,65786
3808,99546;1,6585
3806,94431;1,65602
3804,89315;1,65207
3802,842;1,65223
3800,79084;1,65337
3798,73969;1,65442
3796,68853;1,65764
3794,63738;1,65992
3792,58622;1,66151
3790,53506;1,66291
3788,48391;1,6631
3786,43275;1,66287
3784,3816;1,6624
3782,33044;1,6622
3780,27929;1,66317
3778,22813;1,66351
3776,17698;1,6633
3774,12582;1,66394
3772,07467;1,66538
3770,02351;1,66623
3767,97236;1,66603
3765,9212;1,66628
3763,87005;1,66657
3761,81889;1,66789
3759,76773;1,66934
3757,71658;1,66848
3755,66542;1,66765
3753,61427;1,66962
3751,56311;1,67164
3749,51196;1,67038
3747,4608;1,67185
3745,40965;1,67973
3743,35849;1,68519
3741,30734;1,68771
3739,25618;1,69314
3737,20503;1,69893
3735,15387;1,70227
3733,10272;1,70587
3731,05156;1,7117
3729,0004;1,71867
3726,94925;1,72493
3724,89809;1,72771
3722,84694;1,72946
3720,79578;1,73374
3718,74463;1,73951
3716,69347;1,74417
3714,64232;1,74728
3712,59116;1,75023
3710,54001;1,75537
3708,48885;1,76439
3706,4377;1,77514
3704,38654;1,78799
3702,33539;1,80661
3700,28423;1,82975
3698,23307;1,85182
3696,18192;1,86868
3694,13076;1,87774
3692,07961;1,87853
3690,02845;1,87265
3687,9773;1,86413
3685,92614;1,85916
3683,87499;1,85995
3681,82383;1,86307
3679,77268;1,86522
3677,72152;1,86748
3675,67037;1,87094
3673,61921;1,87588
3671,56806;1,88773
3669,5169;1,90338
3667,46574;1,91651
3665,41459;1,93012
3663,36343;1,94449
3661,31228;1,95669
3659,26112;1,96748
3657,20997;1,97965
3655,15881;1,99328
3653,10766;2,01063
3651,0565;2,033
3649,00535;2,05403
3646,95419;2,07209
3644,90304;2,09071
3642,85188;2,10921
3640,80073;2,12382
3638,74957;2,13089
3636,69841;2,12998
3634,64726;2,12425
3632,5961;2,11903
3630,54495;2,11877
3628,49379;2,12058
3626,44264;2,12155
3624,39148;2,12579
3622,34033;2,13362
3620,28917;2,14279
3618,23802;2,15022
3616,18686;2,15573
3614,13571;2,16316
3612,08455;2,172
3610,0334;2,18116
3607,98224;2,19191
3605,93108;2,20385
3603,87993;2,21546
3601,82877;2,22518
3599,77762;2,23375
3597,72646;2,24418
3595,67531;2,25536
3593,62415;2,26283
3591,573;2,26713
3589,52184;2,2728
3587,47069;2,28161
3585,41953;2,292
3583,36838;2,30156
3581,31722;2,30863
3579,26607;2,31374
3577,21491;2,31965
3575,16375;2,33048
3573,1126;2,34515
3571,06144;2,35497
3569,01029;2,35695
3566,95913;2,3584
3564,90798;2,36523
3562,85682;2,37598
3560,80567;2,38572
3558,75451;2,3915
3556,70336;2,39558
3554,6522;2,40266
3552,60105;2,41363
3550,54989;2,42356
3548,49874;2,42873
3546,44758;2,43145
3544,39642;2,4353
3542,34527;2,43907
3540,29411;2,44041
3538,24296;2,44075
3536,1918;2,44034
3534,14065;2,43717
3532,08949;2,43366
3530,03834;2,43383
3527,98718;2,43682
3525,93603;2,43984
3523,88487;2,44108
3521,83372;2,44244
3519,78256;2,44878
3517,73141;2,45697
3515,68025;2,45976
3513,62909;2,46002
3511,57794;2,4639
3509,52678;2,46825
3507,47563;2,4673
3505,42447;2,46419
3503,37332;2,46614
3501,32216;2,47382
3499,27101;2,47911
3497,21985;2,47743
3495,1687;2,47567
3493,11754;2,479
3491,06639;2,48472
3489,01523;2,48873
3486,96407;2,48786
3484,91292;2,48491
3482,86176;2,48677
3480,81061;2,49291
3478,75945;2,49488
3476,7083;2,49283
3474,65714;2,49663
3472,60599;2,50648
3470,55483;2,51351
3468,50368;2,51543
3466,45252;2,51399
3464,40137;2,51032
3462,35021;2,50545
3460,29906;2,50238
3458,2479;2,50537
3456,19674;2,51118
3454,14559;2,51426
3452,09443;2,51381
3450,04328;2,51257
3447,99212;2,51583
3445,94097;2,52126
3443,88981;2,51994
3441,83866;2,51333
3439,7875;2,51153
3437,73635;2,51681
3435,68519;2,52189
3433,63404;2,5224
3431,58288;2,52246
3429,53173;2,52614
3427,48057;2,529
3425,42941;2,52594
3423,37826;2,51852
3421,3271;2,50859
3419,27595;2,50341
3417,22479;2,51096
3415,17364;2,52379
3413,12248;2,52873
3411,07133;2,52516
3409,02017;2,52367
3406,96902;2,5293
3404,91786;2,5343
3402,86671;2,53522
3400,81555;2,53554
3398,7644;2,53093
3396,71324;2,52269
3394,66208;2,52297
3392,61093;2,53164
3390,55977;2,5371
3388,50862;2,53457
3386,45746;2,52663
3384,40631;2,52169
3382,35515;2,52663
3380,304;2,53048
3378,25284;2,52593
3376,20169;2,52374
3374,15053;2,52823
3372,09938;2,53235
3370,04822;2,53206
3367,99707;2,53112
3365,94591;2,53106
3363,89475;2,52848
3361,8436;2,52592
3359,79244;2,52915
3357,74129;2,53193
3355,69013;2,52464
3353,63898;2,51453
3351,58782;2,51212
3349,53667;2,51316
3347,48551;2,51048
3345,43436;2,5109
3343,3832;2,51834
3341,33205;2,52501
3339,28089;2,52699
3337,22974;2,52168
3335,17858;2,5111
3333,12742;2,50464
3331,07627;2,50402
3329,02511;2,50324
3326,97396;2,49969
3324,9228;2,49818
3322,87165;2,50062
3320,82049;2,5014
3318,76934;2,50236
3316,71818;2,5068
3314,66703;2,50899
3312,61587;2,50492
3310,56472;2,49638
3308,51356;2,4888
3306,46241;2,48611
3304,41125;2,48755
3302,36009;2,4899
3300,30894;2,49013
3298,25778;2,48931
3296,20663;2,48908
3294,15547;2,48732
3292,10432;2,48217
3290,05316;2,47757
3288,00201;2,47899
3285,95085;2,48473
3283,8997;2,4894
3281,84854;2,48905
3279,79739;2,48456
3277,74623;2,48152
3275,69508;2,48096
3273,64392;2,48014
3271,59276;2,47817
3269,54161;2,47592
3267,49045;2,47522
3265,4393;2,47434
3263,38814;2,46936
3261,33699;2,4631
3259,28583;2,46099
3257,23468;2,4636
3255,18352;2,46674
3253,13237;2,46547
3251,08121;2,46276
3249,03006;2,46422
3246,9789;2,46809
3244,92775;2,47081
3242,87659;2,47152
3240,82543;2,46894
3238,77428;2,46315
3236,72312;2,45929
3234,67197;2,45965
3232,62081;2,46025
3230,56966;2,46105
3228,5185;2,46371
3226,46735;2,46345
3224,41619;2,45749
3222,36504;2,45315
3220,31388;2,45757
3218,26273;2,46541
3216,21157;2,46728
3214,16041;2,46362
3212,10926;2,46042
3210,0581;2,45905
3208,00695;2,45682
3205,95579;2,45037
3203,90464;2,44072
3201,85348;2,43508
3199,80233;2,43623
3197,75117;2,43986
3195,70002;2,44189
3193,64886;2,44149
3191,59771;2,43887
3189,54655;2,4362
3187,4954;2,43527
3185,44424;2,4336
3183,39308;2,43224
3181,34193;2,43358
3179,29077;2,4338
3177,23962;2,42957
3175,18846;2,42403
3173,13731;2,42403
3171,08615;2,42927
3169,035;2,43076
3166,98384;2,42564
3164,93269;2,41782
3162,88153;2,41033
3160,83038;2,40758
3158,77922;2,40893
3156,72807;2,40942
3154,67691;2,40845
3152,62575;2,40535
3150,5746;2,39868
3148,52344;2,39259
3146,47229;2,39043
3144,42113;2,38967
3142,36998;2,38988
3140,31882;2,39133
3138,26767;2,38873
3136,21651;2,38278
3134,16536;2,38075
3132,1142;2,38199
3130,06305;2,38332
3128,01189;2,38319
3125,96074;2,37921
3123,90958;2,37478
3121,85842;2,37519
3119,80727;2,37849
3117,75611;2,38007
3115,70496;2,37884
3113,6538;2,37686
3111,60265;2,37739
3109,55149;2,37914
3107,50034;2,3771
3105,44918;2,37325
3103,39803;2,3721
3101,34687;2,37085
3099,29572;2,36777
3097,24456;2,36503
3095,19341;2,3631
3093,14225;2,36132
3091,09109;2,35876
3089,03994;2,35694
3086,98878;2,35844
3084,93763;2,36002
3082,88647;2,35857
3080,83532;2,35739
3078,78416;2,35763
3076,73301;2,35713
3074,68185;2,35513
3072,6307;2,35269
3070,57954;2,35115
3068,52839;2,34979
3066,47723;2,34865
3064,42608;2,348
3062,37492;2,34755
3060,32376;2,34834
3058,27261;2,34902
3056,22145;2,34706
3054,1703;2,344
3052,11914;2,3435
3050,06799;2,34685
3048,01683;2,35242
3045,96568;2,35677
3043,91452;2,35728
3041,86337;2,35624
3039,81221;2,35656
3037,76106;2,35634
3035,7099;2,35521
3033,65875;2,35541
3031,60759;2,35721
3029,55643;2,36032
3027,50528;2,36314
3025,45412;2,36497
3023,40297;2,36706
3021,35181;2,36784
3019,30066;2,36684
3017,2495;2,3686
3015,19835;2,3744
3013,14719;2,37974
3011,09604;2,38386
3009,04488;2,38995
3006,99373;2,39742
3004,94257;2,40656
3002,89142;2,41989
3000,84026;2,43512
2998,7891;2,4479
2996,73795;2,45899
2994,68679;2,4764
2992,63564;2,50219
2990,58448;2,52662
2988,53333;2,5465
2986,48217;2,56414
2984,43102;2,57209
2982,37986;2,56964
2980,32871;2,56456
2978,27755;2,55883
2976,2264;2,55568
2974,17524;2,55358
2972,12409;2,54779
2970,07293;2,54297
2968,02177;2,54281
2965,97062;2,54184
2963,91946;2,53731
2961,86831;2,53384
2959,81715;2,53163
2957,766;2,52734
2955,71484;2,52256
2953,66369;2,51919
2951,61253;2,51483
2949,56138;2,51047
2947,51022;2,51011
2945,45907;2,511
2943,40791;2,50996
2941,35675;2,50923
2939,3056;2,50884
2937,25444;2,50934
2935,20329;2,51176
2933,15213;2,51151
2931,10098;2,5086
2929,04982;2,50933
2926,99867;2,51123
2924,94751;2,50749
2922,89636;2,50154
2920,8452;2,49962
2918,79405;2,50337
2916,74289;2,50956
2914,69174;2,51097
2912,64058;2,50613
2910,58942;2,49902
2908,53827;2,4942
2906,48711;2,49469
2904,43596;2,49855
2902,3848;2,50358
2900,33365;2,50862
2898,28249;2,51078
2896,23134;2,50937
2894,18018;2,50799
2892,12903;2,51135
2890,07787;2,52031
2888,02672;2,53241
2885,97556;2,54654
2883,92441;2,55949
2881,87325;2,57127
2879,82209;2,58595
2877,77094;2,59767
2875,71978;2,60232
2873,66863;2,60676
2871,61747;2,61192
2869,56632;2,6105
2867,51516;2,59833
2865,46401;2,58158
2863,41285;2,56723
2861,3617;2,55588
2859,31054;2,54836
2857,25939;2,54409
2855,20823;2,54056
2853,15708;2,5358
2851,10592;2,52607
2849,05476;2,51231
2847,00361;2,49749
2844,95245;2,48246
2842,9013;2,46963
2840,85014;2,45672
2838,79899;2,43894
2836,74783;2,41851
2834,69668;2,39844
2832,64552;2,37931
2830,59437;2,36219
2828,54321;2,34703
2826,49206;2,3326
2824,4409;2,31826
2822,38975;2,30503
2820,33859;2,29434
2818,28743;2,28658
2816,23628;2,27967
2814,18512;2,27207
2812,13397;2,26539
2810,08281;2,25932
2808,03166;2,25297
2805,9805;2,2486
2803,92935;2,24539
2801,87819;2,24015
2799,82704;2,23421
2797,77588;2,22881
2795,72473;2,22318
2793,67357;2,21724
2791,62242;2,21004
2789,57126;2,20102
2787,5201;2,19259
2785,46895;2,18744
2783,41779;2,18469
2781,36664;2,18137
2779,31548;2,1762
2777,26433;2,17066
2775,21317;2,16565
2773,16202;2,16112
2771,11086;2,15736
2769,05971;2,15328
2767,00855;2,14829
2764,9574;2,14392
2762,90624;2,14122
2760,85509;2,14023
2758,80393;2,13991
2756,75277;2,13814
2754,70162;2,13432
2752,65046;2,13055
2750,59931;2,12876
2748,54815;2,1278
2746,497;2,12575
2744,44584;2,12269
2742,39469;2,12052
2740,34353;2,11996
2738,29238;2,11835
2736,24122;2,11502
2734,19007;2,11256
2732,13891;2,11134
2730,08776;2,11077
2728,0366;2,11128
2725,98544;2,11094
2723,93429;2,10817
2721,88313;2,10543
2719,83198;2,10451
2717,78082;2,10294
2715,72967;2,10026
2713,67851;2,09962
2711,62736;2,10054
2709,5762;2,10114
2707,52505;2,101
2705,47389;2,09901
2703,42274;2,09573
2701,37158;2,09356
2699,32043;2,09334
2697,26927;2,0942
2695,21811;2,09527
2693,16696;2,09594
2691,1158;2,09639
2689,06465;2,09709
2687,01349;2,09692
2684,96234;2,09539
2682,91118;2,09493
2680,86003;2,09647
2678,80887;2,0986
2676,75772;2,09987
2674,70656;2,09994
2672,65541;2,10167
2670,60425;2,10475
2668,55309;2,10559
2666,50194;2,10574
2664,45078;2,10761
2662,39963;2,10941
2660,34847;2,10979
2658,29732;2,11081
2656,24616;2,11458
2654,19501;2,11939
2652,14385;2,12312
2650,0927;2,12673
2648,04154;2,13107
2645,99039;2,13664
2643,93923;2,14482
2641,88808;2,15589
2639,83692;2,16889
2637,78576;2,18429
2635,73461;2,20293
2633,68345;2,22415
2631,6323;2,24577
2629,58114;2,26461
2627,52999;2,27967
2625,47883;2,29268
2623,42768;2,30673
2621,37652;2,3224
2619,32537;2,33747
2617,27421;2,35183
2615,22306;2,3671
2613,1719;2,38136
2611,12075;2,39158
2609,06959;2,40094
2607,01843;2,41281
2604,96728;2,42585
2602,91612;2,43623
2600,86497;2,44014
2598,81381;2,44138
2596,76266;2,44804
2594,7115;2,45689
2592,66035;2,45998
2590,60919;2,46067
2588,55804;2,4631
2586,50688;2,46535
2584,45573;2,46661
2582,40457;2,46784
2580,35342;2,4686
2578,30226;2,46889
2576,2511;2,47006
2574,19995;2,47288
2572,14879;2,47705
2570,09764;2,48159
2568,04648;2,48465
2565,99533;2,48595
2563,94417;2,48739
2561,89302;2,49186
2559,84186;2,4972
2557,79071;2,49697
2555,73955;2,49674
2553,6884;2,50397
2551,63724;2,51283
2549,58609;2,51649
2547,53493;2,51764
2545,48377;2,52223
2543,43262;2,52852
2541,38146;2,53686
2539,33031;2,55214
2537,27915;2,57249
2535,228;2,59531
2533,17684;2,61726
2531,12569;2,63699
2529,07453;2,65764
2527,02338;2,67706
2524,97222;2,69495
2522,92107;2,7109
2520,86991;2,72177
2518,81876;2,73058
2516,7676;2,73749
2514,71644;2,74304
2512,66529;2,74654
2510,61413;2,7451
2508,56298;2,74222
2506,51182;2,7367
2504,46067;2,7211
2502,40951;2,69536
2500,35836;2,66559
2498,3072;2,63781
2496,25605;2,61358
2494,20489;2,58928
2492,15374;2,56443
2490,10258;2,54066
2488,05143;2,51689
2486,00027;2,49243
2483,94911;2,4673
2481,89796;2,44302
2479,8468;2,41954
2477,79565;2,39453
2475,74449;2,37103
2473,69334;2,35207
2471,64218;2,33358
2469,59103;2,31395
2467,53987;2,2951
2465,48872;2,27836
2463,43756;2,2651
2461,38641;2,25365
2459,33525;2,24194
2457,2841;2,22948
2455,23294;2,21784
2453,18178;2,20887
2451,13063;2,20078
2449,07947;2,19167
2447,02832;2,18289
2444,97716;2,17603
2442,92601;2,17002
2440,87485;2,16354
2438,8237;2,15683
2436,77254;2,15093
2434,72139;2,14669
2432,67023;2,14221
2430,61908;2,13591
2428,56792;2,1295
2426,51677;2,1243
2424,46561;2,1199
2422,41445;2,11537
2420,3633;2,11048
2418,31214;2,10535
2416,26099;2,09928
2414,20983;2,09247
2412,15868;2,08654
2410,10752;2,08219
2408,05637;2,07919
2406,00521;2,07718
2403,95406;2,0746
2401,9029;2,07045
2399,85175;2,06616
2397,80059;2,06274
2395,74944;2,05984
2393,69828;2,05683
2391,64712;2,05364
2389,59597;2,05049
2387,54481;2,04834
2385,49366;2,04832
2383,4425;2,04967
2381,39135;2,05072
2379,34019;2,05073
2377,28904;2,04989
2375,23788;2,04952
2373,18673;2,05087
2371,13557;2,052
2369,08442;2,0503
2367,03326;2,04747
2364,9821;2,04594
2362,93095;2,04551
2360,87979;2,04554
2358,82864;2,04442
2356,77748;2,04112
2354,72633;2,03883
2352,67517;2,04037
2350,62402;2,04383
2348,57286;2,04507
2346,52171;2,04383
2344,47055;2,0439
2342,4194;2,04555
2340,36824;2,04517
2338,31709;2,04123
2336,26593;2,03656
2334,21477;2,03549
2332,16362;2,03754
2330,11246;2,03931
2328,06131;2,03998
2326,01015;2,04099
2323,959;2,04232
2321,90784;2,04198
2319,85669;2,04023
2317,80553;2,03926
2315,75438;2,03898
2313,70322;2,03823
2311,65207;2,0375
2309,60091;2,03752
2307,54976;2,03787
2305,4986;2,03752
2303,44744;2,03616
2301,39629;2,03471
2299,34513;2,03372
2297,29398;2,0325
2295,24282;2,03087
2293,19167;2,02958
2291,14051;2,02866
2289,08936;2,02755
2287,0382;2,02648
2284,98705;2,02578
2282,93589;2,02555
2280,88474;2,02552
2278,83358;2,02517
2276,78243;2,02513
2274,73127;2,0259
2272,68011;2,02707
2270,62896;2,02864
2268,5778;2,0301
2266,52665;2,03114
2264,47549;2,03237
2262,42434;2,03416
2260,37318;2,0369
2258,32203;2,03959
2256,27087;2,04049
2254,21972;2,04073
2252,16856;2,04261
2250,11741;2,04593
2248,06625;2,04905
2246,0151;2,05138
2243,96394;2,05464
2241,91278;2,05856
2239,86163;2,06217
2237,81047;2,06609
2235,75932;2,06989
2233,70816;2,07301
2231,65701;2,07606
2229,60585;2,07893
2227,5547;2,08197
2225,50354;2,08542
2223,45239;2,08803
2221,40123;2,08926
2219,35008;2,09057
2217,29892;2,09339
2215,24777;2,09727
2213,19661;2,10011
2211,14545;2,10089
2209,0943;2,10111
2207,04314;2,10158
2204,99199;2,10212
2202,94083;2,10247
2200,88968;2,10204
2198,83852;2,1015
2196,78737;2,10195
2194,73621;2,10403
2192,68506;2,10709
2190,6339;2,10878
2188,58275;2,10847
2186,53159;2,10802
2184,48044;2,10911
2182,42928;2,11158
2180,37812;2,11406
2178,32697;2,11677
2176,27581;2,11968
2174,22466;2,12179
2172,1735;2,12444
2170,12235;2,12904
2168,07119;2,13464
2166,02004;2,14102
2163,96888;2,1493
2161,91773;2,15855
2159,86657;2,16712
2157,81542;2,17683
2155,76426;2,1906
2153,71311;2,20588
2151,66195;2,21827
2149,61079;2,22791
2147,55964;2,23556
2145,50848;2,2409
2143,45733;2,24454
2141,40617;2,24666
2139,35502;2,24636
2137,30386;2,24305
2135,25271;2,23809
2133,20155;2,2332
2131,1504;2,2269
2129,09924;2,21734
2127,04809;2,20564
2124,99693;2,1923
2122,94578;2,17742
2120,89462;2,16318
2118,84346;2,15066
2116,79231;2,13914
2114,74115;2,12885
2112,69;2,12026
2110,63884;2,11376
2108,58769;2,10921
2106,53653;2,10502
2104,48538;2,10053
2102,43422;2,09688
2100,38307;2,09488
2098,33191;2,09358
2096,28076;2,09223
2094,2296;2,09132
2092,17844;2,09136
2090,12729;2,09183
2088,07613;2,09193
2086,02498;2,09198
2083,97382;2,09324
2081,92267;2,09482
2079,87151;2,09497
2077,82036;2,09466
2075,7692;2,09489
2073,71805;2,09484
2071,66689;2,09476
2069,61574;2,09578
2067,56458;2,09773
2065,51343;2,09951
2063,46227;2,10062
2061,41111;2,10172
2059,35996;2,10306
2057,3088;2,10397
2055,25765;2,10402
2053,20649;2,10402
2051,15534;2,10522
2049,10418;2,10726
2047,05303;2,10938
2045,00187;2,11131
2042,95072;2,11275
2040,89956;2,11351
2038,84841;2,11374
2036,79725;2,11445
2034,7461;2,11638
2032,69494;2,11864
2030,64378;2,11974
2028,59263;2,11975
2026,54147;2,11935
2024,49032;2,11903
2022,43916;2,12019
2020,38801;2,12252
2018,33685;2,12419
2016,2857;2,12531
2014,23454;2,1263
2012,18339;2,12696
2010,13223;2,12839
2008,08108;2,13091
2006,02992;2,13267
2003,97877;2,13316
2001,92761;2,1336
1999,87645;2,13449
1997,8253;2,13585
1995,77414;2,13771
1993,72299;2,13944
1991,67183;2,13991
1989,62068;2,13958
1987,56952;2,1397
1985,51837;2,1403
1983,46721;2,14165
1981,41606;2,14305
1979,3649;2,14419
1977,31375;2,14606
1975,26259;2,14845
1973,21144;2,15062
1971,16028;2,15257
1969,10912;2,15672
1967,05797;2,16688
1965,00681;2,18378
1962,95566;2,20175
1960,9045;2,21036
1958,85335;2,20527
1956,80219;2,19371
1954,75104;2,18308
1952,69988;2,17557
1950,64873;2,17211
1948,59757;2,17158
1946,54642;2,17123
1944,49526;2,17105
1942,44411;2,1723
1940,39295;2,17559
1938,34179;2,18111
1936,29064;2,18555
1934,23948;2,18695
1932,18833;2,18746
1930,13717;2,18819
1928,08602;2,18965
1926,03486;2,19207
1923,98371;2,19459
1921,93255;2,19584
1919,8814;2,19688
1917,83024;2,19927
1915,77909;2,20249
1913,72793;2,2065
1911,67678;2,21044
1909,62562;2,21342
1907,57446;2,21616
1905,52331;2,22016
1903,47215;2,22481
1901,421;2,22858
1899,36984;2,2318
1897,31869;2,23529
1895,26753;2,23896
1893,21638;2,24245
1891,16522;2,24586
1889,11407;2,24903
1887,06291;2,2531
1885,01176;2,25871
1882,9606;2,26391
1880,90945;2,26893
1878,85829;2,27504
1876,80713;2,28081
1874,75598;2,2854
1872,70482;2,28928
1870,65367;2,29295
1868,60251;2,29764
1866,55136;2,3042
1864,5002;2,31256
1862,44905;2,32275
1860,39789;2,33324
1858,34674;2,34197
1856,29558;2,34986
1854,24443;2,35829
1852,19327;2,36688
1850,14212;2,37497
1848,09096;2,38343
1846,0398;2,39429
1843,98865;2,40616
1841,93749;2,41665
1839,88634;2,42803
1837,83518;2,44044
1835,78403;2,45154
1833,73287;2,4619
1831,68172;2,47343
1829,63056;2,48763
1827,57941;2,5056
1825,52825;2,52522
1823,4771;2,54223
1821,42594;2,55845
1819,37478;2,57697
1817,32363;2,59653
1815,27247;2,616
1813,22132;2,63725
1811,17016;2,66708
1809,11901;2,71235
1807,06785;2,76971
1805,0167;2,82984
1802,96554;2,89071
1800,91439;2,95315
1798,86323;3,00582
1796,81208;3,03259
1794,76092;3,03529
1792,70977;3,02245
1790,65861;2,98851
1788,60745;2,94071
1786,5563;2,8921
1784,50514;2,84461
1782,45399;2,80202
1780,40283;2,76795
1778,35168;2,7408
1776,30052;2,71936
1774,24937;2,70666
1772,19821;2,70399
1770,14706;2,70614
1768,0959;2,71028
1766,04475;2,71729
1763,99359;2,72855
1761,94244;2,74297
1759,89128;2,75583
1757,84012;2,7665
1755,78897;2,77537
1753,73781;2,78241
1751,68666;2,78908
1749,6355;2,79454
1747,58435;2,80108
1745,53319;2,80997
1743,48204;2,81468
1741,43088;2,81636
1739,37973;2,82151
1737,32857;2,82308
1735,27742;2,81544
1733,22626;2,80856
1731,17511;2,8132
1729,12395;2,81969
1727,07279;2,81719
1725,02164;2,81105
1722,97048;2,80868
1720,91933;2,81019
1718,86817;2,81108
1716,81702;2,80817
1714,76586;2,80786
1712,71471;2,8144
1710,66355;2,82354
1708,6124;2,82984
1706,56124;2,82897
1704,51009;2,82217
1702,45893;2,81962
1700,40778;2,82333
1698,35662;2,83388
1696,30546;2,8595
1694,25431;2,8793
1692,20315;2,87623
1690,152;2,8631
1688,10084;2,85802
1686,04969;2,87499
1683,99853;2,90313
1681,94738;2,91387
1679,89622;2,91498
1677,84507;2,92237
1675,79391;2,9348
1673,74276;2,9451
1671,6916;2,95277
1669,64045;2,96067
1667,58929;2,96789
1665,53813;2,97194
1663,48698;2,9707
1661,43582;2,97195
1659,38467;2,98627
1657,33351;3,00419
1655,28236;3,01329
1653,2312;3,02058
1651,18005;3,03517
1649,12889;3,05078
1647,07774;3,05418
1645,02658;3,04466
1642,97543;3,04302
1640,92427;3,04969
1638,87312;3,05377
1636,82196;3,05589
1634,7708;3,06029
1632,71965;3,06699
1630,66849;3,07499
1628,61734;3,08185
1626,56618;3,08784
1624,51503;3,10013
1622,46387;3,11267
1620,41272;3,10869
1618,36156;3,09728
1616,31041;3,10214
1614,25925;3,12426
1612,2081;3,14095
1610,15694;3,13825
1608,10579;3,12427
1606,05463;3,1148
1604,00347;3,10965
1601,95232;3,10828
1599,90116;3,1191
1597,85001;3,13711
1595,79885;3,15017
1593,7477;3,15748
1591,69654;3,16506
1589,64539;3,17116
1587,59423;3,16538
1585,54308;3,14619
1583,49192;3,12655
1581,44077;3,1129
1579,38961;3,09678
1577,33846;3,06715
1575,2873;3,01993
1573,23614;2,97274
1571,18499;2,93351
1569,13383;2,89099
1567,08268;2,8493
1565,03152;2,81567
1562,98037;2,78475
1560,92921;2,74179
1558,87806;2,66615
1556,8269;2,58797
1554,77575;2,54007
1552,72459;2,50225
1550,67344;2,46251
1548,62228;2,42742
1546,57113;2,40304
1544,51997;2,38498
1542,46881;2,36861
1540,41766;2,35472
1538,3665;2,34325
1536,31535;2,33756
1534,26419;2,33484
1532,21304;2,32901
1530,16188;2,32344
1528,11073;2,32068
1526,05957;2,3174
1524,00842;2,31311
1521,95726;2,30876
1519,90611;2,30423
1517,85495;2,30323
1515,80379;2,30737
1513,75264;2,31298
1511,70148;2,31497
1509,65033;2,31261
1507,59917;2,31127
1505,54802;2,31166
1503,49686;2,31343
1501,44571;2,31739
1499,39455;2,32006
1497,3434;2,31939
1495,29224;2,31673
1493,24109;2,31513
1491,18993;2,31499
1489,13878;2,31386
1487,08762;2,31392
1485,03646;2,31647
1482,98531;2,31831
1480,93415;2,31749
1478,883;2,31477
1476,83184;2,31159
1474,78069;2,30768
1472,72953;2,30335
1470,67838;2,30085
1468,62722;2,30073
1466,57607;2,29868
1464,52491;2,29137
1462,47376;2,28331
1460,4226;2,27877
1458,37145;2,27501
1456,32029;2,26843
1454,26913;2,26227
1452,21798;2,25831
1450,16682;2,25295
1448,11567;2,24556
1446,06451;2,23843
1444,01336;2,2322
1441,9622;2,2253
1439,91105;2,21738
1437,85989;2,20954
1435,80874;2,19986
1433,75758;2,18807
1431,70643;2,17571
1429,65527;2,16152
1427,60412;2,14593
1425,55296;2,13014
1423,5018;2,11324
1421,45065;2,09508
1419,39949;2,07322
1417,34834;2,04719
1415,29718;2,02404
1413,24603;2,00514
1411,19487;1,98935
1409,14372;1,98008
1407,09256;1,98224
1405,04141;1,99618
1402,99025;2,01543
1400,9391;2,03434
1398,88794;2,05191
1396,83679;2,06952
1394,78563;2,08985
1392,73447;2,11119
1390,68332;2,13213
1388,63216;2,15486
1386,58101;2,17762
1384,52985;2,19735
1382,4787;2,21579
1380,42754;2,23387
1378,37639;2,25101
1376,32523;2,26823
1374,27408;2,28456
1372,22292;2,29692
1370,17177;2,30667
1368,12061;2,31554
1366,06946;2,32327
1364,0183;2,33282
1361,96714;2,34644
1359,91599;2,36022
1357,86483;2,36955
1355,81368;2,37462
1353,76252;2,37859
1351,71137;2,38255
1349,66021;2,38556
1347,60906;2,38836
1345,5579;2,39198
1343,50675;2,39491
1341,45559;2,3966
1339,40444;2,39962
1337,35328;2,40433
1335,30213;2,40741
1333,25097;2,40897
1331,19981;2,41114
1329,14866;2,41324
1327,0975;2,41527
1325,04635;2,41725
1322,99519;2,41806
1320,94404;2,41932
1318,89288;2,42173
1316,84173;2,42317
1314,79057;2,42428
1312,73942;2,42449
1310,68826;2,42185
1308,63711;2,41979
1306,58595;2,42022
1304,5348;2,41939
1302,48364;2,41556
1300,43248;2,41212
1298,38133;2,41253
1296,33017;2,41535
1294,27902;2,41702
1292,22786;2,41623
1290,17671;2,41317
1288,12555;2,41072
1286,0744;2,4117
1284,02324;2,41417
1281,97209;2,41521
1279,92093;2,4148
1277,86978;2,41444
1275,81862;2,41497
1273,76747;2,41638
1271,71631;2,418
1269,66515;2,42005
1267,614;2,42194
1265,56284;2,42232
1263,51169;2,42239
1261,46053;2,42144
1259,40938;2,41826
1257,35822;2,41628
1255,30707;2,4186
1253,25591;2,42396
1251,20476;2,42829
1249,1536;2,4282
1247,10245;2,42513
1245,05129;2,42557
1243,00013;2,43185
1240,94898;2,43729
1238,89782;2,43759
1236,84667;2,4362
1234,79551;2,43546
1232,74436;2,43554
1230,6932;2,43897
1228,64205;2,44539
1226,59089;2,44872
1224,53974;2,44746
1222,48858;2,445
1220,43743;2,44288
1218,38627;2,44356
1216,33512;2,44888
1214,28396;2,45524
1212,2328;2,45803
1210,18165;2,45865
1208,13049;2,45991
1206,07934;2,46311
1204,02818;2,46945
1201,97703;2,47626
1199,92587;2,48004
1197,87472;2,48242
1195,82356;2,48591
1193,77241;2,48848
1191,72125;2,48864
1189,6701;2,4906
1187,61894;2,49636
1185,56779;2,50274
1183,51663;2,50794
1181,46547;2,51206
1179,41432;2,51407
1177,36316;2,51469
1175,31201;2,51458
1173,26085;2,5134
1171,2097;2,51516
1169,15854;2,51948
1167,10739;2,51947
1165,05623;2,51687
1163,00508;2,5143
1160,95392;2,50986
1158,90277;2,50665
1156,85161;2,5045
1154,80046;2,49945
1152,7493;2,49321
1150,69814;2,48897
1148,64699;2,48875
1146,59583;2,4906
1144,54468;2,48887
1142,49352;2,48217
1140,44237;2,47388
1138,39121;2,46917
1136,34006;2,46911
1134,2889;2,47088
1132,23775;2,47167
1130,18659;2,46968
1128,13544;2,46885
1126,08428;2,46912
1124,03313;2,46554
1121,98197;2,46165
1119,93081;2,4608
1117,87966;2,45986
1115,8285;2,45999
1113,77735;2,46266
1111,72619;2,46348
1109,67504;2,46236
1107,62388;2,46182
1105,57273;2,45857
1103,52157;2,45475
1101,47042;2,45788
1099,41926;2,46396
1097,36811;2,4667
1095,31695;2,46943
1093,2658;2,47506
1091,21464;2,48511
1089,16348;2,49892
1087,11233;2,51226
1085,06117;2,52068
1083,01002;2,52051
1080,95886;2,51679
1078,90771;2,51077
1076,85655;2,49918
1074,8054;2,49113
1072,75424;2,48756
1070,70309;2,48074
1068,65193;2,47585
1066,60078;2,47503
1064,54962;2,47156
1062,49847;2,46771
1060,44731;2,46513
1058,39615;2,46298
1056,345;2,46558
1054,29384;2,46958
1052,24269;2,47076
1050,19153;2,4721
1048,14038;2,47459
1046,08922;2,47567
1044,03807;2,47477
1041,98691;2,47229
1039,93576;2,46785
1037,8846;2,46644
1035,83345;2,47102
1033,78229;2,47666
1031,73114;2,48009
1029,67998;2,48365
1027,62882;2,49014
1025,57767;2,49629
1023,52651;2,49808
1021,47536;2,50011
1019,4242;2,50455
1017,37305;2,50629
1015,32189;2,50304
1013,27074;2,49828
1011,21958;2,49802
1009,16843;2,50191
1007,11727;2,50503
1005,06612;2,50514
1003,01496;2,50299
1000,96381;2,49885
998,91265;2,49251
996,86149;2,48969
994,81034;2,4913
992,75918;2,4908
990,70803;2,48641
988,65687;2,48166
986,60572;2,48033
984,55456;2,48221
982,50341;2,48298
980,45225;2,48041
978,4011;2,4764
976,34994;2,47357
974,29879;2,47408
972,24763;2,47422
970,19647;2,47179
968,14532;2,47046
966,09416;2,47054
964,04301;2,47002
961,99185;2,46865
959,9407;2,47064
957,88954;2,47821
955,83839;2,48525
953,78723;2,48856
951,73608;2,49252
949,68492;2,49824
947,63377;2,50178
945,58261;2,50217
943,53146;2,50186
941,4803;2,50303
939,42914;2,50623
937,37799;2,50814
935,32683;2,50706
933,27568;2,5057
931,22452;2,50463
929,17337;2,50456
927,12221;2,50353
925,07106;2,49676
923,0199;2,4867
920,96875;2,48096
918,91759;2,48076
916,86644;2,48143
914,81528;2,48423
912,76413;2,49001
910,71297;2,49377
908,66181;2,49756
906,61066;2,50489
904,5595;2,51157
902,50835;2,51326
900,45719;2,51167
898,40604;2,51404
896,35488;2,52131
894,30373;2,51982
892,25257;2,50103
890,20142;2,4755
888,15026;2,47306
886,09911;2,53122
884,04795;2,64033
881,9968;2,69945
879,94564;2,64231
877,89448;2,53466
875,84333;2,43106
873,79217;2,3501
871,74102;2,3113
869,68986;2,32777
867,63871;2,38277
865,58755;2,4393
863,5364;2,47401
861,48524;2,48828
859,43409;2,49212
857,38293;2,48926
855,33178;2,4851
853,28062;2,49412
851,22947;2,52649
849,17831;2,56273
847,12715;2,56214
845,076;2,52672
843,02484;2,49173
840,97369;2,47146
838,92253;2,46242
836,87138;2,45998
834,82022;2,46232
832,76907;2,46888
830,71791;2,47157
828,66676;2,46406
826,6156;2,45846
824,56445;2,46581
822,51329;2,48446
820,46214;2,49953
818,41098;2,49946
816,35982;2,49481
814,30867;2,49387
812,25751;2,49654
810,20636;2,50045
808,1552;2,49949
806,10405;2,4974
804,05289;2,50149
802,00174;2,50873
799,95058;2,51924
797,89943;2,53297
795,84827;2,54054
793,79712;2,54064
791,74596;2,53799
789,69481;2,53596
787,64365;2,53785
785,59249;2,54373
783,54134;2,54812
781,49018;2,54774
779,43903;2,5504
777,38787;2,56286
775,33672;2,57939
773,28556;2,58287
771,23441;2,57464
769,18325;2,57642
767,1321;2,58404
765,08094;2,5804
763,02979;2,57207
760,97863;2,56686
758,92748;2,56605
756,87632;2,56823
754,82516;2,56235
752,77401;2,55163
750,72285;2,5485
748,6717;2,54996
746,62054;2,55282
744,56939;2,5604
742,51823;2,56921
740,46708;2,57479
738,41592;2,58366
736,36477;2,59684
734,31361;2,61273
732,26246;2,63232
730,2113;2,65038
728,16015;2,67095
726,10899;2,7016
724,05783;2,73584
722,00668;2,77063
719,95552;2,82226
717,90437;2,88738
715,85321;2,90571
713,80206;2,84747
711,7509;2,77003
709,69975;2,72381
707,64859;2,7005
705,59744;2,6842
703,54628;2,67943
701,49513;2,68201
699,44397;2,67793
697,39281;2,66809
695,34166;2,66373
693,2905;2,66914
691,23935;2,67564
689,18819;2,66976
687,13704;2,65052
685,08588;2,6343
683,03473;2,62738
680,98357;2,62336
678,93242;2,62661
676,88126;2,63594
674,83011;2,6339
672,77895;2,61857
670,7278;2,61067
668,67664;2,62319
666,62548;2,64206
664,57433;2,64468
662,52317;2,63132
660,47202;2,61519
658,42086;2,6062
656,36971;2,60573
654,31855;2,61045
652,2674;2,61747
650,21624;2,62952
648,16509;2,64158
646,11393;2,64219
644,06278;2,63339
642,01162;2,63215
639,96047;2,64457
637,90931;2,65884
635,85815;2,66099
633,807;2,64848
631,75584;2,63756
629,70469;2,64182
627,65353;2,65949
625,60238;2,68109
623,55122;2,68544
621,50007;2,67472
619,44891;2,67994
617,39776;2,69941
615,3466;2,70582
613,29545;2,69613
611,24429;2,68201
609,19314;2,68828
607,14198;2,72258
605,09082;2,73966
603,03967;2,72879
600,98851;2,72793
598,93736;2,73483
596,8862;2,74636
594,83505;2,76015
592,78389;2,74385
590,73274;2,72478
588,68158;2,75324
586,63043;2,80808
584,57927;2,82015
582,52812;2,78814
580,47696;2,77484
578,42581;2,7908
576,37465;2,78524
574,32349;2,76322
572,27234;2,78384
570,22118;2,846
568,17003;2,90781
566,11887;2,9199
564,06772;2,85277
562,01656;2,78179
559,96541;2,77225
557,91425;2,79555
555,8631;2,80768
553,81194;2,80843
551,76079;2,79636
549,70963;2,79196
547,65848;2,8112
545,60732;2,82915
543,55616;2,85441
541,50501;2,88568
539,45385;2,88774
537,4027;2,8695
535,35154;2,85946
533,30039;2,86784
531,24923;2,88061
529,19808;2,8774
527,14692;2,88381
525,09577;2,92581
523,04461;2,94147
520,99346;2,90539
518,9423;2,89604
516,89115;2,93673
514,83999;2,96525
512,78883;2,99853
510,73768;3,05105
508,68652;3,02783
506,63537;2,93855
504,58421;2,89627
502,53306;2,90586
500,4819;2,94143
498,43075;3,00306
496,37959;3,0359
494,32844;3,0486
492,27728;3,09739
490,22613;3,13182
488,17497;3,11133
486,12382;3,08026
484,07266;3,05412
482,0215;3,00298
479,97035;2,98007
477,91919;3,05028
475,86804;3,13492
473,81688;3,12799
471,76573;3,05766
469,71457;2,98473
467,66342;2,96332
465,61226;3,03925
463,56111;3,18981
461,50995;3,24428
459,4588;3,23704
457,40764;3,3432
455,35649;3,40943
453,30533;3,25045
451,25417;3,15494
449,20302;3,20807
447,15186;3,31648
445,10071;3,46807
443,04955;3,41135
440,9984;3,49388
438,94724;3,49068
436,89609;3,5333
434,84493;3,47334
432,79378;3,39294
430,74262;3,32075
428,69147;3,35088
426,64031;3,28261
424,58916;3,12579
422,538;3,00199
420,48684;2,9465
418,43569;2,91703
416,38453;2,87996
414,33338;2,82029
412,28222;2,79589
410,23107;2,90623
408,17991;3,0514
406,12876;2,96651
404,0776;2,80047
402,02645;2,73809
399,97529;2,79378
