3997,70175;1,7531
3995,6506;1,75409
3993,59944;1,75527
3991,54829;1,75631
3989,49713;1,75714
3987,44598;1,75849
3985,39482;1,76005
3983,34367;1,76114
3981,29251;1,76194
3979,24136;1,76314
3977,1902;1,76468
3975,13905;1,76611
3973,08789;1,76759
3971,03673;1,76887
3968,98558;1,77019
3966,93442;1,7724
3964,88327;1,77486
3962,83211;1,7769
3960,78096;1,77893
3958,7298;1,78045
3956,67865;1,78172
3954,62749;1,7843
3952,57634;1,78763
3950,52518;1,78958
3948,47403;1,78991
3946,42287;1,79041
3944,37172;1,79128
3942,32056;1,79138
3940,2694;1,79031
3938,21825;1,78846
3936,16709;1,78686
3934,11594;1,7849
3932,06478;1,78211
3930,01363;1,78002
3927,96247;1,77822
3925,91132;1,77449
3923,86016;1,76964
3921,80901;1,76582
3919,75785;1,76289
3917,7067;1,75973
3915,65554;1,75604
3913,60439;1,75232
3911,55323;1,74944
3909,50207;1,74847
3907,45092;1,74848
3905,39976;1,74761
3903,34861;1,74585
3901,29745;1,74342
3899,2463;1,7404
3897,19514;1,7384
3895,14399;1,73753
3893,09283;1,73631
3891,04168;1,73543
3888,99052;1,73691
3886,93937;1,73861
3884,88821;1,73977
3882,83706;1,74077
3880,7859;1,74041
3878,73474;1,74005
3876,68359;1,73968
3874,63243;1,73922
3872,58128;1,73934
3870,53012;1,73832
3868,47897;1,73737
3866,42781;1,73541
3864,37666;1,73206
3862,3255;1,73082
3860,27435;1,73156
3858,22319;1,73208
3856,17204;1,73032
3854,12088;1,72713
3852,06973;1,72652
3850,01857;1,72642
3847,96741;1,72521
3845,91626;1,72437
3843,8651;1,72335
3841,81395;1,7219
3839,76279;1,72036
3837,71164;1,71962
3835,66048;1,72012
3833,60933;1,72
3831,55817;1,71982
3829,50702;1,72114
3827,45586;1,72281
3825,40471;1,72479
3823,35355;1,72537
3821,3024;1,72456
3819,25124;1,72584
3817,20008;1,72517
3815,14893;1,72314
3813,09777;1,72359
3811,04662;1,72455
3808,99546;1,72435
3806,94431;1,72433
3804,89315;1,72635
3802,842;1,7272
3800,79084;1,72789
3798,73969;1,72991
3796,68853;1,73009
3794,63738;1,72993
3792,58622;1,73047
3790,53506;1,73124
3788,48391;1,7323
3786,43275;1,73354
3784,3816;1,73547
3782,33044;1,73715
3780,27929;1,73659
3778,22813;1,73611
3776,17698;1,73758
3774,12582;1,73972
3772,07467;1,74171
3770,02351;1,74408
3767,97236;1,74696
3765,9212;1,74877
3763,87005;1,75044
3761,81889;1,7513
3759,76773;1,7514
3757,71658;1,75371
3755,66542;1,75778
3753,61427;1,76051
3751,56311;1,76158
3749,51196;1,76363
3747,4608;1,76577
3745,40965;1,76585
3743,35849;1,76952
3741,30734;1,77704
3739,25618;1,78318
3737,20503;1,78835
3735,15387;1,79323
3733,10272;1,79616
3731,05156;1,79843
3729,0004;1,80188
3726,94925;1,80562
3724,89809;1,80976
3722,84694;1,81395
3720,79578;1,81806
3718,74463;1,82187
3716,69347;1,82577
3714,64232;1,83126
3712,59116;1,83885
3710,54001;1,8469
3708,48885;1,85398
3706,4377;1,86195
3704,38654;1,87389
3702,33539;1,89388
3700,28423;1,92233
3698,23307;1,95093
3696,18192;1,97299
3694,13076;1,98664
3692,07961;1,99082
3690,02845;1,98739
3687,9773;1,98243
3685,92614;1,98169
3683,87499;1,98483
3681,82383;1,99083
3679,77268;2,00024
3677,72152;2,01432
3675,67037;2,03364
3673,61921;2,05363
3671,56806;2,0691
3669,5169;2,08643
3667,46574;2,10687
3665,41459;2,12334
3663,36343;2,1372
3661,31228;2,15266
3659,26112;2,17037
3657,20997;2,19071
3655,15881;2,21397
3653,10766;2,2363
3651,0565;2,26038
3649,00535;2,29292
3646,95419;2,32661
3644,90304;2,35185
3642,85188;2,36635
3640,80073;2,37199
3638,74957;2,3739
3636,69841;2,37659
3634,64726;2,37998
3632,5961;2,38319
3630,54495;2,38952
3628,49379;2,40507
3626,44264;2,42494
3624,39148;2,43783
3622,34033;2,44403
3620,28917;2,45029
3618,23802;2,46136
3616,18686;2,47293
3614,13571;2,48099
3612,08455;2,49194
3610,0334;2,50949
3607,98224;2,52587
3605,93108;2,53389
3603,87993;2,53975
3601,82877;2,5516
3599,77762;2,56329
3597,72646;2,5641
3595,67531;2,55862
3593,62415;2,55973
3591,573;2,5702
3589,52184;2,58562
3587,47069;2,60295
3585,41953;2,61605
3583,36838;2,61793
3581,31722;2,61078
3579,26607;2,6062
3577,21491;2,61189
3575,16375;2,62432
3573,1126;2,63585
3571,06144;2,64331
3569,01029;2,64939
3566,95913;2,66026
3564,90798;2,67797
3562,85682;2,69339
3560,80567;2,69611
3558,75451;2,68865
3556,70336;2,6814
3554,6522;2,68006
3552,60105;2,68683
3550,54989;2,69899
3548,49874;2,70927
3546,44758;2,71483
3544,39642;2,71676
3542,34527;2,71542
3540,29411;2,71252
3538,24296;2,71515
3536,1918;2,73201
3534,14065;2,7543
3532,08949;2,75856
3530,03834;2,74585
3527,98718;2,73751
3525,93603;2,74071
3523,88487;2,74509
3521,83372;2,74125
3519,78256;2,73788
3517,73141;2,74551
3515,68025;2,75682
3513,62909;2,76198
3511,57794;2,7595
3509,52678;2,75058
3507,47563;2,74155
3505,42447;2,74293
3503,37332;2,75823
3501,32216;2,77673
3499,27101;2,78355
3497,21985;2,77871
3495,1687;2,7723
3493,11754;2,77648
3491,06639;2,79345
3489,01523;2,80798
3486,96407;2,80367
3484,91292;2,78406
3482,86176;2,77123
3480,81061;2,77551
3478,75945;2,78368
3476,7083;2,78693
3474,65714;2,79017
3472,60599;2,79532
3470,55483;2,79896
3468,50368;2,8
3466,45252;2,79783
3464,40137;2,79131
3462,35021;2,78427
3460,29906;2,78206
3458,2479;2,78387
3456,19674;2,78485
3454,14559;2,78435
3452,09443;2,78671
3450,04328;2,7934
3447,99212;2,80052
3445,94097;2,80421
3443,88981;2,80777
3441,83866;2,81638
3439,7875;2,82627
3437,73635;2,83171
3435,68519;2,8312
3433,63404;2,82565
3431,58288;2,81734
3429,53173;2,80453
3427,48057;2,79284
3425,42941;2,79362
3423,37826;2,799
3421,3271;2,79619
3419,27595;2,79393
3417,22479;2,79806
3415,17364;2,80346
3413,12248;2,81021
3411,07133;2,81533
3409,02017;2,81344
3406,96902;2,80609
3404,91786;2,80516
3402,86671;2,81239
3400,81555;2,81755
3398,7644;2,81877
3396,71324;2,81687
3394,66208;2,81287
3392,61093;2,80952
3390,55977;2,80659
3388,50862;2,80291
3386,45746;2,79782
3384,40631;2,79099
3382,35515;2,78355
3380,304;2,78339
3378,25284;2,79257
3376,20169;2,79859
3374,15053;2,80012
3372,09938;2,80498
3370,04822;2,80734
3367,99707;2,80481
3365,94591;2,80609
3363,89475;2,81272
3361,8436;2,81526
3359,79244;2,80956
3357,74129;2,80415
3355,69013;2,80302
3353,63898;2,80303
3351,58782;2,80576
3349,53667;2,80912
3347,48551;2,81146
3345,43436;2,81803
3343,3832;2,82676
3341,33205;2,83194
3339,28089;2,83391
3337,22974;2,82628
3335,17858;2,81131
3333,12742;2,80834
3331,07627;2,81535
3329,02511;2,81312
3326,97396;2,80376
3324,9228;2,80867
3322,87165;2,82631
3320,82049;2,82882
3318,76934;2,81338
3316,71818;2,80708
3314,66703;2,81925
3312,61587;2,83093
3310,56472;2,82729
3308,51356;2,82068
3306,46241;2,82214
3304,41125;2,82569
3302,36009;2,8235
3300,30894;2,81412
3298,25778;2,8059
3296,20663;2,80754
3294,15547;2,81846
3292,10432;2,8273
3290,05316;2,82106
3288,00201;2,81004
3285,95085;2,80883
3283,8997;2,80886
3281,84854;2,79998
3279,79739;2,79048
3277,74623;2,79551
3275,69508;2,81201
3273,64392;2,81813
3271,59276;2,80827
3269,54161;2,7987
3267,49045;2,7962
3265,4393;2,79614
3263,38814;2,7965
3261,33699;2,79467
3259,28583;2,7938
3257,23468;2,79988
3255,18352;2,80028
3253,13237;2,7845
3251,08121;2,772
3249,03006;2,77763
3246,9789;2,79096
3244,92775;2,79716
3242,87659;2,79161
3240,82543;2,77963
3238,77428;2,77148
3236,72312;2,76993
3234,67197;2,76995
3232,62081;2,77062
3230,56966;2,77517
3228,5185;2,78147
3226,46735;2,78285
3224,41619;2,77789
3222,36504;2,7713
3220,31388;2,766
3218,26273;2,76171
3216,21157;2,75763
3214,16041;2,75373
3212,10926;2,75357
3210,0581;2,75828
3208,00695;2,7637
3205,95579;2,76528
3203,90464;2,7659
3201,85348;2,76659
3199,80233;2,7589
3197,75117;2,75048
3195,70002;2,75106
3193,64886;2,75017
3191,59771;2,74334
3189,54655;2,73852
3187,4954;2,74014
3185,44424;2,74494
3183,39308;2,74682
3181,34193;2,74522
3179,29077;2,74295
3177,23962;2,74189
3175,18846;2,7387
3173,13731;2,72886
3171,08615;2,72081
3169,035;2,72193
3166,98384;2,72455
3164,93269;2,72701
3162,88153;2,73092
3160,83038;2,72821
3158,77922;2,7218
3156,72807;2,72124
3154,67691;2,72057
3152,62575;2,71285
3150,5746;2,70617
3148,52344;2,70421
3146,47229;2,70422
3144,42113;2,71051
3142,36998;2,72006
3140,31882;2,72139
3138,26767;2,71804
3136,21651;2,72003
3134,16536;2,71881
3132,1142;2,70812
3130,06305;2,70461
3128,01189;2,7092
3125,96074;2,70294
3123,90958;2,68653
3121,85842;2,681
3119,80727;2,69393
3117,75611;2,7064
3115,70496;2,70222
3113,6538;2,68921
3111,60265;2,68235
3109,55149;2,68646
3107,50034;2,68992
3105,44918;2,68524
3103,39803;2,67884
3101,34687;2,67495
3099,29572;2,67513
3097,24456;2,67582
3095,19341;2,67348
3093,14225;2,67321
3091,09109;2,67873
3089,03994;2,6858
3086,98878;2,69067
3084,93763;2,69584
3082,88647;2,70181
3080,83532;2,70489
3078,78416;2,70527
3076,73301;2,70421
3074,68185;2,69974
3072,6307;2,6952
3070,57954;2,69547
3068,52839;2,69756
3066,47723;2,69877
3064,42608;2,69914
3062,37492;2,6956
3060,32376;2,68485
3058,27261;2,67101
3056,22145;2,66392
3054,1703;2,66735
3052,11914;2,67343
3050,06799;2,67412
3048,01683;2,67315
3045,96568;2,67374
3043,91452;2,66917
3041,86337;2,66069
3039,81221;2,65813
3037,76106;2,65821
3035,7099;2,65423
3033,65875;2,65091
3031,60759;2,65285
3029,55643;2,65659
3027,50528;2,65854
3025,45412;2,66043
3023,40297;2,66135
3021,35181;2,65604
3019,30066;2,64609
3017,2495;2,64035
3015,19835;2,63878
3013,14719;2,63554
3011,09604;2,6339
3009,04488;2,63812
3006,99373;2,64591
3004,94257;2,64899
3002,89142;2,64242
3000,84026;2,63681
2998,7891;2,64052
2996,73795;2,64945
2994,68679;2,66074
2992,63564;2,67112
2990,58448;2,67759
2988,53333;2,68475
2986,48217;2,6904
2984,43102;2,68903
2982,37986;2,69148
2980,32871;2,69892
2978,27755;2,70057
2976,2264;2,70363
2974,17524;2,71274
2972,12409;2,72135
2970,07293;2,72492
2968,02177;2,72039
2965,97062;2,71863
2963,91946;2,72694
2961,86831;2,72988
2959,81715;2,7257
2957,766;2,72141
2955,71484;2,71307
2953,66369;2,70561
2951,61253;2,70415
2949,56138;2,70418
2947,51022;2,70114
2945,45907;2,69628
2943,40791;2,69382
2941,35675;2,69542
2939,3056;2,69615
2937,25444;2,69137
2935,20329;2,68876
2933,15213;2,69316
2931,10098;2,69509
2929,04982;2,68866
2926,99867;2,68342
2924,94751;2,6846
2922,89636;2,68849
2920,8452;2,6891
2918,79405;2,68296
2916,74289;2,67891
2914,69174;2,67951
2912,64058;2,6752
2910,58942;2,66498
2908,53827;2,65677
2906,48711;2,65488
2904,43596;2,65719
2902,3848;2,65492
2900,33365;2,64428
2898,28249;2,63552
2896,23134;2,63376
2894,18018;2,6317
2892,12903;2,62999
2890,07787;2,63555
2888,02672;2,64107
2885,97556;2,64146
2883,92441;2,6433
2881,87325;2,64715
2879,82209;2,65241
2877,77094;2,66275
2875,71978;2,67403
2873,66863;2,67629
2871,61747;2,67079
2869,56632;2,66159
2867,51516;2,65124
2865,46401;2,64505
2863,41285;2,64041
2861,3617;2,6334
2859,31054;2,62692
2857,25939;2,62158
2855,20823;2,61547
2853,15708;2,60923
2851,10592;2,6032
2849,05476;2,59558
2847,00361;2,58506
2844,95245;2,57526
2842,9013;2,56833
2840,85014;2,56234
2838,79899;2,55749
2836,74783;2,55215
2834,69668;2,5462
2832,64552;2,54055
2830,59437;2,53349
2828,54321;2,52632
2826,49206;2,52002
2824,4409;2,51569
2822,38975;2,51217
2820,33859;2,50559
2818,28743;2,499
2816,23628;2,49804
2814,18512;2,49915
2812,13397;2,49589
2810,08281;2,49146
2808,03166;2,48884
2805,9805;2,4876
2803,92935;2,48755
2801,87819;2,48383
2799,82704;2,47743
2797,77588;2,47465
2795,72473;2,47358
2793,67357;2,47017
2791,62242;2,46421
2789,57126;2,45752
2787,5201;2,45228
2785,46895;2,45032
2783,41779;2,45102
2781,36664;2,45165
2779,31548;2,4534
2777,26433;2,45494
2775,21317;2,45096
2773,16202;2,44411
2771,11086;2,43973
2769,05971;2,43766
2767,00855;2,43479
2764,9574;2,43096
2762,90624;2,42756
2760,85509;2,42451
2758,80393;2,42245
2756,75277;2,41948
2754,70162;2,41549
2752,65046;2,41381
2750,59931;2,41478
2748,54815;2,41729
2746,497;2,41912
2744,44584;2,41701
2742,39469;2,41286
2740,34353;2,40949
2738,29238;2,4059
2736,24122;2,40261
2734,19007;2,3999
2732,13891;2,39581
2730,08776;2,39054
2728,0366;2,38563
2725,98544;2,3806
2723,93429;2,37432
2721,88313;2,36838
2719,83198;2,36562
2717,78082;2,36486
2715,72967;2,36371
2713,67851;2,36136
2711,62736;2,35855
2709,5762;2,35737
2707,52505;2,3559
2705,47389;2,35399
2703,42274;2,35352
2701,37158;2,35086
2699,32043;2,345
2697,26927;2,34062
2695,21811;2,33949
2693,16696;2,33888
2691,1158;2,3372
2689,06465;2,33404
2687,01349;2,33029
2684,96234;2,32941
2682,91118;2,33112
2680,86003;2,33148
2678,80887;2,32999
2676,75772;2,32952
2674,70656;2,33145
2672,65541;2,33319
2670,60425;2,33267
2668,55309;2,33179
2666,50194;2,33134
2664,45078;2,33074
2662,39963;2,33115
2660,34847;2,33251
2658,29732;2,33234
2656,24616;2,32922
2654,19501;2,32641
2652,14385;2,32713
2650,0927;2,33033
2648,04154;2,33379
2645,99039;2,33468
2643,93923;2,33385
2641,88808;2,33621
2639,83692;2,34144
2637,78576;2,34632
2635,73461;2,35106
2633,68345;2,35642
2631,6323;2,36199
2629,58114;2,36736
2627,52999;2,3731
2625,47883;2,37845
2623,42768;2,38194
2621,37652;2,3866
2619,32537;2,39362
2617,27421;2,39953
2615,22306;2,40337
2613,1719;2,40563
2611,12075;2,40967
2609,06959;2,41726
2607,01843;2,42294
2604,96728;2,42512
2602,91612;2,42725
2600,86497;2,42998
2598,81381;2,43237
2596,76266;2,43452
2594,7115;2,43631
2592,66035;2,43795
2590,60919;2,43907
2588,55804;2,43797
2586,50688;2,43661
2584,45573;2,43764
2582,40457;2,44002
2580,35342;2,44283
2578,30226;2,44459
2576,2511;2,44428
2574,19995;2,44247
2572,14879;2,44026
2570,09764;2,44146
2568,04648;2,44682
2565,99533;2,45098
2563,94417;2,45194
2561,89302;2,45157
2559,84186;2,44946
2557,79071;2,44799
2555,73955;2,45225
2553,6884;2,45838
2551,63724;2,45928
2549,58609;2,45831
2547,53493;2,46221
2545,48377;2,47082
2543,43262;2,47746
2541,38146;2,48061
2539,33031;2,48751
2537,27915;2,49827
2535,228;2,50787
2533,17684;2,51628
2531,12569;2,52515
2529,07453;2,53644
2527,02338;2,5493
2524,97222;2,55913
2522,92107;2,56539
2520,86991;2,57302
2518,81876;2,58239
2516,7676;2,58553
2514,71644;2,58174
2512,66529;2,57807
2510,61413;2,57596
2508,56298;2,57479
2506,51182;2,57392
2504,46067;2,57122
2502,40951;2,56427
2500,35836;2,55302
2498,3072;2,54001
2496,25605;2,52464
2494,20489;2,50893
2492,15374;2,49655
2490,10258;2,48493
2488,05143;2,47363
2486,00027;2,46452
2483,94911;2,45414
2481,89796;2,4421
2479,8468;2,43163
2477,79565;2,42033
2475,74449;2,40787
2473,69334;2,39757
2471,64218;2,3893
2469,59103;2,38131
2467,53987;2,37187
2465,48872;2,36352
2463,43756;2,35883
2461,38641;2,35357
2459,33525;2,34516
2457,2841;2,33612
2455,23294;2,32949
2453,18178;2,32673
2451,13063;2,32611
2449,07947;2,32437
2447,02832;2,32083
2444,97716;2,31735
2442,92601;2,31579
2440,87485;2,31757
2438,8237;2,32048
2436,77254;2,32128
2434,72139;2,32122
2432,67023;2,32309
2430,61908;2,32837
2428,56792;2,33534
2426,51677;2,34127
2424,46561;2,34683
2422,41445;2,3541
2420,3633;2,36132
2418,31214;2,3673
2416,26099;2,37479
2414,20983;2,38159
2412,15868;2,38426
2410,10752;2,38362
2408,05637;2,37934
2406,00521;2,37088
2403,95406;2,35738
2401,9029;2,3398
2399,85175;2,32462
2397,80059;2,3135
2395,74944;2,30344
2393,69828;2,29184
2391,64712;2,27944
2389,59597;2,26952
2387,54481;2,26378
2385,49366;2,26007
2383,4425;2,25634
2381,39135;2,25293
2379,34019;2,25104
2377,28904;2,25157
2375,23788;2,25459
2373,18673;2,25965
2371,13557;2,264
2369,08442;2,26346
2367,03326;2,26253
2364,9821;2,26562
2362,93095;2,26664
2360,87979;2,2644
2358,82864;2,26226
2356,77748;2,25891
2354,72633;2,25253
2352,67517;2,24977
2350,62402;2,25443
2348,57286;2,25355
2346,52171;2,24293
2344,47055;2,23702
2342,4194;2,23931
2340,36824;2,24007
2338,31709;2,23685
2336,26593;2,23189
2334,21477;2,22894
2332,16362;2,22961
2330,11246;2,23137
2328,06131;2,23193
2326,01015;2,23074
2323,959;2,22749
2321,90784;2,22372
2319,85669;2,22217
2317,80553;2,22259
2315,75438;2,2214
2313,70322;2,21791
2311,65207;2,21627
2309,60091;2,2172
2307,54976;2,21615
2305,4986;2,21183
2303,44744;2,20773
2301,39629;2,20556
2299,34513;2,20426
2297,29398;2,20338
2295,24282;2,20276
2293,19167;2,20146
2291,14051;2,19974
2289,08936;2,1988
2287,0382;2,19814
2284,98705;2,19709
2282,93589;2,19656
2280,88474;2,19709
2278,83358;2,1977
2276,78243;2,19744
2274,73127;2,19733
2272,68011;2,19905
2270,62896;2,20215
2268,5778;2,20456
2266,52665;2,20508
2264,47549;2,20457
2262,42434;2,20408
2260,37318;2,20395
2258,32203;2,20522
2256,27087;2,20798
2254,21972;2,21063
2252,16856;2,21185
2250,11741;2,21243
2248,06625;2,21486
2246,0151;2,21855
2243,96394;2,22027
2241,91278;2,22047
2239,86163;2,22149
2237,81047;2,22347
2235,75932;2,22541
2233,70816;2,22776
2231,65701;2,2296
2229,60585;2,23026
2227,5547;2,23142
2225,50354;2,23441
2223,45239;2,2397
2221,40123;2,24505
2219,35008;2,24643
2217,29892;2,24504
2215,24777;2,2453
2213,19661;2,24686
2211,14545;2,24671
2209,0943;2,2447
2207,04314;2,24389
2204,99199;2,24653
2202,94083;2,25043
2200,88968;2,25215
2198,83852;2,25213
2196,78737;2,25258
2194,73621;2,25355
2192,68506;2,25468
2190,6339;2,25637
2188,58275;2,2577
2186,53159;2,25807
2184,48044;2,25894
2182,42928;2,26132
2180,37812;2,26506
2178,32697;2,26813
2176,27581;2,26946
2174,22466;2,27092
2172,1735;2,27297
2170,12235;2,27619
2168,07119;2,28135
2166,02004;2,285
2163,96888;2,28595
2161,91773;2,28894
2159,86657;2,29525
2157,81542;2,30121
2155,76426;2,30631
2153,71311;2,31248
2151,66195;2,31876
2149,61079;2,3242
2147,55964;2,32918
2145,50848;2,33232
2143,45733;2,33341
2141,40617;2,33252
2139,35502;2,33032
2137,30386;2,32891
2135,25271;2,32612
2133,20155;2,32176
2131,1504;2,31949
2129,09924;2,31886
2127,04809;2,31748
2124,99693;2,31502
2122,94578;2,31248
2120,89462;2,30928
2118,84346;2,3029
2116,79231;2,29439
2114,74115;2,28968
2112,69;2,28965
2110,63884;2,28832
2108,58769;2,28504
2106,53653;2,28378
2104,48538;2,28443
2102,43422;2,28524
2100,38307;2,2852
2098,33191;2,28363
2096,28076;2,2828
2094,2296;2,28333
2092,17844;2,28325
2090,12729;2,28231
2088,07613;2,28147
2086,02498;2,28176
2083,97382;2,28292
2081,92267;2,28417
2079,87151;2,28579
2077,82036;2,28698
2075,7692;2,28743
2073,71805;2,28879
2071,66689;2,29105
2069,61574;2,29167
2067,56458;2,29028
2065,51343;2,29036
2063,46227;2,2937
2061,41111;2,29672
2059,35996;2,29782
2057,3088;2,29985
2055,25765;2,30264
2053,20649;2,30315
2051,15534;2,30081
2049,10418;2,29854
2047,05303;2,29939
2045,00187;2,30282
2042,95072;2,30585
2040,89956;2,30668
2038,84841;2,30627
2036,79725;2,30675
2034,7461;2,30757
2032,69494;2,30688
2030,64378;2,30496
2028,59263;2,30393
2026,54147;2,30464
2024,49032;2,30593
2022,43916;2,30793
2020,38801;2,30981
2018,33685;2,31025
2016,2857;2,31079
2014,23454;2,31157
2012,18339;2,3111
2010,13223;2,3108
2008,08108;2,31278
2006,02992;2,31601
2003,97877;2,3174
2001,92761;2,31558
1999,87645;2,31416
1997,8253;2,31684
1995,77414;2,3207
1993,72299;2,32106
1991,67183;2,31911
1989,62068;2,31845
1987,56952;2,31869
1985,51837;2,31944
1983,46721;2,32139
1981,41606;2,32371
1979,3649;2,32544
1977,31375;2,32756
1975,26259;2,3306
1973,21144;2,33315
1971,16028;2,33446
1969,10912;2,33585
1967,05797;2,3402
1965,00681;2,34799
1962,95566;2,35571
1960,9045;2,35893
1958,85335;2,35636
1956,80219;2,35135
1954,75104;2,34728
1952,69988;2,34549
1950,64873;2,345
1948,59757;2,34447
1946,54642;2,34397
1944,49526;2,3436
1942,44411;2,34465
1940,39295;2,34809
1938,34179;2,35096
1936,29064;2,35233
1934,23948;2,35435
1932,18833;2,35734
1930,13717;2,35975
1928,08602;2,36102
1926,03486;2,36231
1923,98371;2,36372
1921,93255;2,36518
1919,8814;2,36644
1917,83024;2,36714
1915,77909;2,36786
1913,72793;2,36906
1911,67678;2,37199
1909,62562;2,37607
1907,57446;2,37854
1905,52331;2,37888
1903,47215;2,38094
1901,421;2,38593
1899,36984;2,39051
1897,31869;2,39312
1895,26753;2,39523
1893,21638;2,39875
1891,16522;2,40181
1889,11407;2,40246
1887,06291;2,40275
1885,01176;2,40385
1882,9606;2,4066
1880,90945;2,41127
1878,85829;2,41558
1876,80713;2,41761
1874,75598;2,41951
1872,70482;2,42396
1870,65367;2,42802
1868,60251;2,42949
1866,55136;2,43269
1864,5002;2,4398
1862,44905;2,44713
1860,39789;2,45125
1858,34674;2,45372
1856,29558;2,4571
1854,24443;2,46128
1852,19327;2,46603
1850,14212;2,47098
1848,09096;2,4742
1846,0398;2,47523
1843,98865;2,47863
1841,93749;2,48771
1839,88634;2,49738
1837,83518;2,50361
1835,78403;2,5063
1833,73287;2,5081
1831,68172;2,51329
1829,63056;2,52377
1827,57941;2,53704
1825,52825;2,54751
1823,4771;2,55141
1821,42594;2,5516
1819,37478;2,55611
1817,32363;2,56694
1815,27247;2,58083
1813,22132;2,59591
1811,17016;2,61049
1809,11901;2,6256
1807,06785;2,64468
1805,0167;2,66763
1802,96554;2,69042
1800,91439;2,71022
1798,86323;2,72607
1796,81208;2,73534
1794,76092;2,73744
1792,70977;2,73529
1790,65861;2,73192
1788,60745;2,72679
1786,5563;2,71757
1784,50514;2,70586
1782,45399;2,69345
1780,40283;2,67984
1778,35168;2,66912
1776,30052;2,66457
1774,24937;2,66429
1772,19821;2,6665
1770,14706;2,66809
1768,0959;2,66659
1766,04475;2,6673
1763,99359;2,67143
1761,94244;2,67514
1759,89128;2,67953
1757,84012;2,68717
1755,78897;2,69667
1753,73781;2,70349
1751,68666;2,71132
1749,6355;2,72908
1747,58435;2,75245
1745,53319;2,77339
1743,48204;2,79163
1741,43088;2,80434
1739,37973;2,80803
1737,32857;2,80894
1735,27742;2,81301
1733,22626;2,82051
1731,17511;2,82609
1729,12395;2,82716
1727,07279;2,82102
1725,02164;2,80363
1722,97048;2,78305
1720,91933;2,76973
1718,86817;2,7645
1716,81702;2,77094
1714,76586;2,7907
1712,71471;2,81302
1710,66355;2,82975
1708,6124;2,84225
1706,56124;2,85592
1704,51009;2,8743
1702,45893;2,89547
1700,40778;2,91766
1698,35662;2,93731
1696,30546;2,9529
1694,25431;2,97069
1692,20315;2,98676
1690,152;2,99802
1688,10084;3,00384
1686,04969;3,00163
1683,99853;2,99429
1681,94738;2,98781
1679,89622;2,98664
1677,84507;2,98506
1675,79391;2,97111
1673,74276;2,95022
1671,6916;2,93497
1669,64045;2,92796
1667,58929;2,92529
1665,53813;2,91852
1663,48698;2,90309
1661,43582;2,88396
1659,38467;2,8683
1657,33351;2,85675
1655,28236;2,84097
1653,2312;2,81343
1651,18005;2,7918
1649,12889;2,78419
1647,07774;2,78376
1645,02658;2,78647
1642,97543;2,78484
1640,92427;2,77953
1638,87312;2,77397
1636,82196;2,7663
1634,7708;2,75677
1632,71965;2,7491
1630,66849;2,74566
1628,61734;2,7488
1626,56618;2,75283
1624,51503;2,74837
1622,46387;2,74333
1620,41272;2,74856
1618,36156;2,757
1616,31041;2,76098
1614,25925;2,76138
1612,2081;2,76203
1610,15694;2,7647
1608,10579;2,76829
1606,05463;2,77369
1604,00347;2,78146
1601,95232;2,78813
1599,90116;2,79204
1597,85001;2,79312
1595,79885;2,7916
1593,7477;2,79177
1591,69654;2,79757
1589,64539;2,80864
1587,59423;2,81973
1585,54308;2,82416
1583,49192;2,8249
1581,44077;2,82965
1579,38961;2,83615
1577,33846;2,84063
1575,2873;2,84929
1573,23614;2,85891
1571,18499;2,85789
1569,13383;2,85255
1567,08268;2,8546
1565,03152;2,86105
1562,98037;2,86561
1560,92921;2,85727
1558,87806;2,83571
1556,8269;2,82443
1554,77575;2,82117
1552,72459;2,81819
1550,67344;2,81317
1548,62228;2,80408
1546,57113;2,7933
1544,51997;2,78596
1542,46881;2,78677
1540,41766;2,78853
1538,3665;2,78022
1536,31535;2,76655
1534,26419;2,75685
1532,21304;2,75783
1530,16188;2,76232
1528,11073;2,76377
1526,05957;2,7666
1524,00842;2,76899
1521,95726;2,76882
1519,90611;2,77301
1517,85495;2,77583
1515,80379;2,77326
1513,75264;2,77311
1511,70148;2,77946
1509,65033;2,78963
1507,59917;2,79794
1505,54802;2,79924
1503,49686;2,79336
1501,44571;2,78698
1499,39455;2,78746
1497,3434;2,79419
1495,29224;2,80116
1493,24109;2,80994
1491,18993;2,82524
1489,13878;2,84542
1487,08762;2,85997
1485,03646;2,86164
1482,98531;2,85228
1480,93415;2,84006
1478,883;2,83147
1476,83184;2,82726
1474,78069;2,82511
1472,72953;2,81579
1470,67838;2,79688
1468,62722;2,77715
1466,57607;2,75675
1464,52491;2,73423
1462,47376;2,71429
1460,4226;2,69434
1458,37145;2,66681
1456,32029;2,6409
1454,26913;2,62906
1452,21798;2,61881
1450,16682;2,60143
1448,11567;2,58172
1446,06451;2,56572
1444,01336;2,55361
1441,9622;2,5452
1439,91105;2,53885
1437,85989;2,52963
1435,80874;2,52149
1433,75758;2,52092
1431,70643;2,52366
1429,65527;2,52531
1427,60412;2,52426
1425,55296;2,52127
1423,5018;2,51922
1421,45065;2,51777
1419,39949;2,51552
1417,34834;2,5129
1415,29718;2,50679
1413,24603;2,49652
1411,19487;2,48416
1409,14372;2,47172
1407,09256;2,46035
1405,04141;2,44779
1402,99025;2,43301
1400,9391;2,41787
1398,88794;2,40419
1396,83679;2,39309
1394,78563;2,38399
1392,73447;2,37694
1390,68332;2,37048
1388,63216;2,36311
1386,58101;2,3572
1384,52985;2,35647
1382,4787;2,36005
1380,42754;2,36456
1378,37639;2,36989
1376,32523;2,37771
1374,27408;2,38736
1372,22292;2,39731
1370,17177;2,40593
1368,12061;2,41277
1366,06946;2,4181
1364,0183;2,42146
1361,96714;2,42416
1359,91599;2,42919
1357,86483;2,43608
1355,81368;2,44097
1353,76252;2,44228
1351,71137;2,44377
1349,66021;2,4487
1347,60906;2,45527
1345,5579;2,46056
1343,50675;2,46391
1341,45559;2,46652
1339,40444;2,47016
1337,35328;2,47357
1335,30213;2,4736
1333,25097;2,47236
1331,19981;2,47387
1329,14866;2,47744
1327,0975;2,48016
1325,04635;2,48115
1322,99519;2,48186
1320,94404;2,48449
1318,89288;2,48952
1316,84173;2,49373
1314,79057;2,49456
1312,73942;2,49383
1310,68826;2,49318
1308,63711;2,49247
1306,58595;2,4922
1304,5348;2,49135
1302,48364;2,49
1300,43248;2,48982
1298,38133;2,48935
1296,33017;2,48699
1294,27902;2,48283
1292,22786;2,47924
1290,17671;2,48008
1288,12555;2,48335
1286,0744;2,4845
1284,02324;2,48607
1281,97209;2,49016
1279,92093;2,49294
1277,86978;2,49281
1275,81862;2,49006
1273,76747;2,4862
1271,71631;2,48431
1269,66515;2,48426
1267,614;2,48502
1265,56284;2,48627
1263,51169;2,48879
1261,46053;2,49351
1259,40938;2,49663
1257,35822;2,49542
1255,30707;2,49422
1253,25591;2,49565
1251,20476;2,49837
1249,1536;2,50182
1247,10245;2,5034
1245,05129;2,50179
1243,00013;2,50079
1240,94898;2,50177
1238,89782;2,50259
1236,84667;2,50157
1234,79551;2,49947
1232,74436;2,4992
1230,6932;2,49864
1228,64205;2,49596
1226,59089;2,49596
1224,53974;2,49645
1222,48858;2,49216
1220,43743;2,48807
1218,38627;2,48824
1216,33512;2,4892
1214,28396;2,48866
1212,2328;2,48788
1210,18165;2,48817
1208,13049;2,48885
1206,07934;2,48999
1204,02818;2,49203
1201,97703;2,49394
1199,92587;2,49508
1197,87472;2,49585
1195,82356;2,4966
1193,77241;2,49513
1191,72125;2,49108
1189,6701;2,48941
1187,61894;2,49403
1185,56779;2,50214
1183,51663;2,5056
1181,46547;2,50488
1179,41432;2,50627
1177,36316;2,50819
1175,31201;2,50913
1173,26085;2,51182
1171,2097;2,51508
1169,15854;2,51649
1167,10739;2,51826
1165,05623;2,52305
1163,00508;2,52754
1160,95392;2,52779
1158,90277;2,52459
1156,85161;2,52008
1154,80046;2,51881
1152,7493;2,52283
1150,69814;2,52536
1148,64699;2,52069
1146,59583;2,51226
1144,54468;2,50804
1142,49352;2,51171
1140,44237;2,51698
1138,39121;2,51719
1136,34006;2,51767
1134,2889;2,52151
1132,23775;2,52218
1130,18659;2,52043
1128,13544;2,52219
1126,08428;2,52555
1124,03313;2,52754
1121,98197;2,52848
1119,93081;2,52864
1117,87966;2,53193
1115,8285;2,53603
1113,77735;2,5331
1111,72619;2,52948
1109,67504;2,53276
1107,62388;2,53503
1105,57273;2,53158
1103,52157;2,52804
1101,47042;2,52679
1099,41926;2,52537
1097,36811;2,52324
1095,31695;2,5223
1093,2658;2,51923
1091,21464;2,51466
1089,16348;2,51689
1087,11233;2,52137
1085,06117;2,52042
1083,01002;2,52029
1080,95886;2,52314
1078,90771;2,52291
1076,85655;2,51886
1074,8054;2,51562
1072,75424;2,51542
1070,70309;2,51385
1068,65193;2,50806
1066,60078;2,5043
1064,54962;2,50545
1062,49847;2,50891
1060,44731;2,51596
1058,39615;2,52666
1056,345;2,53948
1054,29384;2,5446
1052,24269;2,52373
1050,19153;2,49254
1048,14038;2,47892
1046,08922;2,47705
1044,03807;2,47594
1041,98691;2,47759
1039,93576;2,48049
1037,8846;2,48201
1035,83345;2,48212
1033,78229;2,48173
1031,73114;2,48345
1029,67998;2,48658
1027,62882;2,48705
1025,57767;2,48562
1023,52651;2,48703
1021,47536;2,48952
1019,4242;2,48799
1017,37305;2,48702
1015,32189;2,48896
1013,27074;2,48836
1011,21958;2,48906
1009,16843;2,4946
1007,11727;2,49805
1005,06612;2,49847
1003,01496;2,50052
1000,96381;2,50043
998,91265;2,49634
996,86149;2,49589
994,81034;2,49818
992,75918;2,49586
990,70803;2,48995
988,65687;2,48506
986,60572;2,48562
984,55456;2,48982
982,50341;2,48907
980,45225;2,48364
978,4011;2,48264
976,34994;2,48638
974,29879;2,48732
972,24763;2,48503
970,19647;2,48016
968,14532;2,47227
966,09416;2,46677
964,04301;2,46645
961,99185;2,46704
959,9407;2,46437
957,88954;2,46119
955,83839;2,46098
953,78723;2,46137
951,73608;2,46246
949,68492;2,4646
947,63377;2,46313
945,58261;2,45832
943,53146;2,45596
941,4803;2,45897
939,42914;2,46401
937,37799;2,46499
935,32683;2,4635
933,27568;2,46294
931,22452;2,46059
929,17337;2,45928
927,12221;2,46083
925,07106;2,45911
923,0199;2,45681
920,96875;2,4586
918,91759;2,45769
916,86644;2,45066
914,81528;2,44619
912,76413;2,44824
910,71297;2,44891
908,66181;2,44583
906,61066;2,44574
904,5595;2,44922
902,50835;2,45133
900,45719;2,45183
898,40604;2,45245
896,35488;2,45018
894,30373;2,44353
892,25257;2,43155
890,20142;2,41099
888,15026;2,39646
886,09911;2,40264
884,04795;2,41309
881,9968;2,40988
879,94564;2,39845
877,89448;2,38854
875,84333;2,38216
873,79217;2,37999
871,74102;2,39556
869,68986;2,44205
867,63871;2,50083
865,58755;2,53533
863,5364;2,53985
861,48524;2,53478
859,43409;2,5345
857,38293;2,54121
855,33178;2,55257
853,28062;2,56523
851,22947;2,57697
849,17831;2,59034
847,12715;2,60516
845,076;2,61994
843,02484;2,61666
840,97369;2,55691
838,92253;2,46342
836,87138;2,40422
834,82022;2,39832
832,76907;2,42037
830,71791;2,4419
828,66676;2,45614
826,6156;2,46611
824,56445;2,46953
822,51329;2,47117
820,46214;2,47537
818,41098;2,48007
816,35982;2,48494
814,30867;2,48912
812,25751;2,49047
810,20636;2,48799
808,1552;2,4849
806,10405;2,48946
804,05289;2,4957
802,00174;2,49382
799,95058;2,49269
797,89943;2,49525
795,84827;2,49625
793,79712;2,50212
791,74596;2,51299
789,69481;2,51782
787,64365;2,5163
785,59249;2,51647
783,54134;2,51786
781,49018;2,51833
779,43903;2,52245
777,38787;2,52782
775,33672;2,52358
773,28556;2,5123
771,23441;2,50629
769,18325;2,50235
767,1321;2,49738
765,08094;2,50271
763,02979;2,51527
760,97863;2,51831
758,92748;2,51315
756,87632;2,50978
754,82516;2,50593
752,77401;2,50482
750,72285;2,5104
748,6717;2,51437
746,62054;2,51529
744,56939;2,52237
742,51823;2,53535
740,46708;2,53952
738,41592;2,53001
736,36477;2,51579
734,31361;2,50985
732,26246;2,51527
730,2113;2,51916
728,16015;2,51748
726,10899;2,5164
724,05783;2,51704
722,00668;2,51816
719,95552;2,52315
717,90437;2,52954
715,85321;2,53549
713,80206;2,54933
711,7509;2,56965
709,69975;2,58101
707,64859;2,57399
705,59744;2,55267
703,54628;2,5321
701,49513;2,52668
699,44397;2,53753
697,39281;2,55688
695,34166;2,57383
693,2905;2,57893
691,23935;2,57695
689,18819;2,58801
687,13704;2,61942
685,08588;2,64413
683,03473;2,60956
680,98357;2,49895
678,93242;2,37815
676,88126;2,31588
674,83011;2,32267
672,77895;2,36762
670,7278;2,40327
668,67664;2,41288
666,62548;2,42802
664,57433;2,44573
662,52317;2,44785
660,47202;2,45009
658,42086;2,46092
656,36971;2,46355
654,31855;2,45064
652,2674;2,43904
650,21624;2,43789
648,16509;2,43969
646,11393;2,43767
644,06278;2,43587
642,01162;2,44339
639,96047;2,45648
637,90931;2,46295
635,85815;2,4618
633,807;2,45474
631,75584;2,44237
629,70469;2,43686
627,65353;2,44517
625,60238;2,45531
623,55122;2,45906
621,50007;2,45405
619,44891;2,44637
617,39776;2,44374
615,3466;2,44978
613,29545;2,45674
611,24429;2,45477
609,19314;2,44711
607,14198;2,44421
605,09082;2,45272
603,03967;2,46221
600,98851;2,45409
598,93736;2,43174
596,8862;2,42217
594,83505;2,42768
592,78389;2,42667
590,73274;2,42155
588,68158;2,42559
586,63043;2,43642
584,57927;2,44153
582,52812;2,44255
580,47696;2,44897
578,42581;2,45198
576,37465;2,44746
574,32349;2,44308
572,27234;2,44057
570,22118;2,43848
568,17003;2,43332
566,11887;2,42551
564,06772;2,41714
562,01656;2,40402
559,96541;2,39911
557,91425;2,41774
555,8631;2,44078
553,81194;2,44628
551,76079;2,44188
549,70963;2,43208
547,65848;2,41905
545,60732;2,41895
543,55616;2,43239
541,50501;2,44972
539,45385;2,45751
537,4027;2,44064
535,35154;2,41301
533,30039;2,39801
531,24923;2,39965
529,19808;2,40448
527,14692;2,40732
525,09577;2,41389
523,04461;2,42031
520,99346;2,42291
518,9423;2,41139
516,89115;2,3836
514,83999;2,37271
512,78883;2,38728
510,73768;2,39077
508,68652;2,37142
506,63537;2,36018
504,58421;2,36908
502,53306;2,38213
500,4819;2,39044
498,43075;2,39479
496,37959;2,39801
494,32844;2,39834
492,27728;2,38792
490,22613;2,36803
488,17497;2,35485
486,12382;2,36557
484,07266;2,38595
482,0215;2,38619
479,97035;2,37736
477,91919;2,37291
475,86804;2,35926
473,81688;2,34241
471,76573;2,35216
469,71457;2,3849
467,66342;2,40063
465,61226;2,39404
463,56111;2,38727
461,50995;2,37596
459,4588;2,34725
457,40764;2,31925
455,35649;2,32402
453,30533;2,35194
451,25417;2,37031
449,20302;2,36571
447,15186;2,35233
445,10071;2,34066
443,04955;2,33225
440,9984;2,32593
438,94724;2,32543
436,89609;2,33328
434,84493;2,33221
432,79378;2,30448
430,74262;2,27526
428,69147;2,27299
426,64031;2,28212
424,58916;2,29064
422,538;2,31316
420,48684;2,3357
418,43569;2,33722
416,38453;2,33594
414,33338;2,334
412,28222;2,31401
410,23107;2,2669
408,17991;2,22998
406,12876;2,23259
404,0776;2,24238
402,02645;2,23208
399,97529;2,21726
