3997,70175;1,80424
3995,6506;1,80592
3993,59944;1,80784
3991,54829;1,80861
3989,49713;1,80817
3987,44598;1,8077
3985,39482;1,80745
3983,34367;1,80749
3981,29251;1,80848
3979,24136;1,80998
3977,1902;1,81037
3975,13905;1,81001
3973,08789;1,8112
3971,03673;1,81383
3968,98558;1,81549
3966,93442;1,81564
3964,88327;1,81604
3962,83211;1,81792
3960,78096;1,82075
3958,7298;1,82272
3956,67865;1,82295
3954,62749;1,82291
3952,57634;1,82403
3950,52518;1,82542
3948,47403;1,82554
3946,42287;1,82494
3944,37172;1,82521
3942,32056;1,8265
3940,2694;1,82715
3938,21825;1,82577
3936,16709;1,82312
3934,11594;1,82001
3932,06478;1,81656
3930,01363;1,8139
3927,96247;1,8119
3925,91132;1,80877
3923,86016;1,80446
3921,80901;1,79995
3919,75785;1,79562
3917,7067;1,79174
3915,65554;1,78827
3913,60439;1,78552
3911,55323;1,78391
3909,50207;1,78326
3907,45092;1,78258
3905,39976;1,78054
3903,34861;1,77712
3901,29745;1,77353
3899,2463;1,77115
3897,19514;1,77078
3895,14399;1,77104
3893,09283;1,77
3891,04168;1,76791
3888,99052;1,76715
3886,93937;1,76743
3884,88821;1,76772
3882,83706;1,76793
3880,7859;1,76681
3878,73474;1,76518
3876,68359;1,76425
3874,63243;1,76379
3872,58128;1,76455
3870,53012;1,76521
3868,47897;1,76463
3866,42781;1,76358
3864,37666;1,76216
3862,3255;1,761
3860,27435;1,76071
3858,22319;1,76048
3856,17204;1,75883
3854,12088;1,75552
3852,06973;1,75345
3850,01857;1,75385
3847,96741;1,75525
3845,91626;1,75704
3843,8651;1,75882
3841,81395;1,75971
3839,76279;1,75863
3837,71164;1,75658
3835,66048;1,75658
3833,60933;1,758
3831,55817;1,75871
3829,50702;1,75903
3827,45586;1,75935
3825,40471;1,76032
3823,35355;1,76164
3821,3024;1,76219
3819,25124;1,76298
3817,20008;1,76295
3815,14893;1,76169
3813,09777;1,76132
3811,04662;1,76237
3808,99546;1,76388
3806,94431;1,76493
3804,89315;1,76599
3802,842;1,76605
3800,79084;1,76567
3798,73969;1,76665
3796,68853;1,76735
3794,63738;1,76767
3792,58622;1,76873
3790,53506;1,7704
3788,48391;1,77199
3786,43275;1,77308
3784,3816;1,77434
3782,33044;1,77619
3780,27929;1,7775
3778,22813;1,77807
3776,17698;1,77872
3774,12582;1,78001
3772,07467;1,78192
3770,02351;1,78379
3767,97236;1,78554
3765,9212;1,78681
3763,87005;1,78805
3761,81889;1,78966
3759,76773;1,79068
3757,71658;1,79076
3755,66542;1,79109
3753,61427;1,79233
3751,56311;1,79346
3749,51196;1,79479
3747,4608;1,7981
3745,40965;1,80252
3743,35849;1,80721
3741,30734;1,81139
3739,25618;1,81449
3737,20503;1,81762
3735,15387;1,82076
3733,10272;1,82232
3731,05156;1,82381
3729,0004;1,82713
3726,94925;1,83187
3724,89809;1,83752
3722,84694;1,84236
3720,79578;1,84564
3718,74463;1,84808
3716,69347;1,85043
3714,64232;1,85338
3712,59116;1,85748
3710,54001;1,86386
3708,48885;1,87261
3706,4377;1,8823
3704,38654;1,89281
3702,33539;1,90641
3700,28423;1,92448
3698,23307;1,94316
3696,18192;1,95795
3694,13076;1,96747
3692,07961;1,97184
3690,02845;1,97216
3687,9773;1,97196
3685,92614;1,97481
3683,87499;1,98018
3681,82383;1,98637
3679,77268;1,99411
3677,72152;2,00617
3675,67037;2,02053
3673,61921;2,03198
3671,56806;2,04204
3669,5169;2,05516
3667,46574;2,06956
3665,41459;2,08236
3663,36343;2,09439
3661,31228;2,10642
3659,26112;2,11837
3657,20997;2,12991
3655,15881;2,14234
3653,10766;2,15659
3651,0565;2,17276
3649,00535;2,1909
3646,95419;2,20934
3644,90304;2,22639
3642,85188;2,23997
3640,80073;2,25017
3638,74957;2,25867
3636,69841;2,26599
3634,64726;2,27114
3632,5961;2,27548
3630,54495;2,283
3628,49379;2,29478
3626,44264;2,3067
3624,39148;2,31632
3622,34033;2,32448
3620,28917;2,33224
3618,23802;2,34086
3616,18686;2,35111
3614,13571;2,36352
3612,08455;2,37497
3610,0334;2,38154
3607,98224;2,38669
3605,93108;2,39573
3603,87993;2,40727
3601,82877;2,41889
3599,77762;2,43064
3597,72646;2,44133
3595,67531;2,44996
3593,62415;2,45762
3591,573;2,46536
3589,52184;2,47199
3587,47069;2,47568
3585,41953;2,47809
3583,36838;2,48406
3581,31722;2,49535
3579,26607;2,50481
3577,21491;2,50574
3575,16375;2,50401
3573,1126;2,5085
3571,06144;2,51913
3569,01029;2,52876
3566,95913;2,536
3564,90798;2,54637
3562,85682;2,55796
3560,80567;2,56622
3558,75451;2,56938
3556,70336;2,56874
3554,6522;2,57144
3552,60105;2,58014
3550,54989;2,58667
3548,49874;2,58952
3546,44758;2,59403
3544,39642;2,5975
3542,34527;2,59955
3540,29411;2,60498
3538,24296;2,61315
3536,1918;2,62073
3534,14065;2,62523
3532,08949;2,62658
3530,03834;2,62944
3527,98718;2,63712
3525,93603;2,64288
3523,88487;2,63892
3521,83372;2,63202
3519,78256;2,63191
3517,73141;2,63696
3515,68025;2,64319
3513,62909;2,65208
3511,57794;2,6646
3509,52678;2,67474
3507,47563;2,67525
3505,42447;2,67052
3503,37332;2,67336
3501,32216;2,68328
3499,27101;2,68787
3497,21985;2,68733
3495,1687;2,68782
3493,11754;2,69262
3491,06639;2,69816
3489,01523;2,69883
3486,96407;2,69926
3484,91292;2,70166
3482,86176;2,69936
3480,81061;2,69365
3478,75945;2,69157
3476,7083;2,69639
3474,65714;2,70866
3472,60599;2,7204
3470,55483;2,72192
3468,50368;2,71503
3466,45252;2,70885
3464,40137;2,70871
3462,35021;2,71369
3460,29906;2,72341
3458,2479;2,7281
3456,19674;2,72173
3454,14559;2,72267
3452,09443;2,73426
3450,04328;2,73282
3447,99212;2,71603
3445,94097;2,70278
3443,88981;2,70088
3441,83866;2,71002
3439,7875;2,72463
3437,73635;2,73508
3435,68519;2,73639
3433,63404;2,73582
3431,58288;2,73991
3429,53173;2,73926
3427,48057;2,73537
3425,42941;2,73871
3423,37826;2,74073
3421,3271;2,73885
3419,27595;2,74132
3417,22479;2,74214
3415,17364;2,74077
3413,12248;2,73976
3411,07133;2,73216
3409,02017;2,72151
3406,96902;2,71821
3404,91786;2,72196
3402,86671;2,72805
3400,81555;2,7329
3398,7644;2,73306
3396,71324;2,73099
3394,66208;2,73343
3392,61093;2,73972
3390,55977;2,74205
3388,50862;2,74004
3386,45746;2,73847
3384,40631;2,73737
3382,35515;2,73954
3380,304;2,7468
3378,25284;2,75309
3376,20169;2,75515
3374,15053;2,75445
3372,09938;2,74836
3370,04822;2,74148
3367,99707;2,74543
3365,94591;2,75469
3363,89475;2,75242
3361,8436;2,73939
3359,79244;2,73334
3357,74129;2,73887
3355,69013;2,74417
3353,63898;2,74402
3351,58782;2,74077
3349,53667;2,73329
3347,48551;2,72591
3345,43436;2,72629
3343,3832;2,7289
3341,33205;2,7273
3339,28089;2,72669
3337,22974;2,7305
3335,17858;2,73362
3333,12742;2,73241
3331,07627;2,72758
3329,02511;2,71988
3326,97396;2,71299
3324,9228;2,71124
3322,87165;2,7158
3320,82049;2,72406
3318,76934;2,73225
3316,71818;2,73927
3314,66703;2,73805
3312,61587;2,7267
3310,56472;2,71796
3308,51356;2,71706
3306,46241;2,717
3304,41125;2,71267
3302,36009;2,71082
3300,30894;2,71826
3298,25778;2,72735
3296,20663;2,73168
3294,15547;2,73501
3292,10432;2,73597
3290,05316;2,731
3288,00201;2,72615
3285,95085;2,72715
3283,8997;2,73159
3281,84854;2,73136
3279,79739;2,72311
3277,74623;2,71755
3275,69508;2,71712
3273,64392;2,70856
3271,59276;2,69442
3269,54161;2,6908
3267,49045;2,69764
3265,4393;2,70386
3263,38814;2,7076
3261,33699;2,71303
3259,28583;2,719
3257,23468;2,71567
3255,18352;2,70593
3253,13237;2,70362
3251,08121;2,70402
3249,03006;2,70103
3246,9789;2,69857
3244,92775;2,69198
3242,87659;2,68258
3240,82543;2,68417
3238,77428;2,69169
3236,72312;2,68887
3234,67197;2,68123
3232,62081;2,68077
3230,56966;2,68665
3228,5185;2,69196
3226,46735;2,69188
3224,41619;2,6872
3222,36504;2,68167
3220,31388;2,67726
3218,26273;2,67299
3216,21157;2,66912
3214,16041;2,66818
3212,10926;2,67036
3210,0581;2,67163
3208,00695;2,66913
3205,95579;2,66758
3203,90464;2,66815
3201,85348;2,6648
3199,80233;2,65979
3197,75117;2,657
3195,70002;2,6568
3193,64886;2,65839
3191,59771;2,65327
3189,54655;2,64069
3187,4954;2,63285
3185,44424;2,63404
3183,39308;2,64048
3181,34193;2,6476
3179,29077;2,64735
3177,23962;2,63861
3175,18846;2,63111
3173,13731;2,62969
3171,08615;2,63137
3169,035;2,63044
3166,98384;2,6238
3164,93269;2,61495
3162,88153;2,60877
3160,83038;2,60625
3158,77922;2,60539
3156,72807;2,60662
3154,67691;2,61259
3152,62575;2,61965
3150,5746;2,62128
3148,52344;2,61841
3146,47229;2,61283
3144,42113;2,60728
3142,36998;2,60453
3140,31882;2,59965
3138,26767;2,59465
3136,21651;2,59338
3134,16536;2,5862
3132,1142;2,57397
3130,06305;2,56869
3128,01189;2,56972
3125,96074;2,57234
3123,90958;2,57438
3121,85842;2,5709
3119,80727;2,56295
3117,75611;2,55676
3115,70496;2,55434
3113,6538;2,5513
3111,60265;2,54468
3109,55149;2,54139
3107,50034;2,54497
3105,44918;2,54986
3103,39803;2,55053
3101,34687;2,54543
3099,29572;2,53988
3097,24456;2,5377
3095,19341;2,53495
3093,14225;2,53058
3091,09109;2,52666
3089,03994;2,52261
3086,98878;2,51842
3084,93763;2,51477
3082,88647;2,51242
3080,83532;2,51005
3078,78416;2,50674
3076,73301;2,50779
3074,68185;2,51403
3072,6307;2,51714
3070,57954;2,51414
3068,52839;2,50946
3066,47723;2,50292
3064,42608;2,49332
3062,37492;2,48545
3060,32376;2,48299
3058,27261;2,48436
3056,22145;2,48546
3054,1703;2,4832
3052,11914;2,47979
3050,06799;2,47816
3048,01683;2,47588
3045,96568;2,47027
3043,91452;2,46395
3041,86337;2,45947
3039,81221;2,45655
3037,76106;2,45716
3035,7099;2,46071
3033,65875;2,45983
3031,60759;2,45247
3029,55643;2,44733
3027,50528;2,44868
3025,45412;2,45033
3023,40297;2,44853
3021,35181;2,44648
3019,30066;2,44466
3017,2495;2,44163
3015,19835;2,4393
3013,14719;2,43919
3011,09604;2,44039
3009,04488;2,44061
3006,99373;2,44054
3004,94257;2,4412
3002,89142;2,43957
3000,84026;2,43926
2998,7891;2,44515
2996,73795;2,45113
2994,68679;2,45196
2992,63564;2,45329
2990,58448;2,45907
2988,53333;2,46592
2986,48217;2,47054
2984,43102;2,47245
2982,37986;2,47321
2980,32871;2,47515
2978,27755;2,47754
2976,2264;2,47887
2974,17524;2,48013
2972,12409;2,48248
2970,07293;2,4863
2968,02177;2,49055
2965,97062;2,49208
2963,91946;2,49138
2961,86831;2,49375
2959,81715;2,49972
2957,766;2,50651
2955,71484;2,51299
2953,66369;2,51593
2951,61253;2,5161
2949,56138;2,51756
2947,51022;2,52305
2945,45907;2,53291
2943,40791;2,54058
2941,35675;2,54245
2939,3056;2,54166
2937,25444;2,54274
2935,20329;2,5465
2933,15213;2,5465
2931,10098;2,54075
2929,04982;2,53402
2926,99867;2,53234
2924,94751;2,53903
2922,89636;2,54679
2920,8452;2,54687
2918,79405;2,54307
2916,74289;2,54103
2914,69174;2,53899
2912,64058;2,53428
2910,58942;2,52725
2908,53827;2,52077
2906,48711;2,51794
2904,43596;2,51917
2902,3848;2,52228
2900,33365;2,52472
2898,28249;2,5231
2896,23134;2,51903
2894,18018;2,51812
2892,12903;2,51831
2890,07787;2,51595
2888,02672;2,5131
2885,97556;2,51344
2883,92441;2,51763
2881,87325;2,52078
2879,82209;2,52096
2877,77094;2,51918
2875,71978;2,51544
2873,66863;2,5138
2871,61747;2,51476
2869,56632;2,51236
2867,51516;2,50682
2865,46401;2,50171
2863,41285;2,49538
2861,3617;2,4879
2859,31054;2,48327
2857,25939;2,48295
2855,20823;2,48374
2853,15708;2,48316
2851,10592;2,48173
2849,05476;2,4771
2847,00361;2,47054
2844,95245;2,46811
2842,9013;2,46815
2840,85014;2,46654
2838,79899;2,46198
2836,74783;2,4542
2834,69668;2,44852
2832,64552;2,44849
2830,59437;2,44985
2828,54321;2,44658
2826,49206;2,43879
2824,4409;2,43068
2822,38975;2,42458
2820,33859;2,42335
2818,28743;2,42329
2816,23628;2,41995
2814,18512;2,41713
2812,13397;2,41495
2810,08281;2,41272
2808,03166;2,41057
2805,9805;2,40921
2803,92935;2,41169
2801,87819;2,41243
2799,82704;2,40609
2797,77588;2,39786
2795,72473;2,39378
2793,67357;2,39548
2791,62242;2,39861
2789,57126;2,39911
2787,5201;2,39682
2785,46895;2,39181
2783,41779;2,387
2781,36664;2,38483
2779,31548;2,38325
2777,26433;2,38013
2775,21317;2,37755
2773,16202;2,37584
2771,11086;2,37347
2769,05971;2,37185
2767,00855;2,36975
2764,9574;2,36602
2762,90624;2,36415
2760,85509;2,36496
2758,80393;2,36489
2756,75277;2,36348
2754,70162;2,3637
2752,65046;2,36531
2750,59931;2,36511
2748,54815;2,36307
2746,497;2,3641
2744,44584;2,36862
2742,39469;2,36966
2740,34353;2,36544
2738,29238;2,3608
2736,24122;2,35745
2734,19007;2,35461
2732,13891;2,35236
2730,08776;2,35117
2728,0366;2,34891
2725,98544;2,34319
2723,93429;2,33572
2721,88313;2,32884
2719,83198;2,32447
2717,78082;2,32144
2715,72967;2,31804
2713,67851;2,31598
2711,62736;2,31424
2709,5762;2,31234
2707,52505;2,31122
2705,47389;2,30853
2703,42274;2,3039
2701,37158;2,30005
2699,32043;2,29885
2697,26927;2,29903
2695,21811;2,29774
2693,16696;2,29449
2691,1158;2,29087
2689,06465;2,28951
2687,01349;2,28961
2684,96234;2,28658
2682,91118;2,28198
2680,86003;2,28137
2678,80887;2,28391
2676,75772;2,28461
2674,70656;2,28243
2672,65541;2,28013
2670,60425;2,27915
2668,55309;2,27712
2666,50194;2,27234
2664,45078;2,26791
2662,39963;2,26716
2660,34847;2,2686
2658,29732;2,26895
2656,24616;2,26755
2654,19501;2,26505
2652,14385;2,26251
2650,0927;2,26178
2648,04154;2,26266
2645,99039;2,26293
2643,93923;2,26208
2641,88808;2,26173
2639,83692;2,26225
2637,78576;2,26298
2635,73461;2,26463
2633,68345;2,26717
2631,6323;2,27017
2629,58114;2,27382
2627,52999;2,27781
2625,47883;2,28168
2623,42768;2,28505
2621,37652;2,28821
2619,32537;2,29026
2617,27421;2,29008
2615,22306;2,29007
2613,1719;2,29233
2611,12075;2,29577
2609,06959;2,29945
2607,01843;2,30198
2604,96728;2,3028
2602,91612;2,3033
2600,86497;2,30439
2598,81381;2,30657
2596,76266;2,30759
2594,7115;2,30651
2592,66035;2,30568
2590,60919;2,30547
2588,55804;2,30494
2586,50688;2,30435
2584,45573;2,30513
2582,40457;2,30752
2580,35342;2,31033
2578,30226;2,31078
2576,2511;2,30799
2574,19995;2,30597
2572,14879;2,30657
2570,09764;2,30823
2568,04648;2,30986
2565,99533;2,31113
2563,94417;2,3127
2561,89302;2,31467
2559,84186;2,31653
2557,79071;2,31917
2555,73955;2,32119
2553,6884;2,3203
2551,63724;2,32035
2549,58609;2,32363
2547,53493;2,32791
2545,48377;2,33221
2543,43262;2,33366
2541,38146;2,33359
2539,33031;2,33824
2537,27915;2,34605
2535,228;2,35195
2533,17684;2,35735
2531,12569;2,36525
2529,07453;2,37292
2527,02338;2,37738
2524,97222;2,38087
2522,92107;2,38451
2520,86991;2,38864
2518,81876;2,39471
2516,7676;2,40064
2514,71644;2,40163
2512,66529;2,39722
2510,61413;2,39408
2508,56298;2,39645
2506,51182;2,39822
2504,46067;2,39559
2502,40951;2,39155
2500,35836;2,38581
2498,3072;2,37985
2496,25605;2,37532
2494,20489;2,37157
2492,15374;2,3688
2490,10258;2,36406
2488,05143;2,3581
2486,00027;2,35445
2483,94911;2,35106
2481,89796;2,34638
2479,8468;2,34217
2477,79565;2,3374
2475,74449;2,33072
2473,69334;2,3235
2471,64218;2,3183
2469,59103;2,31536
2467,53987;2,31024
2465,48872;2,30291
2463,43756;2,29655
2461,38641;2,29206
2459,33525;2,29064
2457,2841;2,29028
2455,23294;2,28804
2453,18178;2,28551
2451,13063;2,28366
2449,07947;2,28015
2447,02832;2,2767
2444,97716;2,27748
2442,92601;2,28151
2440,87485;2,28646
2438,8237;2,29192
2436,77254;2,29582
2434,72139;2,29828
2432,67023;2,30337
2430,61908;2,3113
2428,56792;2,31995
2426,51677;2,32921
2424,46561;2,33931
2422,41445;2,35154
2420,3633;2,36526
2418,31214;2,37702
2416,26099;2,38416
2414,20983;2,38654
2412,15868;2,38806
2410,10752;2,38857
2408,05637;2,38199
2406,00521;2,36926
2403,95406;2,35583
2401,9029;2,3414
2399,85175;2,32524
2397,80059;2,3085
2395,74944;2,2914
2393,69828;2,27476
2391,64712;2,25967
2389,59597;2,24686
2387,54481;2,23788
2385,49366;2,23272
2383,4425;2,22914
2381,39135;2,22662
2379,34019;2,22609
2377,28904;2,22645
2375,23788;2,2267
2373,18673;2,22815
2371,13557;2,22999
2369,08442;2,23065
2367,03326;2,23311
2364,9821;2,23773
2362,93095;2,23912
2360,87979;2,23607
2358,82864;2,23035
2356,77748;2,22282
2354,72633;2,2157
2352,67517;2,21518
2350,62402;2,22196
2348,57286;2,22278
2346,52171;2,21333
2344,47055;2,2075
2342,4194;2,21045
2340,36824;2,21345
2338,31709;2,2111
2336,26593;2,20332
2334,21477;2,19614
2332,16362;2,19288
2330,11246;2,19034
2328,06131;2,18875
2326,01015;2,18978
2323,959;2,18877
2321,90784;2,18298
2319,85669;2,17794
2317,80553;2,17664
2315,75438;2,17511
2313,70322;2,17181
2311,65207;2,16876
2309,60091;2,16636
2307,54976;2,16452
2305,4986;2,16296
2303,44744;2,16074
2301,39629;2,15807
2299,34513;2,15562
2297,29398;2,15345
2295,24282;2,15175
2293,19167;2,1509
2291,14051;2,1508
2289,08936;2,15097
2287,0382;2,15068
2284,98705;2,14958
2282,93589;2,14819
2280,88474;2,14734
2278,83358;2,14818
2276,78243;2,15027
2274,73127;2,15167
2272,68011;2,15234
2270,62896;2,15312
2268,5778;2,15393
2266,52665;2,15473
2264,47549;2,15642
2262,42434;2,1594
2260,37318;2,16194
2258,32203;2,16274
2256,27087;2,16309
2254,21972;2,16459
2252,16856;2,16755
2250,11741;2,17028
2248,06625;2,17079
2246,0151;2,17031
2243,96394;2,17111
2241,91278;2,17365
2239,86163;2,17672
2237,81047;2,17896
2235,75932;2,18075
2233,70816;2,18279
2231,65701;2,18523
2229,60585;2,18823
2227,5547;2,19089
2225,50354;2,19184
2223,45239;2,19214
2221,40123;2,19491
2219,35008;2,19949
2217,29892;2,20162
2215,24777;2,20109
2213,19661;2,20026
2211,14545;2,19977
2209,0943;2,20064
2207,04314;2,20282
2204,99199;2,20451
2202,94083;2,20578
2200,88968;2,20741
2198,83852;2,20913
2196,78737;2,2105
2194,73621;2,21177
2192,68506;2,21347
2190,6339;2,21509
2188,58275;2,2167
2186,53159;2,21815
2184,48044;2,21943
2182,42928;2,22191
2180,37812;2,22523
2178,32697;2,22766
2176,27581;2,22826
2174,22466;2,22778
2172,1735;2,22816
2170,12235;2,2312
2168,07119;2,23595
2166,02004;2,23896
2163,96888;2,24147
2161,91773;2,24713
2159,86657;2,25403
2157,81542;2,25864
2155,76426;2,26189
2153,71311;2,26699
2151,66195;2,27375
2149,61079;2,27953
2147,55964;2,28257
2145,50848;2,28277
2143,45733;2,28191
2141,40617;2,2804
2139,35502;2,27926
2137,30386;2,28097
2135,25271;2,28252
2133,20155;2,28033
2131,1504;2,27646
2129,09924;2,2734
2127,04809;2,27159
2124,99693;2,26903
2122,94578;2,2635
2120,89462;2,25723
2118,84346;2,25328
2116,79231;2,25085
2114,74115;2,24847
2112,69;2,24631
2110,63884;2,24377
2108,58769;2,24052
2106,53653;2,2389
2104,48538;2,23937
2102,43422;2,24002
2100,38307;2,24053
2098,33191;2,24011
2096,28076;2,23922
2094,2296;2,23946
2092,17844;2,23935
2090,12729;2,23777
2088,07613;2,23671
2086,02498;2,23704
2083,97382;2,23855
2081,92267;2,23994
2079,87151;2,24033
2077,82036;2,24157
2075,7692;2,24427
2073,71805;2,24627
2071,66689;2,24651
2069,61574;2,24617
2067,56458;2,2461
2065,51343;2,24665
2063,46227;2,24835
2061,41111;2,2501
2059,35996;2,2514
2057,3088;2,25264
2055,25765;2,25281
2053,20649;2,25302
2051,15534;2,2556
2049,10418;2,25832
2047,05303;2,25847
2045,00187;2,25804
2042,95072;2,25862
2040,89956;2,25821
2038,84841;2,25599
2036,79725;2,25437
2034,7461;2,25363
2032,69494;2,25215
2030,64378;2,25026
2028,59263;2,24896
2026,54147;2,24882
2024,49032;2,24914
2022,43916;2,2488
2020,38801;2,24819
2018,33685;2,24866
2016,2857;2,24978
2014,23454;2,24875
2012,18339;2,24568
2010,13223;2,244
2008,08108;2,24565
2006,02992;2,24964
2003,97877;2,25378
2001,92761;2,25542
1999,87645;2,25378
1997,8253;2,25265
1995,77414;2,25384
1993,72299;2,25337
1991,67183;2,25177
1989,62068;2,25325
1987,56952;2,25496
1985,51837;2,25389
1983,46721;2,25332
1981,41606;2,25529
1979,3649;2,25727
1977,31375;2,2581
1975,26259;2,25874
1973,21144;2,26022
1971,16028;2,2625
1969,10912;2,26352
1967,05797;2,26479
1965,00681;2,27101
1962,95566;2,27985
1960,9045;2,28411
1958,85335;2,28153
1956,80219;2,27521
1954,75104;2,26877
1952,69988;2,26538
1950,64873;2,26631
1948,59757;2,26873
1946,54642;2,26958
1944,49526;2,27
1942,44411;2,27112
1940,39295;2,27159
1938,34179;2,27127
1936,29064;2,2719
1934,23948;2,27286
1932,18833;2,27339
1930,13717;2,2754
1928,08602;2,27819
1926,03486;2,27955
1923,98371;2,28021
1921,93255;2,28211
1919,8814;2,28456
1917,83024;2,28527
1915,77909;2,28546
1913,72793;2,28717
1911,67678;2,28951
1909,62562;2,2906
1907,57446;2,29071
1905,52331;2,29164
1903,47215;2,29345
1901,421;2,29505
1899,36984;2,29677
1897,31869;2,29882
1895,26753;2,30131
1893,21638;2,30473
1891,16522;2,30772
1889,11407;2,30943
1887,06291;2,31053
1885,01176;2,31148
1882,9606;2,31279
1880,90945;2,31433
1878,85829;2,31655
1876,80713;2,32011
1874,75598;2,32384
1872,70482;2,32728
1870,65367;2,33091
1868,60251;2,33342
1866,55136;2,33526
1864,5002;2,33923
1862,44905;2,34508
1860,39789;2,34974
1858,34674;2,35147
1856,29558;2,35227
1854,24443;2,35428
1852,19327;2,35694
1850,14212;2,36008
1848,09096;2,36484
1846,0398;2,36966
1843,98865;2,37315
1841,93749;2,37741
1839,88634;2,38207
1837,83518;2,38668
1835,78403;2,39186
1833,73287;2,39656
1831,68172;2,40045
1829,63056;2,40511
1827,57941;2,41019
1825,52825;2,41307
1823,4771;2,41558
1821,42594;2,42125
1819,37478;2,43029
1817,32363;2,44016
1815,27247;2,44751
1813,22132;2,45167
1811,17016;2,45621
1809,11901;2,46577
1807,06785;2,48076
1805,0167;2,49727
1802,96554;2,51293
1800,91439;2,52835
1798,86323;2,54239
1796,81208;2,55203
1794,76092;2,55454
1792,70977;2,55023
1790,65861;2,54516
1788,60745;2,54171
1786,5563;2,53662
1784,50514;2,52985
1782,45399;2,52392
1780,40283;2,51945
1778,35168;2,51628
1776,30052;2,51443
1774,24937;2,51174
1772,19821;2,50711
1770,14706;2,50549
1768,0959;2,50785
1766,04475;2,51057
1763,99359;2,5138
1761,94244;2,51894
1759,89128;2,52471
1757,84012;2,5316
1755,78897;2,54243
1753,73781;2,55523
1751,68666;2,57013
1749,6355;2,59307
1747,58435;2,62466
1745,53319;2,66049
1743,48204;2,69487
1741,43088;2,71713
1739,37973;2,72219
1737,32857;2,72053
1735,27742;2,72314
1733,22626;2,73354
1731,17511;2,7435
1729,12395;2,74134
1727,07279;2,72313
1725,02164;2,68866
1722,97048;2,64526
1720,91933;2,6074
1718,86817;2,58451
1716,81702;2,57971
1714,76586;2,58519
1712,71471;2,59246
1710,66355;2,60157
1708,6124;2,61008
1706,56124;2,6122
1704,51009;2,60758
1702,45893;2,60417
1700,40778;2,6121
1698,35662;2,63045
1696,30546;2,64391
1694,25431;2,65219
1692,20315;2,66177
1690,152;2,67136
1688,10084;2,68204
1686,04969;2,69835
1683,99853;2,71668
1681,94738;2,72532
1679,89622;2,72476
1677,84507;2,72236
1675,79391;2,72012
1673,74276;2,71918
1671,6916;2,72194
1669,64045;2,72833
1667,58929;2,73452
1665,53813;2,73896
1663,48698;2,74608
1661,43582;2,75701
1659,38467;2,76438
1657,33351;2,76345
1655,28236;2,75888
1653,2312;2,76236
1651,18005;2,77659
1649,12889;2,7855
1647,07774;2,78554
1645,02658;2,78575
1642,97543;2,78872
1640,92427;2,7903
1638,87312;2,79147
1636,82196;2,79681
1634,7708;2,806
1632,71965;2,81533
1630,66849;2,82351
1628,61734;2,82494
1626,56618;2,81538
1624,51503;2,80371
1622,46387;2,80272
1620,41272;2,81243
1618,36156;2,82489
1616,31041;2,83567
1614,25925;2,83966
1612,2081;2,83456
1610,15694;2,82533
1608,10579;2,81964
1606,05463;2,82033
1604,00347;2,8247
1601,95232;2,82716
1599,90116;2,82177
1597,85001;2,80928
1595,79885;2,79587
1593,7477;2,78707
1591,69654;2,78429
1589,64539;2,78299
1587,59423;2,77827
1585,54308;2,7708
1583,49192;2,76208
1581,44077;2,75128
1579,38961;2,73904
1577,33846;2,72361
1575,2873;2,70532
1573,23614;2,69205
1571,18499;2,68284
1569,13383;2,67259
1567,08268;2,66106
1565,03152;2,64732
1562,98037;2,63039
1560,92921;2,6067
1558,87806;2,57668
1556,8269;2,55674
1554,77575;2,54259
1552,72459;2,52482
1550,67344;2,50919
1548,62228;2,50221
1546,57113;2,50008
1544,51997;2,49764
1542,46881;2,50031
1540,41766;2,51094
1538,3665;2,52087
1536,31535;2,52843
1534,26419;2,54008
1532,21304;2,55616
1530,16188;2,56894
1528,11073;2,57826
1526,05957;2,59029
1524,00842;2,60578
1521,95726;2,62125
1519,90611;2,63625
1517,85495;2,65093
1515,80379;2,66536
1513,75264;2,68112
1511,70148;2,70055
1509,65033;2,72091
1507,59917;2,73855
1505,54802;2,75796
1503,49686;2,7762
1501,44571;2,79323
1499,39455;2,81428
1497,3434;2,83515
1495,29224;2,84688
1493,24109;2,85115
1491,18993;2,85167
1489,13878;2,84361
1487,08762;2,82539
1485,03646;2,80414
1482,98531;2,78004
1480,93415;2,75197
1478,883;2,7254
1476,83184;2,70257
1474,78069;2,67856
1472,72953;2,64967
1470,67838;2,62382
1468,62722;2,60726
1466,57607;2,5933
1464,52491;2,5772
1462,47376;2,5638
1460,4226;2,55483
1458,37145;2,54162
1456,32029;2,52029
1454,26913;2,50166
1452,21798;2,48711
1450,16682;2,47223
1448,11567;2,45799
1446,06451;2,44772
1444,01336;2,44108
1441,9622;2,43586
1439,91105;2,43168
1437,85989;2,42829
1435,80874;2,42577
1433,75758;2,42405
1431,70643;2,42295
1429,65527;2,42422
1427,60412;2,42695
1425,55296;2,42839
1423,5018;2,42956
1421,45065;2,42971
1419,39949;2,42466
1417,34834;2,41628
1415,29718;2,40743
1413,24603;2,39625
1411,19487;2,38346
1409,14372;2,37132
1407,09256;2,35786
1405,04141;2,34121
1402,99025;2,32532
1400,9391;2,3133
1398,88794;2,30377
1396,83679;2,29409
1394,78563;2,28441
1392,73447;2,2785
1390,68332;2,27591
1388,63216;2,27339
1386,58101;2,27103
1384,52985;2,27055
1382,4787;2,27213
1380,42754;2,27661
1378,37639;2,2847
1376,32523;2,29451
1374,27408;2,30383
1372,22292;2,31216
1370,17177;2,31937
1368,12061;2,32742
1366,06946;2,33749
1364,0183;2,34684
1361,96714;2,35424
1359,91599;2,36038
1357,86483;2,36534
1355,81368;2,37024
1353,76252;2,37539
1351,71137;2,37903
1349,66021;2,38111
1347,60906;2,38454
1345,5579;2,39091
1343,50675;2,39923
1341,45559;2,4064
1339,40444;2,40893
1337,35328;2,40904
1335,30213;2,41195
1333,25097;2,41628
1331,19981;2,41814
1329,14866;2,41844
1327,0975;2,41959
1325,04635;2,42211
1322,99519;2,42588
1320,94404;2,42936
1318,89288;2,4311
1316,84173;2,43231
1314,79057;2,43395
1312,73942;2,43657
1310,68826;2,4398
1308,63711;2,44092
1306,58595;2,43943
1304,5348;2,43756
1302,48364;2,43677
1300,43248;2,43665
1298,38133;2,43642
1296,33017;2,4359
1294,27902;2,43471
1292,22786;2,43234
1290,17671;2,42882
1288,12555;2,42595
1286,0744;2,42585
1284,02324;2,42783
1281,97209;2,42881
1279,92093;2,42741
1277,86978;2,42759
1275,81862;2,43171
1273,76747;2,43491
1271,71631;2,43315
1269,66515;2,42877
1267,614;2,42655
1265,56284;2,42767
1263,51169;2,42902
1261,46053;2,42862
1259,40938;2,42857
1257,35822;2,43097
1255,30707;2,43378
1253,25591;2,434
1251,20476;2,43271
1249,1536;2,43189
1247,10245;2,43158
1245,05129;2,43228
1243,00013;2,43423
1240,94898;2,43701
1238,89782;2,43958
1236,84667;2,44182
1234,79551;2,44491
1232,74436;2,44939
1230,6932;2,45389
1228,64205;2,4554
1226,59089;2,45374
1224,53974;2,45232
1222,48858;2,45227
1220,43743;2,45106
1218,38627;2,44858
1216,33512;2,4475
1214,28396;2,4497
1212,2328;2,45206
1210,18165;2,4515
1208,13049;2,45364
1206,07934;2,45747
1204,02818;2,45455
1201,97703;2,44884
1199,92587;2,44947
1197,87472;2,45596
1195,82356;2,46187
1193,77241;2,46454
1191,72125;2,46595
1189,6701;2,46701
1187,61894;2,46961
1185,56779;2,47825
1183,51663;2,49135
1181,46547;2,50096
1179,41432;2,50217
1177,36316;2,5028
1175,31201;2,51016
1173,26085;2,51884
1171,2097;2,525
1169,15854;2,5278
1167,10739;2,52828
1165,05623;2,53197
1163,00508;2,54
1160,95392;2,54848
1158,90277;2,55509
1156,85161;2,56048
1154,80046;2,56488
1152,7493;2,5667
1150,69814;2,56684
1148,64699;2,56637
1146,59583;2,56706
1144,54468;2,57089
1142,49352;2,57633
1140,44237;2,58133
1138,39121;2,58152
1136,34006;2,57535
1134,2889;2,57005
1132,23775;2,57347
1130,18659;2,58389
1128,13544;2,58908
1126,08428;2,58486
1124,03313;2,57979
1121,98197;2,58139
1119,93081;2,58943
1117,87966;2,5973
1115,8285;2,60533
1113,77735;2,6132
1111,72619;2,61393
1109,67504;2,61131
1107,62388;2,61018
1105,57273;2,60955
1103,52157;2,61108
1101,47042;2,61593
1099,41926;2,61823
1097,36811;2,61456
1095,31695;2,6142
1093,2658;2,61857
1091,21464;2,6204
1089,16348;2,61945
1087,11233;2,61806
1085,06117;2,61935
1083,01002;2,62173
1080,95886;2,61866
1078,90771;2,61384
1076,85655;2,6132
1074,8054;2,6111
1072,75424;2,60302
1070,70309;2,59375
1068,65193;2,58932
1066,60078;2,58723
1064,54962;2,5821
1062,49847;2,57785
1060,44731;2,58106
1058,39615;2,59328
1056,345;2,60347
1054,29384;2,58263
1052,24269;2,53202
1050,19153;2,50236
1048,14038;2,50959
1046,08922;2,52647
1044,03807;2,53841
1041,98691;2,54566
1039,93576;2,54757
1037,8846;2,5445
1035,83345;2,53846
1033,78229;2,53124
1031,73114;2,5263
1029,67998;2,52372
1027,62882;2,51734
1025,57767;2,51155
1023,52651;2,5138
1021,47536;2,51681
1019,4242;2,51325
1017,37305;2,51004
1015,32189;2,50984
1013,27074;2,50549
1011,21958;2,50022
1009,16843;2,50013
1007,11727;2,49883
1005,06612;2,49144
1003,01496;2,48704
1000,96381;2,49166
998,91265;2,49698
996,86149;2,49464
994,81034;2,49002
992,75918;2,49308
990,70803;2,49994
988,65687;2,49977
986,60572;2,49419
984,55456;2,49272
982,50341;2,49858
980,45225;2,50394
978,4011;2,50094
976,34994;2,49339
974,29879;2,48894
972,24763;2,48784
970,19647;2,48395
968,14532;2,47725
966,09416;2,4742
964,04301;2,47492
961,99185;2,47502
959,9407;2,47028
957,88954;2,46261
955,83839;2,46021
953,78723;2,46185
951,73608;2,46085
949,68492;2,45728
947,63377;2,45607
945,58261;2,45653
943,53146;2,45278
941,4803;2,4479
939,42914;2,44543
937,37799;2,44478
935,32683;2,44676
933,27568;2,44931
931,22452;2,44906
929,17337;2,44618
927,12221;2,44645
925,07106;2,44754
923,0199;2,44642
920,96875;2,45042
918,91759;2,45472
916,86644;2,45404
914,81528;2,45364
912,76413;2,4554
910,71297;2,46053
908,66181;2,46385
906,61066;2,4607
904,5595;2,4588
902,50835;2,46079
900,45719;2,45955
898,40604;2,4537
896,35488;2,44672
894,30373;2,43924
892,25257;2,42687
890,20142;2,40285
888,15026;2,37489
886,09911;2,36169
884,04795;2,37007
881,9968;2,38768
879,94564;2,40052
877,89448;2,40918
875,84333;2,41678
873,79217;2,42441
871,74102;2,43996
869,68986;2,46899
867,63871;2,50236
865,58755;2,52539
863,5364;2,53374
861,48524;2,53335
859,43409;2,5355
857,38293;2,54804
855,33178;2,56723
853,28062;2,58321
851,22947;2,59794
849,17831;2,61917
847,12715;2,64061
845,076;2,64385
843,02484;2,59577
840,97369;2,49024
838,92253;2,38666
836,87138;2,33637
834,82022;2,34056
832,76907;2,36923
830,71791;2,39709
828,66676;2,4211
826,6156;2,44626
824,56445;2,46464
822,51329;2,46755
820,46214;2,46634
818,41098;2,46693
816,35982;2,46566
814,30867;2,46842
812,25751;2,47656
810,20636;2,48402
808,1552;2,49266
806,10405;2,50202
804,05289;2,50496
802,00174;2,50223
799,95058;2,49752
797,89943;2,49555
795,84827;2,50196
793,79712;2,51413
791,74596;2,51928
789,69481;2,51274
787,64365;2,50668
785,59249;2,50783
783,54134;2,51327
781,49018;2,51904
779,43903;2,52241
777,38787;2,52544
775,33672;2,53304
773,28556;2,54265
771,23441;2,54091
769,18325;2,52997
767,1321;2,52774
765,08094;2,53506
763,02979;2,54183
760,97863;2,54779
758,92748;2,55341
756,87632;2,55449
754,82516;2,54949
752,77401;2,54557
750,72285;2,54969
748,6717;2,55303
746,62054;2,54259
744,56939;2,53151
742,51823;2,54065
740,46708;2,55941
738,41592;2,56744
736,36477;2,55993
734,31361;2,54804
732,26246;2,54499
730,2113;2,54957
728,16015;2,55573
726,10899;2,5595
724,05783;2,56395
722,00668;2,57304
719,95552;2,58504
717,90437;2,592
715,85321;2,58596
713,80206;2,57904
711,7509;2,58826
709,69975;2,60492
707,64859;2,61233
705,59744;2,6068
703,54628;2,59713
701,49513;2,59788
699,44397;2,61024
697,39281;2,624
695,34166;2,63645
693,2905;2,65228
691,23935;2,66938
689,18819;2,68908
687,13704;2,72462
685,08588;2,74993
683,03473;2,6776
680,98357;2,49794
678,93242;2,33371
676,88126;2,26395
674,83011;2,28018
672,77895;2,33842
670,7278;2,38558
668,67664;2,40796
666,62548;2,44038
664,57433;2,46632
662,52317;2,46459
660,47202;2,4633
658,42086;2,47496
656,36971;2,48252
654,31855;2,48086
652,2674;2,47883
650,21624;2,48108
648,16509;2,48668
646,11393;2,49291
644,06278;2,50173
642,01162;2,51363
639,96047;2,52158
637,90931;2,521
635,85815;2,50647
633,807;2,48184
631,75584;2,46942
629,70469;2,47981
627,65353;2,49876
625,60238;2,50215
623,55122;2,48716
621,50007;2,48267
619,44891;2,49827
617,39776;2,51251
615,3466;2,51361
613,29545;2,50643
611,24429;2,50553
609,19314;2,51357
607,14198;2,51109
605,09082;2,49948
603,03967;2,50399
600,98851;2,52285
598,93736;2,53306
596,8862;2,52915
594,83505;2,52448
592,78389;2,5312
590,73274;2,53685
588,68158;2,52657
586,63043;2,51565
584,57927;2,5119
582,52812;2,50908
580,47696;2,5111
578,42581;2,51416
576,37465;2,50919
574,32349;2,50232
572,27234;2,50719
570,22118;2,51939
568,17003;2,52545
566,11887;2,53012
564,06772;2,53701
562,01656;2,53828
559,96541;2,53016
557,91425;2,51211
555,8631;2,50162
553,81194;2,51955
551,76079;2,54383
549,70963;2,54309
547,65848;2,53002
545,60732;2,52482
543,55616;2,52674
541,50501;2,52458
539,45385;2,52027
537,4027;2,51767
535,35154;2,51466
533,30039;2,51485
531,24923;2,51941
529,19808;2,52199
527,14692;2,51051
525,09577;2,49185
523,04461;2,48909
520,99346;2,50685
518,9423;2,53274
516,89115;2,54072
514,83999;2,52422
512,78883;2,51079
510,73768;2,51904
508,68652;2,53173
506,63537;2,52477
504,58421;2,50936
502,53306;2,51052
500,4819;2,53466
498,43075;2,56391
496,37959;2,57351
494,32844;2,55763
492,27728;2,53261
490,22613;2,51579
488,17497;2,51793
486,12382;2,53316
484,07266;2,54567
482,0215;2,54941
479,97035;2,5516
477,91919;2,55365
475,86804;2,55277
473,81688;2,54934
471,76573;2,54086
469,71457;2,52842
467,66342;2,52132
465,61226;2,51954
463,56111;2,5186
461,50995;2,52807
459,4588;2,54824
457,40764;2,55609
455,35649;2,52459
453,30533;2,46183
451,25417;2,43349
449,20302;2,47071
447,15186;2,51084
445,10071;2,49361
443,04955;2,46465
440,9984;2,46597
438,94724;2,4767
436,89609;2,49177
434,84493;2,50493
432,79378;2,49975
430,74262;2,49076
428,69147;2,49981
426,64031;2,53581
424,58916;2,57876
422,538;2,56646
420,48684;2,4731
418,43569;2,3955
416,38453;2,40152
414,33338;2,44175
412,28222;2,47057
410,23107;2,47908
408,17991;2,48015
406,12876;2,4775
404,0776;2,45432
402,02645;2,42921
399,97529;2,43903
