3997,70175;1,63348
3995,6506;1,63362
3993,59944;1,63327
3991,54829;1,6332
3989,49713;1,63325
3987,44598;1,63329
3985,39482;1,63401
3983,34367;1,63504
3981,29251;1,63566
3979,24136;1,63594
3977,1902;1,63625
3975,13905;1,63654
3973,08789;1,63718
3971,03673;1,6387
3968,98558;1,64029
3966,93442;1,64159
3964,88327;1,64369
3962,83211;1,64638
3960,78096;1,64748
3958,7298;1,64663
3956,67865;1,64603
3954,62749;1,64659
3952,57634;1,64709
3950,52518;1,64703
3948,47403;1,64719
3946,42287;1,64831
3944,37172;1,65045
3942,32056;1,65137
3940,2694;1,64996
3938,21825;1,64805
3936,16709;1,64693
3934,11594;1,6468
3932,06478;1,6466
3930,01363;1,64567
3927,96247;1,64464
3925,91132;1,6427
3923,86016;1,63937
3921,80901;1,63683
3919,75785;1,63528
3917,7067;1,63308
3915,65554;1,6309
3913,60439;1,63014
3911,55323;1,63023
3909,50207;1,62974
3907,45092;1,62876
3905,39976;1,62768
3903,34861;1,62648
3901,29745;1,62597
3899,2463;1,62564
3897,19514;1,62457
3895,14399;1,62468
3893,09283;1,6259
3891,04168;1,62477
3888,99052;1,6225
3886,93937;1,62264
3884,88821;1,62282
3882,83706;1,62321
3880,7859;1,62467
3878,73474;1,62432
3876,68359;1,62413
3874,63243;1,62451
3872,58128;1,62369
3870,53012;1,62249
3868,47897;1,6209
3866,42781;1,62108
3864,37666;1,62205
3862,3255;1,6211
3860,27435;1,61967
3858,22319;1,61891
3856,17204;1,61954
3854,12088;1,61949
3852,06973;1,61635
3850,01857;1,61551
3847,96741;1,61801
3845,91626;1,6196
3843,8651;1,61893
3841,81395;1,6184
3839,76279;1,61949
3837,71164;1,6193
3835,66048;1,61768
3833,60933;1,61743
3831,55817;1,61803
3829,50702;1,61879
3827,45586;1,61958
3825,40471;1,61945
3823,35355;1,62018
3821,3024;1,62104
3819,25124;1,62046
3817,20008;1,62163
3815,14893;1,62184
3813,09777;1,6209
3811,04662;1,62238
3808,99546;1,62468
3806,94431;1,62445
3804,89315;1,62344
3802,842;1,6253
3800,79084;1,62601
3798,73969;1,62553
3796,68853;1,62661
3794,63738;1,62702
3792,58622;1,62756
3790,53506;1,62884
3788,48391;1,62979
3786,43275;1,63034
3784,3816;1,63052
3782,33044;1,63137
3780,27929;1,63294
3778,22813;1,63308
3776,17698;1,63253
3774,12582;1,63292
3772,07467;1,63389
3770,02351;1,63411
3767,97236;1,63396
3765,9212;1,63511
3763,87005;1,63634
3761,81889;1,63747
3759,76773;1,63773
3757,71658;1,63598
3755,66542;1,6353
3753,61427;1,6377
3751,56311;1,63923
3749,51196;1,63693
3747,4608;1,63758
3745,40965;1,6435
3743,35849;1,64594
3741,30734;1,64517
3739,25618;1,64692
3737,20503;1,64952
3735,15387;1,65067
3733,10272;1,65156
3731,05156;1,65365
3729,0004;1,65719
3726,94925;1,66103
3724,89809;1,66271
3722,84694;1,66295
3720,79578;1,66347
3718,74463;1,66462
3716,69347;1,66648
3714,64232;1,66942
3712,59116;1,67275
3710,54001;1,67444
3708,48885;1,67582
3706,4377;1,68003
3704,38654;1,68791
3702,33539;1,69795
3700,28423;1,70746
3698,23307;1,71571
3696,18192;1,72273
3694,13076;1,72746
3692,07961;1,7295
3690,02845;1,72927
3687,9773;1,7281
3685,92614;1,7287
3683,87499;1,73192
3681,82383;1,73548
3679,77268;1,73871
3677,72152;1,74452
3675,67037;1,75223
3673,61921;1,75851
3671,56806;1,7673
3669,5169;1,77736
3667,46574;1,78453
3665,41459;1,79113
3663,36343;1,798
3661,31228;1,80487
3659,26112;1,81266
3657,20997;1,82088
3655,15881;1,82718
3653,10766;1,83352
3651,0565;1,84351
3649,00535;1,85531
3646,95419;1,86627
3644,90304;1,87649
3642,85188;1,88554
3640,80073;1,89224
3638,74957;1,89703
3636,69841;1,90157
3634,64726;1,90687
3632,5961;1,91345
3630,54495;1,92185
3628,49379;1,92935
3626,44264;1,93504
3624,39148;1,94282
3622,34033;1,95202
3620,28917;1,96014
3618,23802;1,9656
3616,18686;1,96967
3614,13571;1,9749
3612,08455;1,98038
3610,0334;1,98574
3607,98224;1,99217
3605,93108;1,99957
3603,87993;2,00698
3601,82877;2,01279
3599,77762;2,01704
3597,72646;2,02197
3595,67531;2,02751
3593,62415;2,03152
3591,573;2,03563
3589,52184;2,04282
3587,47069;2,05052
3585,41953;2,0558
3583,36838;2,06113
3581,31722;2,06756
3579,26607;2,07437
3577,21491;2,08086
3575,16375;2,08644
3573,1126;2,09064
3571,06144;2,09348
3569,01029;2,09764
3566,95913;2,1048
3564,90798;2,11164
3562,85682;2,11616
3560,80567;2,11926
3558,75451;2,12269
3556,70336;2,12797
3554,6522;2,13417
3552,60105;2,13908
3550,54989;2,14317
3548,49874;2,14929
3546,44758;2,15636
3544,39642;2,16088
3542,34527;2,16313
3540,29411;2,16599
3538,24296;2,17061
3536,1918;2,1757
3534,14065;2,18061
3532,08949;2,18534
3530,03834;2,18811
3527,98718;2,18772
3525,93603;2,18771
3523,88487;2,19128
3521,83372;2,19585
3519,78256;2,1991
3517,73141;2,20202
3515,68025;2,20418
3513,62909;2,20527
3511,57794;2,20748
3509,52678;2,21157
3507,47563;2,21616
3505,42447;2,22026
3503,37332;2,22286
3501,32216;2,22444
3499,27101;2,22529
3497,21985;2,22508
3495,1687;2,22629
3493,11754;2,22975
3491,06639;2,23345
3489,01523;2,23735
3486,96407;2,24196
3484,91292;2,24581
3482,86176;2,24735
3480,81061;2,24776
3478,75945;2,2499
3476,7083;2,25448
3474,65714;2,26035
3472,60599;2,26438
3470,55483;2,2636
3468,50368;2,26071
3466,45252;2,25943
3464,40137;2,26032
3462,35021;2,26294
3460,29906;2,26668
3458,2479;2,27146
3456,19674;2,27479
3454,14559;2,27438
3452,09443;2,27384
3450,04328;2,27565
3447,99212;2,27579
3445,94097;2,27385
3443,88981;2,27503
3441,83866;2,28137
3439,7875;2,29011
3437,73635;2,29517
3435,68519;2,29433
3433,63404;2,29374
3431,58288;2,29731
3429,53173;2,30048
3427,48057;2,29894
3425,42941;2,29584
3423,37826;2,29585
3421,3271;2,29864
3419,27595;2,30135
3417,22479;2,30279
3415,17364;2,30293
3413,12248;2,30359
3411,07133;2,30851
3409,02017;2,31415
3406,96902;2,31535
3404,91786;2,31674
3402,86671;2,32052
3400,81555;2,32368
3398,7644;2,32436
3396,71324;2,32155
3394,66208;2,32103
3392,61093;2,32646
3390,55977;2,33194
3388,50862;2,33481
3386,45746;2,33671
3384,40631;2,3359
3382,35515;2,33387
3380,304;2,33483
3378,25284;2,33667
3376,20169;2,33649
3374,15053;2,33716
3372,09938;2,33989
3370,04822;2,34438
3367,99707;2,35067
3365,94591;2,35241
3363,89475;2,34604
3361,8436;2,34134
3359,79244;2,34485
3357,74129;2,35106
3355,69013;2,35519
3353,63898;2,35832
3351,58782;2,36192
3349,53667;2,36481
3347,48551;2,36604
3345,43436;2,36605
3343,3832;2,3651
3341,33205;2,36597
3339,28089;2,36998
3337,22974;2,37397
3335,17858;2,37696
3333,12742;2,38022
3331,07627;2,38352
3329,02511;2,38552
3326,97396;2,38438
3324,9228;2,38308
3322,87165;2,38674
3320,82049;2,39333
3318,76934;2,39897
3316,71818;2,40161
3314,66703;2,40215
3312,61587;2,40501
3310,56472;2,40909
3308,51356;2,41168
3306,46241;2,41348
3304,41125;2,41276
3302,36009;2,41033
3300,30894;2,40956
3298,25778;2,4111
3296,20663;2,41403
3294,15547;2,41602
3292,10432;2,41663
3290,05316;2,41613
3288,00201;2,41287
3285,95085;2,40843
3283,8997;2,40606
3281,84854;2,40596
3279,79739;2,40369
3277,74623;2,39564
3275,69508;2,38888
3273,64392;2,38789
3271,59276;2,38639
3269,54161;2,38442
3267,49045;2,38415
3265,4393;2,38166
3263,38814;2,37641
3261,33699;2,37075
3259,28583;2,36501
3257,23468;2,35841
3255,18352;2,35232
3253,13237;2,34857
3251,08121;2,34549
3249,03006;2,3435
3246,9789;2,34331
3244,92775;2,33939
3242,87659;2,33293
3240,82543;2,33229
3238,77428;2,33429
3236,72312;2,33009
3234,67197;2,32281
3232,62081;2,31848
3230,56966;2,31424
3228,5185;2,30771
3226,46735;2,30177
3224,41619;2,29914
3222,36504;2,29867
3220,31388;2,29795
3218,26273;2,29801
3216,21157;2,29943
3214,16041;2,29912
3212,10926;2,29572
3210,0581;2,29145
3208,00695;2,28744
3205,95579;2,2841
3203,90464;2,28145
3201,85348;2,27885
3199,80233;2,27712
3197,75117;2,27532
3195,70002;2,27138
3193,64886;2,26722
3191,59771;2,26457
3189,54655;2,26231
3187,4954;2,26071
3185,44424;2,26016
3183,39308;2,25936
3181,34193;2,25709
3179,29077;2,2524
3177,23962;2,24674
3175,18846;2,24198
3173,13731;2,23675
3171,08615;2,23146
3169,035;2,22932
3166,98384;2,22922
3164,93269;2,22649
3162,88153;2,22057
3160,83038;2,21528
3158,77922;2,21262
3156,72807;2,21081
3154,67691;2,21037
3152,62575;2,21261
3150,5746;2,21273
3148,52344;2,20756
3146,47229;2,20111
3144,42113;2,19652
3142,36998;2,19377
3140,31882;2,19279
3138,26767;2,19258
3136,21651;2,19131
3134,16536;2,18866
3132,1142;2,18591
3130,06305;2,18431
3128,01189;2,18312
3125,96074;2,18088
3123,90958;2,17847
3121,85842;2,17634
3119,80727;2,17415
3117,75611;2,17363
3115,70496;2,17379
3113,6538;2,1726
3111,60265;2,17239
3109,55149;2,17384
3107,50034;2,17427
3105,44918;2,17279
3103,39803;2,17104
3101,34687;2,1724
3099,29572;2,17683
3097,24456;2,17864
3095,19341;2,17614
3093,14225;2,17441
3091,09109;2,17458
3089,03994;2,17423
3086,98878;2,1748
3084,93763;2,17618
3082,88647;2,17607
3080,83532;2,17586
3078,78416;2,17708
3076,73301;2,17878
3074,68185;2,17986
3072,6307;2,18008
3070,57954;2,17933
3068,52839;2,17725
3066,47723;2,17437
3064,42608;2,17177
3062,37492;2,16945
3060,32376;2,1668
3058,27261;2,16383
3056,22145;2,16187
3054,1703;2,16186
3052,11914;2,16185
3050,06799;2,15946
3048,01683;2,15528
3045,96568;2,15108
3043,91452;2,147
3041,86337;2,14315
3039,81221;2,14023
3037,76106;2,13762
3035,7099;2,13475
3033,65875;2,13308
3031,60759;2,13316
3029,55643;2,13182
3027,50528;2,12842
3025,45412;2,12618
3023,40297;2,1248
3021,35181;2,12216
3019,30066;2,11943
3017,2495;2,11849
3015,19835;2,11773
3013,14719;2,11415
3011,09604;2,10885
3009,04488;2,10595
3006,99373;2,10644
3004,94257;2,10837
3002,89142;2,11002
3000,84026;2,10956
2998,7891;2,10771
2996,73795;2,10869
2994,68679;2,11396
2992,63564;2,12058
2990,58448;2,12632
2988,53333;2,132
2986,48217;2,1386
2984,43102;2,14501
2982,37986;2,1508
2980,32871;2,1566
2978,27755;2,16359
2976,2264;2,17212
2974,17524;2,17975
2972,12409;2,18557
2970,07293;2,19202
2968,02177;2,1976
2965,97062;2,20017
2963,91946;2,20319
2961,86831;2,2082
2959,81715;2,21121
2957,766;2,20875
2955,71484;2,2028
2953,66369;2,19607
2951,61253;2,18982
2949,56138;2,18616
2947,51022;2,18473
2945,45907;2,18367
2943,40791;2,18304
2941,35675;2,18347
2939,3056;2,18464
2937,25444;2,18648
2935,20329;2,1882
2933,15213;2,18815
2931,10098;2,18659
2929,04982;2,18392
2926,99867;2,18019
2924,94751;2,17659
2922,89636;2,17306
2920,8452;2,1688
2918,79405;2,16437
2916,74289;2,15947
2914,69174;2,15449
2912,64058;2,15104
2910,58942;2,14798
2908,53827;2,14328
2906,48711;2,13796
2904,43596;2,13429
2902,3848;2,13184
2900,33365;2,12971
2898,28249;2,12806
2896,23134;2,12666
2894,18018;2,12526
2892,12903;2,12394
2890,07787;2,12258
2888,02672;2,12133
2885,97556;2,12141
2883,92441;2,12374
2881,87325;2,12857
2879,82209;2,13443
2877,77094;2,13925
2875,71978;2,14289
2873,66863;2,14517
2871,61747;2,14527
2869,56632;2,14258
2867,51516;2,138
2865,46401;2,13246
2863,41285;2,12688
2861,3617;2,12379
2859,31054;2,12344
2857,25939;2,12291
2855,20823;2,12071
2853,15708;2,11752
2851,10592;2,11401
2849,05476;2,11116
2847,00361;2,10941
2844,95245;2,10882
2842,9013;2,1102
2840,85014;2,11245
2838,79899;2,11377
2836,74783;2,11364
2834,69668;2,11222
2832,64552;2,10988
2830,59437;2,10782
2828,54321;2,10725
2826,49206;2,10659
2824,4409;2,10606
2822,38975;2,10785
2820,33859;2,11028
2818,28743;2,1109
2816,23628;2,10958
2814,18512;2,10718
2812,13397;2,10563
2810,08281;2,10608
2808,03166;2,10719
2805,9805;2,10765
2803,92935;2,10773
2801,87819;2,10706
2799,82704;2,10545
2797,77588;2,10418
2795,72473;2,10301
2793,67357;2,1018
2791,62242;2,10175
2789,57126;2,10198
2787,5201;2,10032
2785,46895;2,09771
2783,41779;2,09695
2781,36664;2,09689
2779,31548;2,09469
2777,26433;2,09125
2775,21317;2,08882
2773,16202;2,08732
2771,11086;2,0863
2769,05971;2,0852
2767,00855;2,08345
2764,9574;2,08202
2762,90624;2,0814
2760,85509;2,08149
2758,80393;2,08218
2756,75277;2,08311
2754,70162;2,0831
2752,65046;2,0819
2750,59931;2,08155
2748,54815;2,08286
2746,497;2,08462
2744,44584;2,08536
2742,39469;2,08407
2740,34353;2,08072
2738,29238;2,07709
2736,24122;2,07459
2734,19007;2,07148
2732,13891;2,06573
2730,08776;2,05865
2728,0366;2,05185
2725,98544;2,04522
2723,93429;2,03883
2721,88313;2,03276
2719,83198;2,02652
2717,78082;2,01989
2715,72967;2,01359
2713,67851;2,00802
2711,62736;2,00285
2709,5762;1,99727
2707,52505;1,99208
2705,47389;1,98881
2703,42274;1,98658
2701,37158;1,98408
2699,32043;1,98096
2697,26927;1,97712
2695,21811;1,97343
2693,16696;1,97082
2691,1158;1,9688
2689,06465;1,96734
2687,01349;1,96648
2684,96234;1,96497
2682,91118;1,96313
2680,86003;1,96198
2678,80887;1,96061
2676,75772;1,95871
2674,70656;1,95737
2672,65541;1,9564
2670,60425;1,9548
2668,55309;1,95289
2666,50194;1,95163
2664,45078;1,9511
2662,39963;1,95068
2660,34847;1,95003
2658,29732;1,94993
2656,24616;1,94948
2654,19501;1,94685
2652,14385;1,9442
2650,0927;1,94329
2648,04154;1,94319
2645,99039;1,94338
2643,93923;1,94299
2641,88808;1,94241
2639,83692;1,9433
2637,78576;1,94495
2635,73461;1,94567
2633,68345;1,94606
2631,6323;1,94766
2629,58114;1,95033
2627,52999;1,95242
2625,47883;1,95325
2623,42768;1,95376
2621,37652;1,95519
2619,32537;1,95667
2617,27421;1,95646
2615,22306;1,95602
2613,1719;1,95734
2611,12075;1,959
2609,06959;1,95953
2607,01843;1,96004
2604,96728;1,9608
2602,91612;1,96089
2600,86497;1,96071
2598,81381;1,9616
2596,76266;1,96315
2594,7115;1,96379
2592,66035;1,96318
2590,60919;1,96216
2588,55804;1,96198
2586,50688;1,9621
2584,45573;1,96187
2582,40457;1,96262
2580,35342;1,96428
2578,30226;1,96564
2576,2511;1,96647
2574,19995;1,96686
2572,14879;1,96767
2570,09764;1,96919
2568,04648;1,96995
2565,99533;1,97009
2563,94417;1,97119
2561,89302;1,97258
2559,84186;1,97357
2557,79071;1,97594
2555,73955;1,97958
2553,6884;1,98199
2551,63724;1,98403
2549,58609;1,98763
2547,53493;1,99199
2545,48377;1,99638
2543,43262;2,00114
2541,38146;2,00574
2539,33031;2,01015
2537,27915;2,01583
2535,228;2,02277
2533,17684;2,02839
2531,12569;2,03149
2529,07453;2,03371
2527,02338;2,03709
2524,97222;2,04187
2522,92107;2,04617
2520,86991;2,04956
2518,81876;2,053
2516,7676;2,05571
2514,71644;2,05741
2512,66529;2,05876
2510,61413;2,05966
2508,56298;2,05973
2506,51182;2,0596
2504,46067;2,06023
2502,40951;2,06082
2500,35836;2,06024
2498,3072;2,0584
2496,25605;2,05619
2494,20489;2,05614
2492,15374;2,05879
2490,10258;2,06085
2488,05143;2,06038
2486,00027;2,05924
2483,94911;2,05964
2481,89796;2,06106
2479,8468;2,06214
2477,79565;2,06258
2475,74449;2,06233
2473,69334;2,06165
2471,64218;2,06046
2469,59103;2,05929
2467,53987;2,05912
2465,48872;2,05899
2463,43756;2,05813
2461,38641;2,05795
2459,33525;2,05831
2457,2841;2,05726
2455,23294;2,056
2453,18178;2,05611
2451,13063;2,05695
2449,07947;2,05959
2447,02832;2,06467
2444,97716;2,07059
2442,92601;2,07675
2440,87485;2,08308
2438,8237;2,08977
2436,77254;2,09788
2434,72139;2,10823
2432,67023;2,12107
2430,61908;2,13573
2428,56792;2,15142
2426,51677;2,16783
2424,46561;2,18397
2422,41445;2,19921
2420,3633;2,21579
2418,31214;2,23428
2416,26099;2,25095
2414,20983;2,26301
2412,15868;2,26795
2410,10752;2,26454
2408,05637;2,2556
2406,00521;2,24345
2403,95406;2,22725
2401,9029;2,20635
2399,85175;2,18338
2397,80059;2,16006
2395,74944;2,13601
2393,69828;2,11206
2391,64712;2,09119
2389,59597;2,07465
2387,54481;2,06167
2385,49366;2,05225
2383,4425;2,04648
2381,39135;2,04317
2379,34019;2,04056
2377,28904;2,03807
2375,23788;2,03697
2373,18673;2,03944
2371,13557;2,04506
2369,08442;2,0497
2367,03326;2,05242
2364,9821;2,05376
2362,93095;2,05334
2360,87979;2,05303
2358,82864;2,04972
2356,77748;2,04064
2354,72633;2,02941
2352,67517;2,02473
2350,62402;2,03039
2348,57286;2,03049
2346,52171;2,01785
2344,47055;2,00917
2342,4194;2,00794
2340,36824;2,00525
2338,31709;2,00199
2336,26593;1,99894
2334,21477;1,99567
2332,16362;1,99098
2330,11246;1,98437
2328,06131;1,97844
2326,01015;1,97506
2323,959;1,97261
2321,90784;1,96847
2319,85669;1,96256
2317,80553;1,95728
2315,75438;1,95308
2313,70322;1,94968
2311,65207;1,947
2309,60091;1,94414
2307,54976;1,94063
2305,4986;1,93694
2303,44744;1,93347
2301,39629;1,93053
2299,34513;1,92829
2297,29398;1,92567
2295,24282;1,92233
2293,19167;1,91966
2291,14051;1,91819
2289,08936;1,91716
2287,0382;1,91624
2284,98705;1,91584
2282,93589;1,91611
2280,88474;1,91611
2278,83358;1,9154
2276,78243;1,91498
2274,73127;1,91561
2272,68011;1,9169
2270,62896;1,91816
2268,5778;1,91908
2266,52665;1,91978
2264,47549;1,92013
2262,42434;1,92007
2260,37318;1,92027
2258,32203;1,92148
2256,27087;1,92311
2254,21972;1,92408
2252,16856;1,92459
2250,11741;1,9251
2248,06625;1,9259
2246,0151;1,92744
2243,96394;1,92826
2241,91278;1,92847
2239,86163;1,92923
2237,81047;1,93045
2235,75932;1,93187
2233,70816;1,93345
2231,65701;1,93489
2229,60585;1,93609
2227,5547;1,93736
2225,50354;1,93853
2223,45239;1,9396
2221,40123;1,94118
2219,35008;1,94311
2217,29892;1,94478
2215,24777;1,94574
2213,19661;1,94584
2211,14545;1,94577
2209,0943;1,94633
2207,04314;1,94741
2204,99199;1,94833
2202,94083;1,94883
2200,88968;1,94977
2198,83852;1,95148
2196,78737;1,95271
2194,73621;1,95319
2192,68506;1,95373
2190,6339;1,95444
2188,58275;1,95541
2186,53159;1,95673
2184,48044;1,95772
2182,42928;1,95811
2180,37812;1,95911
2178,32697;1,96113
2176,27581;1,96292
2174,22466;1,9647
2172,1735;1,96726
2170,12235;1,96905
2168,07119;1,96973
2166,02004;1,97135
2163,96888;1,97401
2161,91773;1,97697
2159,86657;1,98057
2157,81542;1,98402
2155,76426;1,98672
2153,71311;1,99002
2151,66195;1,99363
2149,61079;1,99592
2147,55964;1,99723
2145,50848;1,99825
2143,45733;1,9987
2141,40617;1,99853
2139,35502;1,9983
2137,30386;1,99852
2135,25271;1,99872
2133,20155;1,9979
2131,1504;1,99594
2129,09924;1,99406
2127,04809;1,99302
2124,99693;1,99219
2122,94578;1,99106
2120,89462;1,99005
2118,84346;1,98898
2116,79231;1,98682
2114,74115;1,98406
2112,69;1,98286
2110,63884;1,98314
2108,58769;1,98287
2106,53653;1,98207
2104,48538;1,98159
2102,43422;1,98155
2100,38307;1,98246
2098,33191;1,9841
2096,28076;1,98518
2094,2296;1,98538
2092,17844;1,98511
2090,12729;1,98498
2088,07613;1,98609
2086,02498;1,98768
2083,97382;1,98856
2081,92267;1,98959
2079,87151;1,99116
2077,82036;1,99242
2075,7692;1,99355
2073,71805;1,99517
2071,66689;1,99682
2069,61574;1,99818
2067,56458;1,99979
2065,51343;2,00201
2063,46227;2,00487
2061,41111;2,00874
2059,35996;2,01276
2057,3088;2,01544
2055,25765;2,01715
2053,20649;2,01892
2051,15534;2,0207
2049,10418;2,02239
2047,05303;2,02364
2045,00187;2,02388
2042,95072;2,02334
2040,89956;2,02239
2038,84841;2,02046
2036,79725;2,01745
2034,7461;2,01439
2032,69494;2,01166
2030,64378;2,00941
2028,59263;2,00805
2026,54147;2,00716
2024,49032;2,00642
2022,43916;2,0057
2020,38801;2,00514
2018,33685;2,00569
2016,2857;2,00699
2014,23454;2,00806
2012,18339;2,00861
2010,13223;2,00782
2008,08108;2,00646
2006,02992;2,00612
2003,97877;2,0067
2001,92761;2,0078
1999,87645;2,00893
1997,8253;2,00923
1995,77414;2,0088
1993,72299;2,00879
1991,67183;2,00929
1989,62068;2,00953
1987,56952;2,00975
1985,51837;2,01057
1983,46721;2,01166
1981,41606;2,01255
1979,3649;2,01331
1977,31375;2,01397
1975,26259;2,01463
1973,21144;2,01556
1971,16028;2,01715
1969,10912;2,01957
1967,05797;2,02277
1965,00681;2,02665
1962,95566;2,03059
1960,9045;2,03276
1958,85335;2,03239
1956,80219;2,03105
1954,75104;2,03028
1952,69988;2,02986
1950,64873;2,02925
1948,59757;2,02952
1946,54642;2,03127
1944,49526;2,03303
1942,44411;2,03353
1940,39295;2,03352
1938,34179;2,03449
1936,29064;2,03569
1934,23948;2,03661
1932,18833;2,0381
1930,13717;2,03965
1928,08602;2,04012
1926,03486;2,04005
1923,98371;2,04063
1921,93255;2,042
1919,8814;2,04451
1917,83024;2,04724
1915,77909;2,04873
1913,72793;2,05004
1911,67678;2,05192
1909,62562;2,05426
1907,57446;2,05717
1905,52331;2,06031
1903,47215;2,06213
1901,421;2,06234
1899,36984;2,0629
1897,31869;2,06518
1895,26753;2,06798
1893,21638;2,06958
1891,16522;2,07077
1889,11407;2,07291
1887,06291;2,07593
1885,01176;2,07857
1882,9606;2,07971
1880,90945;2,0805
1878,85829;2,08232
1876,80713;2,0848
1874,75598;2,08739
1872,70482;2,0903
1870,65367;2,09328
1868,60251;2,09554
1866,55136;2,09799
1864,5002;2,10145
1862,44905;2,10413
1860,39789;2,10548
1858,34674;2,10786
1856,29558;2,11249
1854,24443;2,11742
1852,19327;2,12073
1850,14212;2,12241
1848,09096;2,1235
1846,0398;2,12527
1843,98865;2,12721
1841,93749;2,12937
1839,88634;2,13343
1837,83518;2,13825
1835,78403;2,14178
1833,73287;2,14462
1831,68172;2,14857
1829,63056;2,15314
1827,57941;2,15709
1825,52825;2,1612
1823,4771;2,16571
1821,42594;2,17089
1819,37478;2,17649
1817,32363;2,18104
1815,27247;2,18486
1813,22132;2,18962
1811,17016;2,19526
1809,11901;2,20214
1807,06785;2,21134
1805,0167;2,22117
1802,96554;2,23016
1800,91439;2,23836
1798,86323;2,24532
1796,81208;2,25128
1794,76092;2,25686
1792,70977;2,26088
1790,65861;2,26107
1788,60745;2,25943
1786,5563;2,25894
1784,50514;2,2589
1782,45399;2,25841
1780,40283;2,25788
1778,35168;2,25761
1776,30052;2,2575
1774,24937;2,25696
1772,19821;2,25694
1770,14706;2,26044
1768,0959;2,26831
1766,04475;2,27739
1763,99359;2,28513
1761,94244;2,2906
1759,89128;2,29525
1757,84012;2,3031
1755,78897;2,31445
1753,73781;2,32885
1751,68666;2,35124
1749,6355;2,38752
1747,58435;2,43586
1745,53319;2,4884
1743,48204;2,53868
1741,43088;2,57542
1739,37973;2,58789
1737,32857;2,58807
1735,27742;2,60043
1733,22626;2,62665
1731,17511;2,64581
1729,12395;2,64606
1727,07279;2,62253
1725,02164;2,57507
1722,97048;2,51685
1720,91933;2,46999
1718,86817;2,44273
1716,81702;2,42984
1714,76586;2,42899
1712,71471;2,43756
1710,66355;2,44999
1708,6124;2,46416
1706,56124;2,48081
1704,51009;2,49898
1702,45893;2,52033
1700,40778;2,54995
1698,35662;2,58238
1696,30546;2,61045
1694,25431;2,63447
1692,20315;2,65714
1690,152;2,68029
1688,10084;2,70395
1686,04969;2,728
1683,99853;2,74154
1681,94738;2,73891
1679,89622;2,73881
1677,84507;2,75061
1675,79391;2,77179
1673,74276;2,79321
1671,6916;2,80621
1669,64045;2,80903
1667,58929;2,8066
1665,53813;2,80747
1663,48698;2,8104
1661,43582;2,81195
1659,38467;2,81517
1657,33351;2,82086
1655,28236;2,8285
1653,2312;2,83188
1651,18005;2,82535
1649,12889;2,81906
1647,07774;2,81284
1645,02658;2,80646
1642,97543;2,80508
1640,92427;2,80379
1638,87312;2,79731
1636,82196;2,78957
1634,7708;2,78167
1632,71965;2,77322
1630,66849;2,76851
1628,61734;2,76409
1626,56618;2,75487
1624,51503;2,744
1622,46387;2,73428
1620,41272;2,72692
1618,36156;2,72082
1616,31041;2,71287
1614,25925;2,70848
1612,2081;2,71064
1610,15694;2,71338
1608,10579;2,71155
1606,05463;2,70722
1604,00347;2,70647
1601,95232;2,71068
1599,90116;2,7176
1597,85001;2,72405
1595,79885;2,72807
1593,7477;2,73465
1591,69654;2,74751
1589,64539;2,76038
1587,59423;2,76781
1585,54308;2,77057
1583,49192;2,77244
1581,44077;2,77781
1579,38961;2,78771
1577,33846;2,79854
1575,2873;2,80184
1573,23614;2,80077
1571,18499;2,80517
1569,13383;2,80878
1567,08268;2,8074
1565,03152;2,80803
1562,98037;2,81083
1560,92921;2,8133
1558,87806;2,80671
1556,8269;2,78554
1554,77575;2,77045
1552,72459;2,76702
1550,67344;2,76897
1548,62228;2,77195
1546,57113;2,77403
1544,51997;2,77249
1542,46881;2,76951
1540,41766;2,77216
1538,3665;2,77378
1536,31535;2,76983
1534,26419;2,76676
1532,21304;2,76789
1530,16188;2,77141
1528,11073;2,77506
1526,05957;2,78147
1524,00842;2,79228
1521,95726;2,80291
1519,90611;2,81234
1517,85495;2,82643
1515,80379;2,84439
1513,75264;2,85777
1511,70148;2,86572
1509,65033;2,87851
1507,59917;2,89776
1505,54802;2,90658
1503,49686;2,90758
1501,44571;2,91141
1499,39455;2,91261
1497,3434;2,90616
1495,29224;2,8956
1493,24109;2,88274
1491,18993;2,86382
1489,13878;2,83498
1487,08762;2,80202
1485,03646;2,77123
1482,98531;2,73919
1480,93415;2,70385
1478,883;2,67079
1476,83184;2,64154
1474,78069;2,61027
1472,72953;2,57558
1470,67838;2,54601
1468,62722;2,52585
1466,57607;2,50599
1464,52491;2,47969
1462,47376;2,45476
1460,4226;2,43724
1458,37145;2,42002
1456,32029;2,39794
1454,26913;2,37947
1452,21798;2,36746
1450,16682;2,35796
1448,11567;2,3494
1446,06451;2,3413
1444,01336;2,33377
1441,9622;2,32601
1439,91105;2,31729
1437,85989;2,30958
1435,80874;2,30566
1433,75758;2,30692
1431,70643;2,31115
1429,65527;2,31523
1427,60412;2,31802
1425,55296;2,31951
1423,5018;2,31919
1421,45065;2,31634
1419,39949;2,31031
1417,34834;2,30202
1415,29718;2,29436
1413,24603;2,28565
1411,19487;2,27321
1409,14372;2,25774
1407,09256;2,24153
1405,04141;2,22573
1402,99025;2,21154
1400,9391;2,19943
1398,88794;2,18756
1396,83679;2,17592
1394,78563;2,16486
1392,73447;2,15439
1390,68332;2,14638
1388,63216;2,14033
1386,58101;2,1355
1384,52985;2,13371
1382,4787;2,13472
1380,42754;2,13733
1378,37639;2,14227
1376,32523;2,14973
1374,27408;2,15805
1372,22292;2,16635
1370,17177;2,1763
1368,12061;2,18759
1366,06946;2,19737
1364,0183;2,20461
1361,96714;2,21006
1359,91599;2,2148
1357,86483;2,21978
1355,81368;2,2255
1353,76252;2,23155
1351,71137;2,23646
1349,66021;2,2401
1347,60906;2,24359
1345,5579;2,2474
1343,50675;2,25225
1341,45559;2,25819
1339,40444;2,26304
1337,35328;2,26487
1335,30213;2,26506
1333,25097;2,26595
1331,19981;2,26826
1329,14866;2,27165
1327,0975;2,2759
1325,04635;2,28054
1322,99519;2,28372
1320,94404;2,2846
1318,89288;2,28511
1316,84173;2,28711
1314,79057;2,29028
1312,73942;2,29219
1310,68826;2,29119
1308,63711;2,28877
1306,58595;2,28708
1304,5348;2,28593
1302,48364;2,28471
1300,43248;2,28416
1298,38133;2,28389
1296,33017;2,28284
1294,27902;2,28058
1292,22786;2,27714
1290,17671;2,27379
1288,12555;2,27061
1286,0744;2,26717
1284,02324;2,26511
1281,97209;2,26372
1279,92093;2,26115
1277,86978;2,25838
1275,81862;2,25575
1273,76747;2,2532
1271,71631;2,25188
1269,66515;2,25146
1267,614;2,25034
1265,56284;2,24833
1263,51169;2,24638
1261,46053;2,24563
1259,40938;2,24644
1257,35822;2,24767
1255,30707;2,24752
1253,25591;2,24547
1251,20476;2,24291
1249,1536;2,24185
1247,10245;2,24391
1245,05129;2,24724
1243,00013;2,24842
1240,94898;2,24813
1238,89782;2,24831
1236,84667;2,24782
1234,79551;2,24591
1232,74436;2,24547
1230,6932;2,24703
1228,64205;2,24608
1226,59089;2,24249
1224,53974;2,2409
1222,48858;2,24172
1220,43743;2,24073
1218,38627;2,23669
1216,33512;2,23368
1214,28396;2,23361
1212,2328;2,23396
1210,18165;2,2336
1208,13049;2,23476
1206,07934;2,2368
1204,02818;2,23706
1201,97703;2,23597
1199,92587;2,23331
1197,87472;2,23032
1195,82356;2,2304
1193,77241;2,23344
1191,72125;2,23594
1189,6701;2,2361
1187,61894;2,23428
1185,56779;2,23286
1183,51663;2,23488
1181,46547;2,23794
1179,41432;2,24063
1177,36316;2,24478
1175,31201;2,24771
1173,26085;2,24762
1171,2097;2,24811
1169,15854;2,25177
1167,10739;2,25525
1165,05623;2,25532
1163,00508;2,25437
1160,95392;2,25551
1158,90277;2,25937
1156,85161;2,26224
1154,80046;2,2617
1152,7493;2,26145
1150,69814;2,2628
1148,64699;2,26425
1146,59583;2,26506
1144,54468;2,26532
1142,49352;2,26667
1140,44237;2,26887
1138,39121;2,2693
1136,34006;2,26829
1134,2889;2,26883
1132,23775;2,27178
1130,18659;2,27636
1128,13544;2,2803
1126,08428;2,2808
1124,03313;2,28012
1121,98197;2,28282
1119,93081;2,28859
1117,87966;2,2953
1115,8285;2,30189
1113,77735;2,30758
1111,72619;2,31362
1109,67504;2,31952
1107,62388;2,3208
1105,57273;2,31626
1103,52157;2,31111
1101,47042;2,30791
1099,41926;2,30411
1097,36811;2,30024
1095,31695;2,29813
1093,2658;2,2972
1091,21464;2,29712
1089,16348;2,29609
1087,11233;2,29323
1085,06117;2,29223
1083,01002;2,29394
1080,95886;2,29509
1078,90771;2,29584
1076,85655;2,29983
1074,8054;2,30429
1072,75424;2,30315
1070,70309;2,29958
1068,65193;2,29841
1066,60078;2,29872
1064,54962;2,29954
1062,49847;2,30317
1060,44731;2,31226
1058,39615;2,33019
1056,345;2,36126
1054,29384;2,38168
1052,24269;2,35219
1050,19153;2,30348
1048,14038;2,28151
1046,08922;2,27967
1044,03807;2,28041
1041,98691;2,27998
1039,93576;2,27725
1037,8846;2,2737
1035,83345;2,2734
1033,78229;2,27666
1031,73114;2,27993
1029,67998;2,28024
1027,62882;2,27755
1025,57767;2,27498
1023,52651;2,27348
1021,47536;2,27138
1019,4242;2,26976
1017,37305;2,27045
1015,32189;2,27184
1013,27074;2,27225
1011,21958;2,27249
1009,16843;2,27355
1007,11727;2,27533
1005,06612;2,27575
1003,01496;2,27432
1000,96381;2,27498
998,91265;2,27834
996,86149;2,28066
994,81034;2,28119
992,75918;2,28099
990,70803;2,2795
988,65687;2,27608
986,60572;2,27198
984,55456;2,26832
982,50341;2,26562
980,45225;2,26337
978,4011;2,26008
976,34994;2,25685
974,29879;2,25477
972,24763;2,25414
970,19647;2,2562
968,14532;2,25911
966,09416;2,26048
964,04301;2,26046
961,99185;2,25864
959,9407;2,25533
957,88954;2,25184
955,83839;2,25175
953,78723;2,25764
951,73608;2,26345
949,68492;2,26454
947,63377;2,26458
945,58261;2,26299
943,53146;2,26006
941,4803;2,26128
939,42914;2,26353
937,37799;2,26199
935,32683;2,26043
933,27568;2,26126
931,22452;2,26253
929,17337;2,2629
927,12221;2,26238
925,07106;2,26261
923,0199;2,26399
920,96875;2,26423
918,91759;2,26421
916,86644;2,26517
914,81528;2,26762
912,76413;2,2715
910,71297;2,27414
908,66181;2,2745
906,61066;2,27233
904,5595;2,26999
902,50835;2,27032
900,45719;2,27038
898,40604;2,26867
896,35488;2,27003
894,30373;2,27135
892,25257;2,26204
890,20142;2,24596
888,15026;2,23849
886,09911;2,24683
884,04795;2,26133
881,9968;2,26717
879,94564;2,26092
877,89448;2,24653
875,84333;2,22941
873,79217;2,21646
871,74102;2,22067
869,68986;2,25254
867,63871;2,29682
865,58755;2,32521
863,5364;2,33675
861,48524;2,34654
859,43409;2,35731
857,38293;2,37039
855,33178;2,38974
853,28062;2,41238
851,22947;2,44043
849,17831;2,48118
847,12715;2,52966
845,076;2,55968
843,02484;2,50727
840,97369;2,35987
838,92253;2,21893
836,87138;2,15292
834,82022;2,1552
832,76907;2,18386
830,71791;2,20963
828,66676;2,23281
826,6156;2,25562
824,56445;2,26684
822,51329;2,2627
820,46214;2,26024
818,41098;2,26776
816,35982;2,27618
814,30867;2,27886
812,25751;2,27958
810,20636;2,28243
808,1552;2,28407
806,10405;2,28662
804,05289;2,29314
802,00174;2,29726
799,95058;2,29695
797,89943;2,29681
795,84827;2,29782
793,79712;2,30012
791,74596;2,30523
789,69481;2,31174
787,64365;2,31545
785,59249;2,31633
783,54134;2,31861
781,49018;2,32136
779,43903;2,32331
777,38787;2,32796
775,33672;2,33497
773,28556;2,34156
771,23441;2,34664
769,18325;2,34544
767,1321;2,33563
765,08094;2,32683
763,02979;2,32681
760,97863;2,33181
758,92748;2,33501
756,87632;2,33719
754,82516;2,34161
752,77401;2,34513
750,72285;2,34533
748,6717;2,34501
746,62054;2,34694
744,56939;2,35034
742,51823;2,3512
740,46708;2,34696
738,41592;2,3393
736,36477;2,33302
734,31361;2,3348
732,26246;2,34504
730,2113;2,3535
728,16015;2,35618
726,10899;2,36084
724,05783;2,37074
722,00668;2,38245
719,95552;2,39411
717,90437;2,39995
715,85321;2,39636
713,80206;2,39128
711,7509;2,39101
709,69975;2,39474
707,64859;2,40134
705,59744;2,40868
703,54628;2,4135
701,49513;2,41939
699,44397;2,43167
697,39281;2,44488
695,34166;2,4549
693,2905;2,46637
691,23935;2,48298
689,18819;2,51868
687,13704;2,58818
685,08588;2,64097
683,03473;2,56195
680,98357;2,35688
678,93242;2,17102
676,88126;2,08805
674,83011;2,09844
672,77895;2,15343
670,7278;2,19369
668,67664;2,20768
666,62548;2,24454
664,57433;2,27765
662,52317;2,27578
660,47202;2,2686
658,42086;2,27328
656,36971;2,28268
654,31855;2,2911
652,2674;2,3002
650,21624;2,3095
648,16509;2,31444
646,11393;2,31368
644,06278;2,31156
642,01162;2,31181
639,96047;2,31402
637,90931;2,31454
635,85815;2,30928
633,807;2,30219
631,75584;2,30411
629,70469;2,31715
627,65353;2,33136
625,60238;2,33619
623,55122;2,33136
621,50007;2,32514
619,44891;2,32889
617,39776;2,33463
615,3466;2,32563
613,29545;2,3172
611,24429;2,32768
609,19314;2,34364
607,14198;2,3445
605,09082;2,33598
603,03967;2,33325
600,98851;2,33458
598,93736;2,33441
596,8862;2,33722
594,83505;2,34627
592,78389;2,35532
590,73274;2,35241
588,68158;2,3438
586,63043;2,34239
584,57927;2,34217
582,52812;2,33534
580,47696;2,33064
578,42581;2,33431
576,37465;2,34039
574,32349;2,34935
572,27234;2,35911
570,22118;2,36828
568,17003;2,38191
566,11887;2,38779
564,06772;2,37769
562,01656;2,36647
559,96541;2,36179
557,91425;2,35746
555,8631;2,35216
553,81194;2,35304
551,76079;2,35505
549,70963;2,35546
547,65848;2,35918
545,60732;2,35792
543,55616;2,35139
541,50501;2,34766
539,45385;2,34499
537,4027;2,34281
535,35154;2,34147
533,30039;2,34076
531,24923;2,34489
529,19808;2,35591
527,14692;2,37424
525,09577;2,38415
523,04461;2,37108
520,99346;2,3526
518,9423;2,35443
516,89115;2,3744
514,83999;2,38712
512,78883;2,37981
510,73768;2,36524
508,68652;2,3605
506,63537;2,3658
504,58421;2,37133
502,53306;2,38102
500,4819;2,39755
498,43075;2,40999
496,37959;2,40766
494,32844;2,38934
492,27728;2,36795
490,22613;2,36215
488,17497;2,37714
486,12382;2,3985
484,07266;2,40918
482,0215;2,40291
479,97035;2,38854
477,91919;2,38274
475,86804;2,38305
473,81688;2,38219
471,76573;2,38699
469,71457;2,39366
467,66342;2,38511
465,61226;2,36072
463,56111;2,34685
461,50995;2,35894
459,4588;2,38227
457,40764;2,39851
455,35649;2,41669
453,30533;2,44823
451,25417;2,47226
449,20302;2,46511
447,15186;2,43749
445,10071;2,42603
443,04955;2,44186
440,9984;2,45939
438,94724;2,46849
436,89609;2,46632
434,84493;2,45057
432,79378;2,44257
430,74262;2,44969
428,69147;2,45947
426,64031;2,45366
424,58916;2,4279
422,538;2,40811
420,48684;2,42796
418,43569;2,45807
416,38453;2,44701
414,33338;2,40727
412,28222;2,36077
410,23107;2,34499
408,17991;2,3627
406,12876;2,35969
404,0776;2,32644
402,02645;2,31565
399,97529;2,3397
