3997,70175;1,92168
3995,6506;1,92326
3993,59944;1,92628
3991,54829;1,92845
3989,49713;1,92919
3987,44598;1,93123
3985,39482;1,93486
3983,34367;1,93764
3981,29251;1,9393
3979,24136;1,93997
3977,1902;1,94084
3975,13905;1,94312
3973,08789;1,94561
3971,03673;1,94742
3968,98558;1,94855
3966,93442;1,95086
3964,88327;1,95514
3962,83211;1,95923
3960,78096;1,96181
3958,7298;1,964
3956,67865;1,96643
3954,62749;1,96793
3952,57634;1,97059
3950,52518;1,97615
3948,47403;1,97928
3946,42287;1,9787
3944,37172;1,97998
3942,32056;1,98175
3940,2694;1,98083
3938,21825;1,97904
3936,16709;1,97749
3934,11594;1,97725
3932,06478;1,97679
3930,01363;1,97233
3927,96247;1,966
3925,91132;1,96092
3923,86016;1,95569
3921,80901;1,95037
3919,75785;1,94615
3917,7067;1,9422
3915,65554;1,9378
3913,60439;1,93234
3911,55323;1,92582
3909,50207;1,92131
3907,45092;1,92387
3905,39976;1,93249
3903,34861;1,93706
3901,29745;1,93272
3899,2463;1,92389
3897,19514;1,91607
3895,14399;1,91505
3893,09283;1,9186
3891,04168;1,91821
3888,99052;1,91725
3886,93937;1,92254
3884,88821;1,92571
3882,83706;1,92474
3880,7859;1,92266
3878,73474;1,91551
3876,68359;1,91276
3874,63243;1,91642
3872,58128;1,92038
3870,53012;1,92207
3868,47897;1,91951
3866,42781;1,91897
3864,37666;1,91891
3862,3255;1,91437
3860,27435;1,91034
3858,22319;1,91076
3856,17204;1,91812
3854,12088;1,9275
3852,06973;1,9211
3850,01857;1,90881
3847,96741;1,90362
3845,91626;1,90546
3843,8651;1,91004
3841,81395;1,91333
3839,76279;1,91712
3837,71164;1,91928
3835,66048;1,91733
3833,60933;1,91497
3831,55817;1,91232
3829,50702;1,91123
3827,45586;1,91194
3825,40471;1,91172
3823,35355;1,91504
3821,3024;1,92045
3819,25124;1,92217
3817,20008;1,92586
3815,14893;1,9236
3813,09777;1,91557
3811,04662;1,91403
3808,99546;1,91829
3806,94431;1,92031
3804,89315;1,92189
3802,842;1,92933
3800,79084;1,93278
3798,73969;1,93166
3796,68853;1,93203
3794,63738;1,93067
3792,58622;1,93103
3790,53506;1,93478
3788,48391;1,93925
3786,43275;1,94246
3784,3816;1,94401
3782,33044;1,94884
3780,27929;1,95784
3778,22813;1,96271
3776,17698;1,96256
3774,12582;1,96368
3772,07467;1,96864
3770,02351;1,97467
3767,97236;1,97896
3765,9212;1,98221
3763,87005;1,98539
3761,81889;1,99246
3759,76773;2,00152
3757,71658;2,0077
3755,66542;2,01515
3753,61427;2,02708
3751,56311;2,03863
3749,51196;2,04287
3747,4608;2,0488
3745,40965;2,06043
3743,35849;2,06826
3741,30734;2,07351
3739,25618;2,08456
3737,20503;2,10459
3735,15387;2,12986
3733,10272;2,14692
3731,05156;2,15455
3729,0004;2,16248
3726,94925;2,17934
3724,89809;2,20847
3722,84694;2,2445
3720,79578;2,28302
3718,74463;2,32378
3716,69347;2,36415
3714,64232;2,4081
3712,59116;2,4744
3710,54001;2,56056
3708,48885;2,63093
3706,4377;2,68441
3704,38654;2,73443
3702,33539;2,79898
3700,28423;2,8781
3698,23307;2,92829
3696,18192;2,92392
3694,13076;2,89419
3692,07961;2,87433
3690,02845;2,87392
3687,9773;2,86899
3685,92614;2,84645
3683,87499;2,81898
3681,82383;2,79563
3679,77268;2,78179
3677,72152;2,78676
3675,67037;2,80731
3673,61921;2,82488
3671,56806;2,85378
3669,5169;2,87445
3667,46574;2,84748
3665,41459;2,81819
3663,36343;2,81238
3661,31228;2,81536
3659,26112;2,82294
3657,20997;2,84783
3655,15881;2,87755
3653,10766;2,88461
3651,0565;2,8722
3649,00535;2,86459
3646,95419;2,87155
3644,90304;2,88058
3642,85188;2,88671
3640,80073;2,88569
3638,74957;2,88745
3636,69841;2,90773
3634,64726;2,92984
3632,5961;2,93554
3630,54495;2,94575
3628,49379;2,96877
3626,44264;2,97998
3624,39148;2,98107
3622,34033;2,97694
3620,28917;2,96044
3618,23802;2,93646
3616,18686;2,92262
3614,13571;2,91232
3612,08455;2,8961
3610,0334;2,88637
3607,98224;2,88163
3605,93108;2,87158
3603,87993;2,86422
3601,82877;2,8699
3599,77762;2,88605
3597,72646;2,90506
3595,67531;2,91587
3593,62415;2,90299
3591,573;2,88843
3589,52184;2,90272
3587,47069;2,93549
3585,41953;2,95305
3583,36838;2,94002
3581,31722;2,9057
3579,26607;2,88691
3577,21491;2,89407
3575,16375;2,89629
3573,1126;2,89212
3571,06144;2,88748
3569,01029;2,87949
3566,95913;2,88531
3564,90798;2,90418
3562,85682;2,91066
3560,80567;2,90942
3558,75451;2,91205
3556,70336;2,91763
3554,6522;2,9225
3552,60105;2,91656
3550,54989;2,90822
3548,49874;2,9126
3546,44758;2,92094
3544,39642;2,92889
3542,34527;2,93686
3540,29411;2,92958
3538,24296;2,92274
3536,1918;2,92705
3534,14065;2,92661
3532,08949;2,92614
3530,03834;2,9352
3527,98718;2,94297
3525,93603;2,94445
3523,88487;2,95064
3521,83372;2,95553
3519,78256;2,95679
3517,73141;2,96111
3515,68025;2,96558
3513,62909;2,9688
3511,57794;2,96573
3509,52678;2,95833
3507,47563;2,95618
3505,42447;2,96117
3503,37332;2,97072
3501,32216;2,97066
3499,27101;2,95297
3497,21985;2,92919
3495,1687;2,91094
3493,11754;2,90136
3491,06639;2,90088
3489,01523;2,90946
3486,96407;2,91915
3484,91292;2,92928
3482,86176;2,94642
3480,81061;2,96088
3478,75945;2,96484
3476,7083;2,95786
3474,65714;2,95375
3472,60599;2,95841
3470,55483;2,95963
3468,50368;2,95736
3466,45252;2,95215
3464,40137;2,94797
3462,35021;2,94855
3460,29906;2,95007
3458,2479;2,95313
3456,19674;2,9604
3454,14559;2,96493
3452,09443;2,96139
3450,04328;2,95655
3447,99212;2,96625
3445,94097;2,98544
3443,88981;2,98423
3441,83866;2,96674
3439,7875;2,95858
3437,73635;2,96103
3435,68519;2,96219
3433,63404;2,94903
3431,58288;2,9306
3429,53173;2,93733
3427,48057;2,96772
3425,42941;2,98951
3423,37826;2,9999
3421,3271;3,00493
3419,27595;2,98804
3417,22479;2,96006
3415,17364;2,95838
3413,12248;2,97772
3411,07133;2,98562
3409,02017;2,98069
3406,96902;2,96972
3404,91786;2,95667
3402,86671;2,96179
3400,81555;2,9763
3398,7644;2,96857
3396,71324;2,95362
3394,66208;2,95453
3392,61093;2,9653
3390,55977;2,97646
3388,50862;2,97685
3386,45746;2,9661
3384,40631;2,96061
3382,35515;2,96147
3380,304;2,95891
3378,25284;2,96011
3376,20169;2,9609
3374,15053;2,95716
3372,09938;2,9544
3370,04822;2,94788
3367,99707;2,94245
3365,94591;2,94383
3363,89475;2,93965
3361,8436;2,93245
3359,79244;2,93877
3357,74129;2,94773
3355,69013;2,94443
3353,63898;2,94862
3351,58782;2,9592
3349,53667;2,94752
3347,48551;2,92588
3345,43436;2,92513
3343,3832;2,94989
3341,33205;2,97389
3339,28089;2,97189
3337,22974;2,96045
3335,17858;2,95876
3333,12742;2,95745
3331,07627;2,94534
3329,02511;2,93642
3326,97396;2,94005
3324,9228;2,94458
3322,87165;2,9555
3320,82049;2,9659
3318,76934;2,95351
3316,71818;2,94004
3314,66703;2,95161
3312,61587;2,97834
3310,56472;3,00167
3308,51356;3,00648
3306,46241;2,98827
3304,41125;2,96977
3302,36009;2,96736
3300,30894;2,96894
3298,25778;2,9639
3296,20663;2,95377
3294,15547;2,94554
3292,10432;2,94881
3290,05316;2,96084
3288,00201;2,96052
3285,95085;2,94189
3283,8997;2,9235
3281,84854;2,91317
3279,79739;2,91281
3277,74623;2,92468
3275,69508;2,93569
3273,64392;2,93302
3271,59276;2,92732
3269,54161;2,92378
3267,49045;2,91143
3265,4393;2,89439
3263,38814;2,89855
3261,33699;2,92137
3259,28583;2,93077
3257,23468;2,92644
3255,18352;2,92375
3253,13237;2,91686
3251,08121;2,90715
3249,03006;2,9115
3246,9789;2,92801
3244,92775;2,93456
3242,87659;2,92795
3240,82543;2,92181
3238,77428;2,92572
3236,72312;2,93449
3234,67197;2,93477
3232,62081;2,92981
3230,56966;2,92425
3228,5185;2,91401
3226,46735;2,90712
3224,41619;2,90497
3222,36504;2,90122
3220,31388;2,89841
3218,26273;2,89982
3216,21157;2,90241
3214,16041;2,90175
3212,10926;2,89945
3210,0581;2,89685
3208,00695;2,89179
3205,95579;2,89071
3203,90464;2,89894
3201,85348;2,90788
3199,80233;2,91224
3197,75117;2,9194
3195,70002;2,92743
3193,64886;2,92454
3191,59771;2,91376
3189,54655;2,90531
3187,4954;2,89936
3185,44424;2,88941
3183,39308;2,88094
3181,34193;2,88464
3179,29077;2,89353
3177,23962;2,89661
3175,18846;2,88952
3173,13731;2,87721
3171,08615;2,87466
3169,035;2,88261
3166,98384;2,88788
3164,93269;2,88673
3162,88153;2,88855
3160,83038;2,89387
3158,77922;2,89762
3156,72807;2,90076
3154,67691;2,89663
3152,62575;2,88175
3150,5746;2,87233
3148,52344;2,87705
3146,47229;2,88361
3144,42113;2,88082
3142,36998;2,87832
3140,31882;2,88412
3138,26767;2,88739
3136,21651;2,88677
3134,16536;2,89201
3132,1142;2,9024
3130,06305;2,90649
3128,01189;2,89832
3125,96074;2,88803
3123,90958;2,88288
3121,85842;2,87619
3119,80727;2,86346
3117,75611;2,8578
3115,70496;2,86329
3113,6538;2,86955
3111,60265;2,87336
3109,55149;2,87525
3107,50034;2,88067
3105,44918;2,88794
3103,39803;2,88334
3101,34687;2,8675
3099,29572;2,85808
3097,24456;2,86026
3095,19341;2,86462
3093,14225;2,86203
3091,09109;2,84835
3089,03994;2,83484
3086,98878;2,83234
3084,93763;2,83532
3082,88647;2,84179
3080,83532;2,85227
3078,78416;2,8563
3076,73301;2,85785
3074,68185;2,8628
3072,6307;2,86438
3070,57954;2,86341
3068,52839;2,86439
3066,47723;2,86503
3064,42608;2,85649
3062,37492;2,83845
3060,32376;2,82349
3058,27261;2,82249
3056,22145;2,82826
3054,1703;2,82501
3052,11914;2,81578
3050,06799;2,81544
3048,01683;2,82596
3045,96568;2,83591
3043,91452;2,83908
3041,86337;2,835
3039,81221;2,82434
3037,76106;2,82102
3035,7099;2,82947
3033,65875;2,82744
3031,60759;2,81046
3029,55643;2,80043
3027,50528;2,80473
3025,45412;2,81385
3023,40297;2,81851
3021,35181;2,81547
3019,30066;2,81328
3017,2495;2,81654
3015,19835;2,81073
3013,14719;2,79364
3011,09604;2,78594
3009,04488;2,79326
3006,99373;2,80153
3004,94257;2,8013
3002,89142;2,79815
3000,84026;2,80357
2998,7891;2,81392
2996,73795;2,82032
2994,68679;2,82731
2992,63564;2,83064
2990,58448;2,8228
2988,53333;2,8167
2986,48217;2,82047
2984,43102;2,82513
2982,37986;2,82825
2980,32871;2,83553
2978,27755;2,841
2976,2264;2,83784
2974,17524;2,83588
2972,12409;2,83879
2970,07293;2,83708
2968,02177;2,83189
2965,97062;2,82835
2963,91946;2,83065
2961,86831;2,84041
2959,81715;2,84519
2957,766;2,84196
2955,71484;2,84171
2953,66369;2,8397
2951,61253;2,82939
2949,56138;2,82339
2947,51022;2,82592
2945,45907;2,82799
2943,40791;2,83172
2941,35675;2,83711
2939,3056;2,84004
2937,25444;2,84113
2935,20329;2,83483
2933,15213;2,82805
2931,10098;2,83293
2929,04982;2,83377
2926,99867;2,82032
2924,94751;2,81026
2922,89636;2,80898
2920,8452;2,80628
2918,79405;2,79899
2916,74289;2,79022
2914,69174;2,78112
2912,64058;2,77361
2910,58942;2,7777
2908,53827;2,78922
2906,48711;2,78585
2904,43596;2,776
2902,3848;2,77838
2900,33365;2,78292
2898,28249;2,78026
2896,23134;2,77374
2894,18018;2,7698
2892,12903;2,77336
2890,07787;2,77883
2888,02672;2,77925
2885,97556;2,78217
2883,92441;2,79343
2881,87325;2,80216
2879,82209;2,80075
2877,77094;2,79957
2875,71978;2,80357
2873,66863;2,79797
2871,61747;2,78648
2869,56632;2,78473
2867,51516;2,78337
2865,46401;2,77779
2863,41285;2,77283
2861,3617;2,76724
2859,31054;2,75943
2857,25939;2,75435
2855,20823;2,75843
2853,15708;2,76113
2851,10592;2,75489
2849,05476;2,74345
2847,00361;2,73169
2844,95245;2,72422
2842,9013;2,71645
2840,85014;2,70094
2838,79899;2,68869
2836,74783;2,68828
2834,69668;2,68687
2832,64552;2,67729
2830,59437;2,66881
2828,54321;2,66618
2826,49206;2,66539
2824,4409;2,66483
2822,38975;2,66327
2820,33859;2,65649
2818,28743;2,64437
2816,23628;2,63355
2814,18512;2,62678
2812,13397;2,62217
2810,08281;2,61949
2808,03166;2,61904
2805,9805;2,62131
2803,92935;2,6236
2801,87819;2,62203
2799,82704;2,61776
2797,77588;2,61043
2795,72473;2,60166
2793,67357;2,59707
2791,62242;2,5963
2789,57126;2,59522
2787,5201;2,59242
2785,46895;2,59006
2783,41779;2,58791
2781,36664;2,58411
2779,31548;2,57999
2777,26433;2,57077
2775,21317;2,55744
2773,16202;2,55178
2771,11086;2,55501
2769,05971;2,55758
2767,00855;2,55529
2764,9574;2,54961
2762,90624;2,54373
2760,85509;2,54203
2758,80393;2,54337
2756,75277;2,54411
2754,70162;2,54217
2752,65046;2,5392
2750,59931;2,53799
2748,54815;2,53569
2746,497;2,53133
2744,44584;2,52723
2742,39469;2,52238
2740,34353;2,51542
2738,29238;2,51041
2736,24122;2,50872
2734,19007;2,5071
2732,13891;2,50474
2730,08776;2,50134
2728,0366;2,49806
2725,98544;2,49628
2723,93429;2,49623
2721,88313;2,4988
2719,83198;2,50221
2717,78082;2,50187
2715,72967;2,49674
2713,67851;2,48979
2711,62736;2,48531
2709,5762;2,48605
2707,52505;2,48818
2705,47389;2,48714
2703,42274;2,48333
2701,37158;2,47873
2699,32043;2,47745
2697,26927;2,48136
2695,21811;2,48216
2693,16696;2,47684
2691,1158;2,47374
2689,06465;2,47407
2687,01349;2,47328
2684,96234;2,47112
2682,91118;2,46945
2680,86003;2,46876
2678,80887;2,46717
2676,75772;2,46394
2674,70656;2,46168
2672,65541;2,46058
2670,60425;2,46046
2668,55309;2,46194
2666,50194;2,46332
2664,45078;2,46523
2662,39963;2,46831
2660,34847;2,46962
2658,29732;2,46714
2656,24616;2,46483
2654,19501;2,4675
2652,14385;2,46917
2650,0927;2,46671
2648,04154;2,46813
2645,99039;2,47112
2643,93923;2,47184
2641,88808;2,47667
2639,83692;2,48417
2637,78576;2,49005
2635,73461;2,49722
2633,68345;2,50687
2631,6323;2,51541
2629,58114;2,52161
2627,52999;2,5264
2625,47883;2,5297
2623,42768;2,53438
2621,37652;2,54092
2619,32537;2,54586
2617,27421;2,54918
2615,22306;2,55206
2613,1719;2,5547
2611,12075;2,5583
2609,06959;2,56488
2607,01843;2,57332
2604,96728;2,5786
2602,91612;2,57735
2600,86497;2,57492
2598,81381;2,5778
2596,76266;2,58223
2594,7115;2,58364
2592,66035;2,58375
2590,60919;2,58493
2588,55804;2,58851
2586,50688;2,59026
2584,45573;2,58796
2582,40457;2,58629
2580,35342;2,58405
2578,30226;2,58126
2576,2511;2,58449
2574,19995;2,59133
2572,14879;2,59334
2570,09764;2,59029
2568,04648;2,58948
2565,99533;2,59195
2563,94417;2,59346
2561,89302;2,59463
2559,84186;2,5951
2557,79071;2,59376
2555,73955;2,5904
2553,6884;2,58787
2551,63724;2,59069
2549,58609;2,59507
2547,53493;2,59777
2545,48377;2,60034
2543,43262;2,6035
2541,38146;2,60819
2539,33031;2,61361
2537,27915;2,61826
2535,228;2,62383
2533,17684;2,63138
2531,12569;2,63699
2529,07453;2,6392
2527,02338;2,64359
2524,97222;2,65207
2522,92107;2,66093
2520,86991;2,66769
2518,81876;2,67107
2516,7676;2,67278
2514,71644;2,67509
2512,66529;2,67701
2510,61413;2,6766
2508,56298;2,67133
2506,51182;2,66255
2504,46067;2,6542
2502,40951;2,64816
2500,35836;2,64301
2498,3072;2,63371
2496,25605;2,62188
2494,20489;2,60887
2492,15374;2,59278
2490,10258;2,57878
2488,05143;2,56657
2486,00027;2,55324
2483,94911;2,5437
2481,89796;2,53818
2479,8468;2,53073
2477,79565;2,51921
2475,74449;2,50516
2473,69334;2,49148
2471,64218;2,4794
2469,59103;2,46736
2467,53987;2,45655
2465,48872;2,44866
2463,43756;2,44199
2461,38641;2,43588
2459,33525;2,43183
2457,2841;2,42806
2455,23294;2,42186
2453,18178;2,41413
2451,13063;2,40759
2449,07947;2,40301
2447,02832;2,39769
2444,97716;2,39225
2442,92601;2,38755
2440,87485;2,38168
2438,8237;2,37559
2436,77254;2,37079
2434,72139;2,36795
2432,67023;2,36526
2430,61908;2,36205
2428,56792;2,36095
2426,51677;2,36013
2424,46561;2,3561
2422,41445;2,34968
2420,3633;2,34454
2418,31214;2,34276
2416,26099;2,34234
2414,20983;2,34074
2412,15868;2,33801
2410,10752;2,3361
2408,05637;2,3338
2406,00521;2,32851
2403,95406;2,32409
2401,9029;2,32326
2399,85175;2,32267
2397,80059;2,3203
2395,74944;2,31863
2393,69828;2,3197
2391,64712;2,32077
2389,59597;2,31936
2387,54481;2,31825
2385,49366;2,3198
2383,4425;2,32305
2381,39135;2,32713
2379,34019;2,33049
2377,28904;2,33229
2375,23788;2,33495
2373,18673;2,34257
2371,13557;2,35531
2369,08442;2,36536
2367,03326;2,37115
2364,9821;2,37446
2362,93095;2,36708
2360,87979;2,35857
2358,82864;2,36545
2356,77748;2,37586
2354,72633;2,37381
2352,67517;2,36427
2350,62402;2,35595
2348,57286;2,35334
2346,52171;2,36098
2344,47055;2,37577
2342,4194;2,38129
2340,36824;2,37424
2338,31709;2,36586
2336,26593;2,36102
2334,21477;2,35816
2332,16362;2,35681
2330,11246;2,35595
2328,06131;2,352
2326,01015;2,34928
2323,959;2,35124
2321,90784;2,35161
2319,85669;2,34806
2317,80553;2,34465
2315,75438;2,34335
2313,70322;2,34272
2311,65207;2,33995
2309,60091;2,3359
2307,54976;2,33361
2305,4986;2,33271
2303,44744;2,33144
2301,39629;2,33057
2299,34513;2,32947
2297,29398;2,32701
2295,24282;2,32393
2293,19167;2,32042
2291,14051;2,3179
2289,08936;2,31569
2287,0382;2,31311
2284,98705;2,31297
2282,93589;2,31432
2280,88474;2,31459
2278,83358;2,31456
2276,78243;2,3156
2274,73127;2,31738
2272,68011;2,31857
2270,62896;2,3201
2268,5778;2,32308
2266,52665;2,32565
2264,47549;2,32631
2262,42434;2,32654
2260,37318;2,32803
2258,32203;2,33011
2256,27087;2,33212
2254,21972;2,33372
2252,16856;2,33381
2250,11741;2,33279
2248,06625;2,33438
2246,0151;2,33936
2243,96394;2,34276
2241,91278;2,34449
2239,86163;2,347
2237,81047;2,34906
2235,75932;2,35003
2233,70816;2,35084
2231,65701;2,35334
2229,60585;2,35647
2227,5547;2,35782
2225,50354;2,35908
2223,45239;2,36169
2221,40123;2,36393
2219,35008;2,36421
2217,29892;2,36375
2215,24777;2,36451
2213,19661;2,36631
2211,14545;2,36865
2209,0943;2,37072
2207,04314;2,37262
2204,99199;2,37636
2202,94083;2,37946
2200,88968;2,37876
2198,83852;2,3782
2196,78737;2,38068
2194,73621;2,38204
2192,68506;2,3806
2190,6339;2,38004
2188,58275;2,38109
2186,53159;2,3825
2184,48044;2,38498
2182,42928;2,38827
2180,37812;2,39163
2178,32697;2,39532
2176,27581;2,39684
2174,22466;2,3953
2172,1735;2,39479
2170,12235;2,39703
2168,07119;2,40047
2166,02004;2,40501
2163,96888;2,4098
2161,91773;2,41434
2159,86657;2,42176
2157,81542;2,43213
2155,76426;2,44224
2153,71311;2,44958
2151,66195;2,45456
2149,61079;2,46032
2147,55964;2,46618
2145,50848;2,46905
2143,45733;2,47
2141,40617;2,47161
2139,35502;2,47171
2137,30386;2,46891
2135,25271;2,46632
2133,20155;2,46599
2131,1504;2,46486
2129,09924;2,45961
2127,04809;2,45271
2124,99693;2,44656
2122,94578;2,44043
2120,89462;2,43433
2118,84346;2,42838
2116,79231;2,42185
2114,74115;2,4159
2112,69;2,41083
2110,63884;2,40531
2108,58769;2,40214
2106,53653;2,40286
2104,48538;2,40328
2102,43422;2,40114
2100,38307;2,39924
2098,33191;2,40031
2096,28076;2,40235
2094,2296;2,40193
2092,17844;2,40057
2090,12729;2,40234
2088,07613;2,40615
2086,02498;2,40782
2083,97382;2,4088
2081,92267;2,41051
2079,87151;2,40947
2077,82036;2,40689
2075,7692;2,40682
2073,71805;2,40873
2071,66689;2,4102
2069,61574;2,41051
2067,56458;2,41029
2065,51343;2,41095
2063,46227;2,41462
2061,41111;2,4193
2059,35996;2,42068
2057,3088;2,41997
2055,25765;2,41995
2053,20649;2,42079
2051,15534;2,42353
2049,10418;2,42588
2047,05303;2,42513
2045,00187;2,42641
2042,95072;2,43119
2040,89956;2,4326
2038,84841;2,4303
2036,79725;2,42937
2034,7461;2,42945
2032,69494;2,42973
2030,64378;2,43157
2028,59263;2,43463
2026,54147;2,43667
2024,49032;2,43684
2022,43916;2,43752
2020,38801;2,43915
2018,33685;2,4403
2016,2857;2,43976
2014,23454;2,43854
2012,18339;2,44159
2010,13223;2,44862
2008,08108;2,45254
2006,02992;2,45101
2003,97877;2,44962
2001,92761;2,45074
1999,87645;2,45139
1997,8253;2,45157
1995,77414;2,4539
1993,72299;2,45839
1991,67183;2,46148
1989,62068;2,46014
1987,56952;2,45559
1985,51837;2,45394
1983,46721;2,45918
1981,41606;2,46814
1979,3649;2,47619
1977,31375;2,47948
1975,26259;2,47782
1973,21144;2,47529
1971,16028;2,47427
1969,10912;2,47637
1967,05797;2,48306
1965,00681;2,49248
1962,95566;2,50282
1960,9045;2,51046
1958,85335;2,51131
1956,80219;2,50982
1954,75104;2,50855
1952,69988;2,5034
1950,64873;2,49784
1948,59757;2,49923
1946,54642;2,50592
1944,49526;2,51143
1942,44411;2,51368
1940,39295;2,51593
1938,34179;2,5187
1936,29064;2,51899
1934,23948;2,5184
1932,18833;2,51942
1930,13717;2,52053
1928,08602;2,52126
1926,03486;2,52522
1923,98371;2,53107
1921,93255;2,53142
1919,8814;2,53136
1917,83024;2,5364
1915,77909;2,53907
1913,72793;2,53849
1911,67678;2,53896
1909,62562;2,5403
1907,57446;2,54252
1905,52331;2,54446
1903,47215;2,54486
1901,421;2,54732
1899,36984;2,55148
1897,31869;2,55484
1895,26753;2,55987
1893,21638;2,56574
1891,16522;2,57049
1889,11407;2,57317
1887,06291;2,57338
1885,01176;2,57375
1882,9606;2,57565
1880,90945;2,57916
1878,85829;2,58086
1876,80713;2,58033
1874,75598;2,58333
1872,70482;2,58971
1870,65367;2,5976
1868,60251;2,60522
1866,55136;2,60867
1864,5002;2,61254
1862,44905;2,61879
1860,39789;2,62297
1858,34674;2,62515
1856,29558;2,62743
1854,24443;2,6307
1852,19327;2,63632
1850,14212;2,64408
1848,09096;2,65578
1846,0398;2,66962
1843,98865;2,67533
1841,93749;2,67316
1839,88634;2,67252
1837,83518;2,67566
1835,78403;2,68231
1833,73287;2,69274
1831,68172;2,70615
1829,63056;2,71611
1827,57941;2,72103
1825,52825;2,72714
1823,4771;2,73263
1821,42594;2,73625
1819,37478;2,74155
1817,32363;2,75228
1815,27247;2,76958
1813,22132;2,78859
1811,17016;2,80165
1809,11901;2,80781
1807,06785;2,81554
1805,0167;2,82747
1802,96554;2,84114
1800,91439;2,85267
1798,86323;2,85983
1796,81208;2,86686
1794,76092;2,87645
1792,70977;2,8886
1790,65861;2,88919
1788,60745;2,8699
1786,5563;2,84679
1784,50514;2,83338
1782,45399;2,83099
1780,40283;2,82856
1778,35168;2,82306
1776,30052;2,82763
1774,24937;2,83871
1772,19821;2,83755
1770,14706;2,83146
1768,0959;2,83346
1766,04475;2,83569
1763,99359;2,83908
1761,94244;2,84593
1759,89128;2,84839
1757,84012;2,84494
1755,78897;2,8429
1753,73781;2,85477
1751,68666;2,87895
1749,6355;2,89269
1747,58435;2,88765
1745,53319;2,88245
1743,48204;2,8823
1741,43088;2,88734
1739,37973;2,89365
1737,32857;2,89222
1735,27742;2,89609
1733,22626;2,91609
1731,17511;2,92341
1729,12395;2,91868
1727,07279;2,92154
1725,02164;2,9316
1722,97048;2,94356
1720,91933;2,95916
1718,86817;2,97453
1716,81702;2,97793
1714,76586;2,97951
1712,71471;2,99471
1710,66355;3,00597
1708,6124;3,00246
1706,56124;3,00212
1704,51009;3,01225
1702,45893;3,02707
1700,40778;3,06932
1698,35662;3,1279
1696,30546;3,14287
1694,25431;3,13225
1692,20315;3,1166
1690,152;3,1055
1688,10084;3,11179
1686,04969;3,12468
1683,99853;3,12902
1681,94738;3,12855
1679,89622;3,11624
1677,84507;3,09716
1675,79391;3,08011
1673,74276;3,07628
1671,6916;3,09233
1669,64045;3,10152
1667,58929;3,08365
1665,53813;3,06289
1663,48698;3,04459
1661,43582;3,02058
1659,38467;3,00215
1657,33351;3,00782
1655,28236;3,04095
1653,2312;3,06415
1651,18005;3,02143
1649,12889;2,9819
1647,07774;2,95506
1645,02658;2,94249
1642,97543;2,93751
1640,92427;2,9263
1638,87312;2,91711
1636,82196;2,92201
1634,7708;2,92195
1632,71965;2,90749
1630,66849;2,89669
1628,61734;2,89341
1626,56618;2,89508
1624,51503;2,89922
1622,46387;2,89756
1620,41272;2,88903
1618,36156;2,88301
1616,31041;2,87953
1614,25925;2,87657
1612,2081;2,87213
1610,15694;2,87091
1608,10579;2,87972
1606,05463;2,88793
1604,00347;2,88375
1601,95232;2,87463
1599,90116;2,87295
1597,85001;2,87343
1595,79885;2,87027
1593,7477;2,87279
1591,69654;2,88127
1589,64539;2,8905
1587,59423;2,89787
1585,54308;2,89905
1583,49192;2,89863
1581,44077;2,89964
1579,38961;2,89942
1577,33846;2,89922
1575,2873;2,89477
1573,23614;2,89002
1571,18499;2,8892
1569,13383;2,88775
1567,08268;2,88799
1565,03152;2,8917
1562,98037;2,8971
1560,92921;2,90883
1558,87806;2,90844
1556,8269;2,87379
1554,77575;2,85362
1552,72459;2,8429
1550,67344;2,82909
1548,62228;2,82193
1546,57113;2,83387
1544,51997;2,85029
1542,46881;2,85079
1540,41766;2,833
1538,3665;2,8079
1536,31535;2,79547
1534,26419;2,79081
1532,21304;2,78554
1530,16188;2,78178
1528,11073;2,7822
1526,05957;2,7863
1524,00842;2,79787
1521,95726;2,81386
1519,90611;2,813
1517,85495;2,7911
1515,80379;2,76469
1513,75264;2,75066
1511,70148;2,74959
1509,65033;2,75541
1507,59917;2,75565
1505,54802;2,72019
1503,49686;2,69139
1501,44571;2,68508
1499,39455;2,68989
1497,3434;2,68961
1495,29224;2,67453
1493,24109;2,66224
1491,18993;2,66015
1489,13878;2,65755
1487,08762;2,65125
1485,03646;2,65006
1482,98531;2,65246
1480,93415;2,65388
1478,883;2,65563
1476,83184;2,66701
1474,78069;2,6925
1472,72953;2,7154
1470,67838;2,71919
1468,62722;2,72082
1466,57607;2,72904
1464,52491;2,73371
1462,47376;2,7352
1460,4226;2,75022
1458,37145;2,77957
1456,32029;2,79146
1454,26913;2,78248
1452,21798;2,77886
1450,16682;2,77318
1448,11567;2,76057
1446,06451;2,75072
1444,01336;2,74842
1441,9622;2,75099
1439,91105;2,75328
1437,85989;2,75014
1435,80874;2,7446
1433,75758;2,7406
1431,70643;2,73299
1429,65527;2,72621
1427,60412;2,73067
1425,55296;2,73771
1423,5018;2,73474
1421,45065;2,7307
1419,39949;2,72958
1417,34834;2,71974
1415,29718;2,70995
1413,24603;2,70553
1411,19487;2,701
1409,14372;2,69687
1407,09256;2,6996
1405,04141;2,71137
1402,99025;2,72462
1400,9391;2,73285
1398,88794;2,74085
1396,83679;2,75369
1394,78563;2,7619
1392,73447;2,76285
1390,68332;2,76778
1388,63216;2,77795
1386,58101;2,78948
1384,52985;2,7977
1382,4787;2,80044
1380,42754;2,79946
1378,37639;2,79635
1376,32523;2,79514
1374,27408;2,80037
1372,22292;2,80595
1370,17177;2,80923
1368,12061;2,81528
1366,06946;2,82198
1364,0183;2,82518
1361,96714;2,82332
1359,91599;2,81893
1357,86483;2,81707
1355,81368;2,81787
1353,76252;2,82357
1351,71137;2,83231
1349,66021;2,83447
1347,60906;2,83363
1345,5579;2,83775
1343,50675;2,84421
1341,45559;2,84563
1339,40444;2,83969
1337,35328;2,83592
1335,30213;2,83686
1333,25097;2,8402
1331,19981;2,84328
1329,14866;2,84058
1327,0975;2,83773
1325,04635;2,84535
1322,99519;2,85625
1320,94404;2,86191
1318,89288;2,86399
1316,84173;2,86426
1314,79057;2,86326
1312,73942;2,85886
1310,68826;2,85742
1308,63711;2,86392
1306,58595;2,87076
1304,5348;2,87309
1302,48364;2,86775
1300,43248;2,85632
1298,38133;2,84828
1296,33017;2,84836
1294,27902;2,8535
1292,22786;2,85686
1290,17671;2,85812
1288,12555;2,86361
1286,0744;2,8726
1284,02324;2,87587
1281,97209;2,86978
1279,92093;2,86354
1277,86978;2,85812
1275,81862;2,84968
1273,76747;2,84924
1271,71631;2,86283
1269,66515;2,87766
1267,614;2,87904
1265,56284;2,87524
1263,51169;2,87631
1261,46053;2,87667
1259,40938;2,87727
1257,35822;2,88473
1255,30707;2,89512
1253,25591;2,8997
1251,20476;2,8978
1249,1536;2,89805
1247,10245;2,90835
1245,05129;2,91912
1243,00013;2,9178
1240,94898;2,91206
1238,89782;2,91326
1236,84667;2,91159
1234,79551;2,90298
1232,74436;2,90421
1230,6932;2,91204
1228,64205;2,91653
1226,59089;2,92116
1224,53974;2,9214
1222,48858;2,91509
1220,43743;2,90799
1218,38627;2,89619
1216,33512;2,88591
1214,28396;2,88525
1212,2328;2,88602
1210,18165;2,88951
1208,13049;2,89975
1206,07934;2,91065
1204,02818;2,91585
1201,97703;2,91371
1199,92587;2,90885
1197,87472;2,91485
1195,82356;2,92875
1193,77241;2,93819
1191,72125;2,94809
1189,6701;2,94892
1187,61894;2,93768
1185,56779;2,93563
1183,51663;2,94506
1181,46547;2,95524
1179,41432;2,96322
1177,36316;2,96811
1175,31201;2,97212
1173,26085;2,9764
1171,2097;2,98107
1169,15854;2,98643
1167,10739;2,99053
1165,05623;2,99624
1163,00508;3,00454
1160,95392;3,01135
1158,90277;3,01528
1156,85161;3,01515
1154,80046;3,01335
1152,7493;3,01043
1150,69814;3,01565
1148,64699;3,03168
1146,59583;3,04362
1144,54468;3,04478
1142,49352;3,03868
1140,44237;3,0418
1138,39121;3,06578
1136,34006;3,09397
1134,2889;3,10443
1132,23775;3,10485
1130,18659;3,11802
1128,13544;3,13567
1126,08428;3,13564
1124,03313;3,1328
1121,98197;3,12602
1119,93081;3,1011
1117,87966;3,0842
1115,8285;3,09271
1113,77735;3,1082
1111,72619;3,12628
1109,67504;3,14483
1107,62388;3,13759
1105,57273;3,11131
1103,52157;3,09315
1101,47042;3,0827
1099,41926;3,07269
1097,36811;3,06373
1095,31695;3,04996
1093,2658;3,03717
1091,21464;3,04405
1089,16348;3,05632
1087,11233;3,04119
1085,06117;3,02105
1083,01002;3,01029
1080,95886;2,98979
1078,90771;2,96462
1076,85655;2,94203
1074,8054;2,91384
1072,75424;2,87875
1070,70309;2,85041
1068,65193;2,82964
1066,60078;2,79873
1064,54962;2,75654
1062,49847;2,71478
1060,44731;2,67258
1058,39615;2,62866
1056,345;2,59194
1054,29384;2,56404
1052,24269;2,53507
1050,19153;2,50495
1048,14038;2,48251
1046,08922;2,46793
1044,03807;2,45652
1041,98691;2,44356
1039,93576;2,42983
1037,8846;2,42253
1035,83345;2,42056
1033,78229;2,42075
1031,73114;2,43013
1029,67998;2,44809
1027,62882;2,46668
1025,57767;2,48756
1023,52651;2,51151
1021,47536;2,53089
1019,4242;2,53977
1017,37305;2,53821
1015,32189;2,5241
1013,27074;2,50163
1011,21958;2,48463
1009,16843;2,48078
1007,11727;2,48759
1005,06612;2,49626
1003,01496;2,50221
1000,96381;2,51259
998,91265;2,53253
996,86149;2,55415
994,81034;2,57097
992,75918;2,58529
990,70803;2,59836
988,65687;2,61015
986,60572;2,62163
984,55456;2,63679
982,50341;2,65693
980,45225;2,67602
978,4011;2,68922
976,34994;2,69915
974,29879;2,70995
972,24763;2,72415
970,19647;2,73679
968,14532;2,74247
966,09416;2,74811
964,04301;2,75782
961,99185;2,77235
959,9407;2,79199
957,88954;2,80985
955,83839;2,82238
953,78723;2,83285
951,73608;2,84938
949,68492;2,8694
947,63377;2,87178
945,58261;2,86306
943,53146;2,86451
941,4803;2,86651
939,42914;2,86082
937,37799;2,85324
935,32683;2,84716
933,27568;2,85246
931,22452;2,86283
929,17337;2,86003
927,12221;2,84942
925,07106;2,83614
923,0199;2,81487
920,96875;2,79684
918,91759;2,788
916,86644;2,77092
914,81528;2,74144
912,76413;2,71358
910,71297;2,69681
908,66181;2,69549
906,61066;2,70703
904,5595;2,71885
902,50835;2,71621
900,45719;2,70887
898,40604;2,71471
896,35488;2,72659
894,30373;2,73458
892,25257;2,73294
890,20142;2,71396
888,15026;2,69691
886,09911;2,70655
884,04795;2,73346
881,9968;2,75526
879,94564;2,76421
877,89448;2,76945
875,84333;2,77903
873,79217;2,78714
871,74102;2,79347
869,68986;2,8
867,63871;2,81124
865,58755;2,82354
863,5364;2,8245
861,48524;2,82153
859,43409;2,82051
857,38293;2,82175
855,33178;2,83101
853,28062;2,84223
851,22947;2,85533
849,17831;2,88327
847,12715;2,90822
845,076;2,90507
843,02484;2,88199
840,97369;2,85819
838,92253;2,8611
836,87138;2,88695
834,82022;2,89943
832,76907;2,90145
830,71791;2,91354
828,66676;2,91674
826,6156;2,9177
824,56445;2,93759
822,51329;2,92909
820,46214;2,90199
818,41098;2,91838
816,35982;2,95258
814,30867;2,93988
812,25751;2,93307
810,20636;2,98331
808,1552;3,02132
806,10405;2,99213
804,05289;2,94373
802,00174;2,91343
799,95058;2,8956
797,89943;2,88929
795,84827;2,89647
793,79712;2,90262
791,74596;2,907
789,69481;2,911
787,64365;2,90461
785,59249;2,89891
783,54134;2,90214
781,49018;2,90258
779,43903;2,90284
777,38787;2,91415
775,33672;2,93619
773,28556;2,94801
771,23441;2,92967
769,18325;2,91061
767,1321;2,91611
765,08094;2,93521
763,02979;2,94578
760,97863;2,94794
758,92748;2,9638
756,87632;2,97158
754,82516;2,94595
752,77401;2,92923
750,72285;2,95036
748,6717;2,98345
746,62054;2,98955
744,56939;2,98013
742,51823;2,97704
740,46708;2,96647
738,41592;2,95413
736,36477;2,97689
734,31361;3,0224
732,26246;3,04333
730,2113;3,03487
728,16015;3,01983
726,10899;3,02555
724,05783;3,05312
722,00668;3,06494
719,95552;3,06917
717,90437;3,06381
715,85321;3,02831
713,80206;3,01277
711,7509;3,04673
709,69975;3,11189
707,64859;3,14854
705,59744;3,12104
703,54628;3,06544
701,49513;3,02413
699,44397;3,00363
697,39281;2,99766
695,34166;2,98295
693,2905;2,94972
691,23935;2,92381
689,18819;2,93874
687,13704;2,98585
685,08588;3,02105
683,03473;3,01341
680,98357;2,98895
678,93242;2,97527
676,88126;2,95613
674,83011;2,94187
672,77895;2,9496
670,7278;2,95988
668,67664;2,96407
666,62548;2,96804
664,57433;2,95717
662,52317;2,93592
660,47202;2,93155
658,42086;2,96725
656,36971;3,00021
654,31855;3,00635
652,2674;3,03106
650,21624;3,03712
648,16509;2,98696
646,11393;2,93886
644,06278;2,91603
642,01162;2,90768
639,96047;2,91808
637,90931;2,93273
635,85815;2,92562
633,807;2,92692
631,75584;2,95802
629,70469;2,9851
627,65353;2,98904
625,60238;2,96888
623,55122;2,91746
621,50007;2,88149
619,44891;2,88354
617,39776;2,89171
615,3466;2,90218
613,29545;2,89485
611,24429;2,84455
609,19314;2,79692
607,14198;2,78238
605,09082;2,78086
603,03967;2,76261
600,98851;2,74038
598,93736;2,72353
596,8862;2,71411
594,83505;2,72074
592,78389;2,72692
590,73274;2,69411
588,68158;2,6541
586,63043;2,65219
584,57927;2,67089
582,52812;2,66981
580,47696;2,64616
578,42581;2,6134
576,37465;2,57925
574,32349;2,56233
572,27234;2,55341
570,22118;2,5178
568,17003;2,47925
566,11887;2,46994
564,06772;2,47392
562,01656;2,46657
559,96541;2,4545
557,91425;2,44997
555,8631;2,44231
553,81194;2,42757
551,76079;2,42071
549,70963;2,40732
547,65848;2,37031
545,60732;2,34458
543,55616;2,34407
541,50501;2,34534
539,45385;2,34473
537,4027;2,34852
535,35154;2,35375
533,30039;2,35231
531,24923;2,34999
529,19808;2,36517
527,14692;2,39244
525,09577;2,40864
523,04461;2,41465
520,99346;2,43356
518,9423;2,45941
516,89115;2,46949
514,83999;2,4799
512,78883;2,50589
510,73768;2,53268
508,68652;2,54037
506,63537;2,53912
504,58421;2,55715
502,53306;2,59169
500,4819;2,61693
498,43075;2,61126
496,37959;2,58396
494,32844;2,57058
492,27728;2,57758
490,22613;2,58778
488,17497;2,59362
486,12382;2,56013
484,07266;2,47082
482,0215;2,38533
479,97035;2,3361
477,91919;2,30665
475,86804;2,27162
473,81688;2,23889
471,76573;2,23382
469,71457;2,24593
467,66342;2,2562
465,61226;2,27285
463,56111;2,29203
461,50995;2,30089
459,4588;2,29836
457,40764;2,3084
455,35649;2,33783
453,30533;2,35693
451,25417;2,36321
449,20302;2,38049
447,15186;2,4122
445,10071;2,42922
443,04955;2,44642
440,9984;2,46853
438,94724;2,4635
436,89609;2,44254
434,84493;2,40235
432,79378;2,35626
430,74262;2,32368
428,69147;2,29198
426,64031;2,26992
424,58916;2,27459
422,538;2,31374
420,48684;2,38593
418,43569;2,43811
416,38453;2,43818
414,33338;2,45166
412,28222;2,45085
410,23107;2,4468
408,17991;2,43415
406,12876;2,4054
404,0776;2,40614
402,02645;2,45167
399,97529;2,48393
