3997,70175;1,7908
3995,6506;1,79209
3993,59944;1,7928
3991,54829;1,79289
3989,49713;1,79303
3987,44598;1,79379
3985,39482;1,79541
3983,34367;1,79727
3981,29251;1,79847
3979,24136;1,79956
3977,1902;1,8018
3975,13905;1,80543
3973,08789;1,80919
3971,03673;1,8121
3968,98558;1,81471
3966,93442;1,81824
3964,88327;1,82335
3962,83211;1,82871
3960,78096;1,83323
3958,7298;1,83861
3956,67865;1,84488
3954,62749;1,84986
3952,57634;1,85384
3950,52518;1,85723
3948,47403;1,85794
3946,42287;1,85626
3944,37172;1,85545
3942,32056;1,85603
3940,2694;1,85572
3938,21825;1,85323
3936,16709;1,84963
3934,11594;1,84626
3932,06478;1,84181
3930,01363;1,83526
3927,96247;1,82785
3925,91132;1,81966
3923,86016;1,81138
3921,80901;1,80564
3919,75785;1,8021
3917,7067;1,79643
3915,65554;1,78706
3913,60439;1,77823
3911,55323;1,7723
3909,50207;1,76812
3907,45092;1,76499
3905,39976;1,76198
3903,34861;1,7583
3901,29745;1,75466
3899,2463;1,75053
3897,19514;1,74636
3895,14399;1,74453
3893,09283;1,74402
3891,04168;1,74233
3888,99052;1,74125
3886,93937;1,7419
3884,88821;1,74129
3882,83706;1,73935
3880,7859;1,73652
3878,73474;1,7334
3876,68359;1,73375
3874,63243;1,73647
3872,58128;1,73791
3870,53012;1,73669
3868,47897;1,7341
3866,42781;1,73374
3864,37666;1,73381
3862,3255;1,73132
3860,27435;1,72828
3858,22319;1,72628
3856,17204;1,72461
3854,12088;1,7224
3852,06973;1,72065
3850,01857;1,72206
3847,96741;1,72519
3845,91626;1,72716
3843,8651;1,72751
3841,81395;1,72768
3839,76279;1,72795
3837,71164;1,72667
3835,66048;1,72416
3833,60933;1,72234
3831,55817;1,72173
3829,50702;1,72215
3827,45586;1,72265
3825,40471;1,72342
3823,35355;1,72611
3821,3024;1,729
3819,25124;1,73027
3817,20008;1,73008
3815,14893;1,72652
3813,09777;1,72321
3811,04662;1,72391
3808,99546;1,72641
3806,94431;1,72753
3804,89315;1,72841
3802,842;1,73126
3800,79084;1,73368
3798,73969;1,73553
3796,68853;1,7373
3794,63738;1,73757
3792,58622;1,73726
3790,53506;1,73778
3788,48391;1,73994
3786,43275;1,74288
3784,3816;1,74488
3782,33044;1,74684
3780,27929;1,74904
3778,22813;1,74943
3776,17698;1,74922
3774,12582;1,75145
3772,07467;1,75591
3770,02351;1,75927
3767,97236;1,75999
3765,9212;1,76006
3763,87005;1,76101
3761,81889;1,76437
3759,76773;1,76903
3757,71658;1,77163
3755,66542;1,77295
3753,61427;1,77611
3751,56311;1,78098
3749,51196;1,78478
3747,4608;1,78814
3745,40965;1,79158
3743,35849;1,79433
3741,30734;1,79938
3739,25618;1,80778
3737,20503;1,81789
3735,15387;1,82634
3733,10272;1,83009
3731,05156;1,83315
3729,0004;1,84023
3726,94925;1,85106
3724,89809;1,86296
3722,84694;1,87531
3720,79578;1,88961
3718,74463;1,90665
3716,69347;1,92578
3714,64232;1,94802
3712,59116;1,97874
3710,54001;2,01808
3708,48885;2,05562
3706,4377;2,08968
3704,38654;2,12993
3702,33539;2,18276
3700,28423;2,241
3698,23307;2,28846
3696,18192;2,315
3694,13076;2,32166
3692,07961;2,31509
3690,02845;2,29552
3687,9773;2,26357
3685,92614;2,23468
3683,87499;2,21709
3681,82383;2,208
3679,77268;2,20527
3677,72152;2,2074
3675,67037;2,21126
3673,61921;2,21818
3671,56806;2,23215
3669,5169;2,2462
3667,46574;2,25133
3665,41459;2,25293
3663,36343;2,25962
3661,31228;2,27161
3659,26112;2,28511
3657,20997;2,29861
3655,15881;2,31009
3653,10766;2,31938
3651,0565;2,33371
3649,00535;2,35792
3646,95419;2,3805
3644,90304;2,3924
3642,85188;2,39663
3640,80073;2,3959
3638,74957;2,3906
3636,69841;2,38553
3634,64726;2,38793
3632,5961;2,39748
3630,54495;2,4123
3628,49379;2,43603
3626,44264;2,46206
3624,39148;2,48043
3622,34033;2,49407
3620,28917;2,50481
3618,23802;2,50443
3616,18686;2,49208
3614,13571;2,47675
3612,08455;2,46504
3610,0334;2,4592
3607,98224;2,45449
3605,93108;2,45015
3603,87993;2,4552
3601,82877;2,47072
3599,77762;2,48479
3597,72646;2,49027
3595,67531;2,49288
3593,62415;2,49869
3591,573;2,5073
3589,52184;2,51501
3587,47069;2,51852
3585,41953;2,51774
3583,36838;2,51495
3581,31722;2,51221
3579,26607;2,51114
3577,21491;2,51033
3575,16375;2,50614
3573,1126;2,49746
3571,06144;2,49352
3569,01029;2,50878
3566,95913;2,53532
3564,90798;2,54534
3562,85682;2,53821
3560,80567;2,53248
3558,75451;2,5351
3556,70336;2,53993
3554,6522;2,5407
3552,60105;2,54052
3550,54989;2,54464
3548,49874;2,55317
3546,44758;2,55823
3544,39642;2,5529
3542,34527;2,54564
3540,29411;2,5443
3538,24296;2,5494
3536,1918;2,55941
3534,14065;2,5665
3532,08949;2,56588
3530,03834;2,56609
3527,98718;2,57375
3525,93603;2,58009
3523,88487;2,57922
3521,83372;2,57933
3519,78256;2,58404
3517,73141;2,58881
3515,68025;2,5911
3513,62909;2,59323
3511,57794;2,60204
3509,52678;2,6169
3507,47563;2,62947
3505,42447;2,63939
3503,37332;2,64151
3501,32216;2,63037
3499,27101;2,61886
3497,21985;2,61866
3495,1687;2,62502
3493,11754;2,63144
3491,06639;2,63854
3489,01523;2,64069
3486,96407;2,63156
3484,91292;2,62313
3482,86176;2,62569
3480,81061;2,63281
3478,75945;2,64023
3476,7083;2,64791
3474,65714;2,65012
3472,60599;2,64865
3470,55483;2,65016
3468,50368;2,65136
3466,45252;2,65179
3464,40137;2,65856
3462,35021;2,66774
3460,29906;2,67225
3458,2479;2,67309
3456,19674;2,66769
3454,14559;2,65988
3452,09443;2,65835
3450,04328;2,6617
3447,99212;2,66268
3445,94097;2,65452
3443,88981;2,64521
3441,83866;2,648
3439,7875;2,66419
3437,73635;2,67888
3435,68519;2,67246
3433,63404;2,65639
3431,58288;2,65846
3429,53173;2,67505
3427,48057;2,68687
3425,42941;2,69052
3423,37826;2,68831
3421,3271;2,68289
3419,27595;2,67946
3417,22479;2,6799
3415,17364;2,67685
3413,12248;2,67468
3411,07133;2,6831
3409,02017;2,68671
3406,96902;2,67937
3404,91786;2,6722
3402,86671;2,66761
3400,81555;2,66231
3398,7644;2,65989
3396,71324;2,66731
3394,66208;2,68265
3392,61093;2,68979
3390,55977;2,68146
3388,50862;2,67312
3386,45746;2,67529
3384,40631;2,68236
3382,35515;2,68715
3380,304;2,68518
3378,25284;2,6778
3376,20169;2,67211
3374,15053;2,67226
3372,09938;2,67856
3370,04822;2,68234
3367,99707;2,67334
3365,94591;2,65822
3363,89475;2,65123
3361,8436;2,65701
3359,79244;2,66387
3357,74129;2,66561
3355,69013;2,6642
3353,63898;2,65322
3351,58782;2,64329
3349,53667;2,64951
3347,48551;2,66106
3345,43436;2,6687
3343,3832;2,67283
3341,33205;2,66842
3339,28089;2,65976
3337,22974;2,65957
3335,17858;2,66358
3333,12742;2,65646
3331,07627;2,63882
3329,02511;2,62786
3326,97396;2,6322
3324,9228;2,64176
3322,87165;2,64362
3320,82049;2,64101
3318,76934;2,64068
3316,71818;2,63895
3314,66703;2,63569
3312,61587;2,63423
3310,56472;2,63467
3308,51356;2,63697
3306,46241;2,63618
3304,41125;2,63179
3302,36009;2,63101
3300,30894;2,63243
3298,25778;2,63602
3296,20663;2,64367
3294,15547;2,64635
3292,10432;2,6444
3290,05316;2,64102
3288,00201;2,62996
3285,95085;2,61479
3283,8997;2,61163
3281,84854;2,62625
3279,79739;2,64098
3277,74623;2,63733
3275,69508;2,62135
3273,64392;2,61475
3271,59276;2,62416
3269,54161;2,63351
3267,49045;2,63134
3265,4393;2,62715
3263,38814;2,63146
3261,33699;2,63716
3259,28583;2,63786
3257,23468;2,64113
3255,18352;2,646
3253,13237;2,6442
3251,08121;2,63902
3249,03006;2,63921
3246,9789;2,64473
3244,92775;2,64609
3242,87659;2,63941
3240,82543;2,634
3238,77428;2,63322
3236,72312;2,62878
3234,67197;2,62106
3232,62081;2,61807
3230,56966;2,62124
3228,5185;2,62663
3226,46735;2,62964
3224,41619;2,63101
3222,36504;2,63221
3220,31388;2,63039
3218,26273;2,62702
3216,21157;2,62743
3214,16041;2,63146
3212,10926;2,62662
3210,0581;2,61011
3208,00695;2,59792
3205,95579;2,59588
3203,90464;2,59892
3201,85348;2,60667
3199,80233;2,61427
3197,75117;2,61336
3195,70002;2,607
3193,64886;2,60016
3191,59771;2,59693
3189,54655;2,60292
3187,4954;2,60881
3185,44424;2,60673
3183,39308;2,60404
3181,34193;2,60044
3179,29077;2,59464
3177,23962;2,59016
3175,18846;2,58709
3173,13731;2,58822
3171,08615;2,59202
3169,035;2,59346
3166,98384;2,59209
3164,93269;2,59045
3162,88153;2,58718
3160,83038;2,57831
3158,77922;2,56716
3156,72807;2,56162
3154,67691;2,56268
3152,62575;2,56434
3150,5746;2,56448
3148,52344;2,56442
3146,47229;2,56169
3144,42113;2,55327
3142,36998;2,54583
3140,31882;2,54779
3138,26767;2,5554
3136,21651;2,56126
3134,16536;2,56169
3132,1142;2,55649
3130,06305;2,54824
3128,01189;2,54043
3125,96074;2,53626
3123,90958;2,53509
3121,85842;2,53582
3119,80727;2,53813
3117,75611;2,53976
3115,70496;2,53865
3113,6538;2,53521
3111,60265;2,53248
3109,55149;2,53176
3107,50034;2,52977
3105,44918;2,52473
3103,39803;2,52032
3101,34687;2,52204
3099,29572;2,52424
3097,24456;2,52073
3095,19341;2,51945
3093,14225;2,52243
3091,09109;2,5223
3089,03994;2,51531
3086,98878;2,50615
3084,93763;2,50528
3082,88647;2,51362
3080,83532;2,52041
3078,78416;2,51947
3076,73301;2,51505
3074,68185;2,51142
3072,6307;2,50699
3070,57954;2,50104
3068,52839;2,49696
3066,47723;2,49683
3064,42608;2,49874
3062,37492;2,4984
3060,32376;2,49398
3058,27261;2,48793
3056,22145;2,48429
3054,1703;2,48692
3052,11914;2,49269
3050,06799;2,49405
3048,01683;2,49048
3045,96568;2,48407
3043,91452;2,47738
3041,86337;2,47599
3039,81221;2,48006
3037,76106;2,4874
3035,7099;2,49781
3033,65875;2,50705
3031,60759;2,51147
3029,55643;2,51167
3027,50528;2,50883
3025,45412;2,50762
3023,40297;2,51434
3021,35181;2,52367
3019,30066;2,52829
3017,2495;2,53077
3015,19835;2,53489
3013,14719;2,54045
3011,09604;2,54597
3009,04488;2,5526
3006,99373;2,56073
3004,94257;2,56624
3002,89142;2,57184
3000,84026;2,58512
2998,7891;2,60129
2996,73795;2,61747
2994,68679;2,63872
2992,63564;2,66108
2990,58448;2,68928
2988,53333;2,71789
2986,48217;2,72761
2984,43102;2,72176
2982,37986;2,71611
2980,32871;2,71363
2978,27755;2,71055
2976,2264;2,70534
2974,17524;2,69843
2972,12409;2,69523
2970,07293;2,69701
2968,02177;2,69579
2965,97062;2,68893
2963,91946;2,6842
2961,86831;2,68339
2959,81715;2,6831
2957,766;2,68539
2955,71484;2,68826
2953,66369;2,68614
2951,61253;2,68247
2949,56138;2,67857
2947,51022;2,67044
2945,45907;2,66112
2943,40791;2,65556
2941,35675;2,65551
2939,3056;2,65649
2937,25444;2,65793
2935,20329;2,66486
2933,15213;2,67514
2931,10098;2,68252
2929,04982;2,68216
2926,99867;2,67918
2924,94751;2,67954
2922,89636;2,67494
2920,8452;2,66359
2918,79405;2,65134
2916,74289;2,64161
2914,69174;2,64269
2912,64058;2,6523
2910,58942;2,65457
2908,53827;2,64901
2906,48711;2,64707
2904,43596;2,64983
2902,3848;2,65101
2900,33365;2,65077
2898,28249;2,65548
2896,23134;2,66257
2894,18018;2,6655
2892,12903;2,67021
2890,07787;2,68051
2888,02672;2,69116
2885,97556;2,70097
2883,92441;2,71045
2881,87325;2,72073
2879,82209;2,73171
2877,77094;2,73806
2875,71978;2,74068
2873,66863;2,74038
2871,61747;2,73495
2869,56632;2,72802
2867,51516;2,72067
2865,46401;2,70906
2863,41285;2,69643
2861,3617;2,68922
2859,31054;2,68472
2857,25939;2,68177
2855,20823;2,67994
2853,15708;2,67289
2851,10592;2,66584
2849,05476;2,66338
2847,00361;2,65342
2844,95245;2,63144
2842,9013;2,60954
2840,85014;2,5954
2838,79899;2,58074
2836,74783;2,55714
2834,69668;2,5325
2832,64552;2,51196
2830,59437;2,49367
2828,54321;2,47916
2826,49206;2,46675
2824,4409;2,45435
2822,38975;2,44177
2820,33859;2,42751
2818,28743;2,41294
2816,23628;2,4009
2814,18512;2,39133
2812,13397;2,38307
2810,08281;2,37681
2808,03166;2,37412
2805,9805;2,37224
2803,92935;2,36889
2801,87819;2,36517
2799,82704;2,35975
2797,77588;2,35254
2795,72473;2,34481
2793,67357;2,3354
2791,62242;2,32538
2789,57126;2,31763
2787,5201;2,31092
2785,46895;2,30388
2783,41779;2,29581
2781,36664;2,2869
2779,31548;2,28184
2777,26433;2,27919
2775,21317;2,27511
2773,16202;2,27305
2771,11086;2,27196
2769,05971;2,26749
2767,00855;2,26209
2764,9574;2,25773
2762,90624;2,25381
2760,85509;2,25203
2758,80393;2,25182
2756,75277;2,24966
2754,70162;2,24459
2752,65046;2,24048
2750,59931;2,2401
2748,54815;2,24011
2746,497;2,23744
2744,44584;2,23439
2742,39469;2,23328
2740,34353;2,23289
2738,29238;2,23199
2736,24122;2,23049
2734,19007;2,2294
2732,13891;2,2289
2730,08776;2,22718
2728,0366;2,22555
2725,98544;2,22504
2723,93429;2,22418
2721,88313;2,22415
2719,83198;2,22396
2717,78082;2,22093
2715,72967;2,21789
2713,67851;2,21701
2711,62736;2,21709
2709,5762;2,2175
2707,52505;2,21685
2705,47389;2,21592
2703,42274;2,21693
2701,37158;2,21792
2699,32043;2,21614
2697,26927;2,21412
2695,21811;2,2142
2693,16696;2,21442
2691,1158;2,2162
2689,06465;2,21996
2687,01349;2,22037
2684,96234;2,21846
2682,91118;2,2193
2680,86003;2,22243
2678,80887;2,22515
2676,75772;2,22636
2674,70656;2,22742
2672,65541;2,22883
2670,60425;2,23014
2668,55309;2,23276
2666,50194;2,23556
2664,45078;2,23498
2662,39963;2,23389
2660,34847;2,23771
2658,29732;2,24342
2656,24616;2,247
2654,19501;2,25027
2652,14385;2,25471
2650,0927;2,26023
2648,04154;2,26651
2645,99039;2,2736
2643,93923;2,2825
2641,88808;2,29433
2639,83692;2,30974
2637,78576;2,32924
2635,73461;2,35299
2633,68345;2,37867
2631,6323;2,40281
2629,58114;2,42534
2627,52999;2,44585
2625,47883;2,46197
2623,42768;2,47453
2621,37652;2,48844
2619,32537;2,50638
2617,27421;2,52354
2615,22306;2,5388
2613,1719;2,55588
2611,12075;2,57188
2609,06959;2,58501
2607,01843;2,59485
2604,96728;2,59945
2602,91612;2,60373
2600,86497;2,61034
2598,81381;2,61178
2596,76266;2,60724
2594,7115;2,60589
2592,66035;2,61001
2590,60919;2,61453
2588,55804;2,61711
2586,50688;2,62166
2584,45573;2,63204
2582,40457;2,64079
2580,35342;2,64242
2578,30226;2,64243
2576,2511;2,64153
2574,19995;2,64076
2572,14879;2,64197
2570,09764;2,64139
2568,04648;2,6382
2565,99533;2,63353
2563,94417;2,63272
2561,89302;2,64042
2559,84186;2,65035
2557,79071;2,65621
2555,73955;2,66045
2553,6884;2,6685
2551,63724;2,67502
2549,58609;2,67022
2547,53493;2,66266
2545,48377;2,66609
2543,43262;2,68048
2541,38146;2,697
2539,33031;2,71053
2537,27915;2,72133
2535,228;2,73566
2533,17684;2,76083
2531,12569;2,78976
2529,07453;2,81098
2527,02338;2,8265
2524,97222;2,84114
2522,92107;2,85013
2520,86991;2,85686
2518,81876;2,86034
2516,7676;2,8525
2514,71644;2,8467
2512,66529;2,85147
2510,61413;2,85591
2508,56298;2,84933
2506,51182;2,83189
2504,46067;2,80913
2502,40951;2,78802
2500,35836;2,77227
2498,3072;2,75161
2496,25605;2,72332
2494,20489;2,70039
2492,15374;2,68884
2490,10258;2,67901
2488,05143;2,66174
2486,00027;2,64286
2483,94911;2,62472
2481,89796;2,60079
2479,8468;2,57301
2477,79565;2,54433
2475,74449;2,51534
2473,69334;2,48896
2471,64218;2,46458
2469,59103;2,44103
2467,53987;2,42258
2465,48872;2,41027
2463,43756;2,39744
2461,38641;2,38087
2459,33525;2,36299
2457,2841;2,3468
2455,23294;2,33393
2453,18178;2,32337
2451,13063;2,31394
2449,07947;2,30498
2447,02832;2,29571
2444,97716;2,28671
2442,92601;2,27789
2440,87485;2,269
2438,8237;2,26117
2436,77254;2,25601
2434,72139;2,25194
2432,67023;2,24516
2430,61908;2,2363
2428,56792;2,22826
2426,51677;2,22201
2424,46561;2,21683
2422,41445;2,21234
2420,3633;2,2085
2418,31214;2,20465
2416,26099;2,20143
2414,20983;2,19868
2412,15868;2,19503
2410,10752;2,19104
2408,05637;2,18738
2406,00521;2,18285
2403,95406;2,17759
2401,9029;2,17436
2399,85175;2,17317
2397,80059;2,17185
2395,74944;2,16977
2393,69828;2,16705
2391,64712;2,16373
2389,59597;2,16051
2387,54481;2,15839
2385,49366;2,1579
2383,4425;2,15812
2381,39135;2,15812
2379,34019;2,15859
2377,28904;2,15986
2375,23788;2,16124
2373,18673;2,16206
2371,13557;2,16093
2369,08442;2,15712
2367,03326;2,15435
2364,9821;2,15722
2362,93095;2,16176
2360,87979;2,15962
2358,82864;2,15123
2356,77748;2,14554
2354,72633;2,14734
2352,67517;2,15247
2350,62402;2,15749
2348,57286;2,16255
2346,52171;2,16612
2344,47055;2,16672
2342,4194;2,1654
2340,36824;2,16207
2338,31709;2,1565
2336,26593;2,15104
2334,21477;2,14684
2332,16362;2,14482
2330,11246;2,14663
2328,06131;2,15041
2326,01015;2,15243
2323,959;2,15198
2321,90784;2,15131
2319,85669;2,15363
2317,80553;2,15853
2315,75438;2,16131
2313,70322;2,16084
2311,65207;2,1591
2309,60091;2,15595
2307,54976;2,15352
2305,4986;2,15503
2303,44744;2,15803
2301,39629;2,15815
2299,34513;2,15496
2297,29398;2,15086
2295,24282;2,14789
2293,19167;2,14654
2291,14051;2,14579
2289,08936;2,14457
2287,0382;2,14336
2284,98705;2,14301
2282,93589;2,14317
2280,88474;2,14368
2278,83358;2,14548
2276,78243;2,148
2274,73127;2,14854
2272,68011;2,14698
2270,62896;2,14629
2268,5778;2,14781
2266,52665;2,15015
2264,47549;2,1515
2262,42434;2,15239
2260,37318;2,1553
2258,32203;2,15966
2256,27087;2,16294
2254,21972;2,16474
2252,16856;2,16611
2250,11741;2,16802
2248,06625;2,17133
2246,0151;2,17595
2243,96394;2,18089
2241,91278;2,18353
2239,86163;2,18418
2237,81047;2,18549
2235,75932;2,18904
2233,70816;2,19516
2231,65701;2,20226
2229,60585;2,20779
2227,5547;2,21106
2225,50354;2,21381
2223,45239;2,21734
2221,40123;2,21978
2219,35008;2,22099
2217,29892;2,22183
2215,24777;2,22137
2213,19661;2,22179
2211,14545;2,22492
2209,0943;2,22826
2207,04314;2,23005
2204,99199;2,23068
2202,94083;2,23151
2200,88968;2,23384
2198,83852;2,23729
2196,78737;2,23965
2194,73621;2,23927
2192,68506;2,23871
2190,6339;2,23912
2188,58275;2,23959
2186,53159;2,24133
2184,48044;2,24258
2182,42928;2,24141
2180,37812;2,24119
2178,32697;2,24449
2176,27581;2,24956
2174,22466;2,25489
2172,1735;2,25926
2170,12235;2,26216
2168,07119;2,2686
2166,02004;2,28143
2163,96888;2,29527
2161,91773;2,30545
2159,86657;2,31356
2157,81542;2,32341
2155,76426;2,3367
2153,71311;2,35302
2151,66195;2,37083
2149,61079;2,38715
2147,55964;2,39925
2145,50848;2,40667
2143,45733;2,40918
2141,40617;2,40851
2139,35502;2,41038
2137,30386;2,41258
2135,25271;2,40724
2133,20155;2,39728
2131,1504;2,38709
2129,09924;2,37281
2127,04809;2,35422
2124,99693;2,33796
2122,94578;2,32313
2120,89462;2,30557
2118,84346;2,28996
2116,79231;2,27906
2114,74115;2,26909
2112,69;2,25902
2110,63884;2,25179
2108,58769;2,24745
2106,53653;2,24283
2104,48538;2,23669
2102,43422;2,23105
2100,38307;2,22782
2098,33191;2,22697
2096,28076;2,22687
2094,2296;2,22625
2092,17844;2,22708
2090,12729;2,22952
2088,07613;2,23006
2086,02498;2,2304
2083,97382;2,23388
2081,92267;2,23658
2079,87151;2,23565
2077,82036;2,23442
2075,7692;2,23525
2073,71805;2,2375
2071,66689;2,24007
2069,61574;2,24154
2067,56458;2,2411
2065,51343;2,24043
2063,46227;2,24156
2061,41111;2,24325
2059,35996;2,24427
2057,3088;2,24562
2055,25765;2,24684
2053,20649;2,24707
2051,15534;2,2483
2049,10418;2,25185
2047,05303;2,25622
2045,00187;2,26045
2042,95072;2,2633
2040,89956;2,26279
2038,84841;2,26142
2036,79725;2,26242
2034,7461;2,26396
2032,69494;2,26407
2030,64378;2,26413
2028,59263;2,26556
2026,54147;2,26812
2024,49032;2,26977
2022,43916;2,26974
2020,38801;2,27031
2018,33685;2,27239
2016,2857;2,27571
2014,23454;2,27943
2012,18339;2,2805
2010,13223;2,27887
2008,08108;2,27874
2006,02992;2,28173
2003,97877;2,2855
2001,92761;2,28777
1999,87645;2,28786
1997,8253;2,28711
1995,77414;2,28713
1993,72299;2,28706
1991,67183;2,28716
1989,62068;2,29024
1987,56952;2,2951
1985,51837;2,29738
1983,46721;2,29755
1981,41606;2,29963
1979,3649;2,30431
1977,31375;2,30804
1975,26259;2,30992
1973,21144;2,31361
1971,16028;2,31861
1969,10912;2,32366
1967,05797;2,33539
1965,00681;2,3569
1962,95566;2,37822
1960,9045;2,3862
1958,85335;2,3774
1956,80219;2,36198
1954,75104;2,35065
1952,69988;2,3443
1950,64873;2,34022
1948,59757;2,33883
1946,54642;2,34075
1944,49526;2,34277
1942,44411;2,34271
1940,39295;2,34369
1938,34179;2,34666
1936,29064;2,34883
1934,23948;2,35102
1932,18833;2,35569
1930,13717;2,36042
1928,08602;2,3631
1926,03486;2,36606
1923,98371;2,36954
1921,93255;2,37148
1919,8814;2,37383
1917,83024;2,37806
1915,77909;2,38171
1913,72793;2,38494
1911,67678;2,39005
1909,62562;2,39656
1907,57446;2,40214
1905,52331;2,4046
1903,47215;2,40462
1901,421;2,40764
1899,36984;2,41442
1897,31869;2,41948
1895,26753;2,42098
1893,21638;2,42262
1891,16522;2,42817
1889,11407;2,43608
1887,06291;2,44254
1885,01176;2,44754
1882,9606;2,45069
1880,90945;2,4519
1878,85829;2,45566
1876,80713;2,46444
1874,75598;2,47474
1872,70482;2,48286
1870,65367;2,49189
1868,60251;2,50503
1866,55136;2,51506
1864,5002;2,51952
1862,44905;2,52596
1860,39789;2,53599
1858,34674;2,54494
1856,29558;2,5534
1854,24443;2,56474
1852,19327;2,57655
1850,14212;2,58671
1848,09096;2,59763
1846,0398;2,60992
1843,98865;2,62234
1841,93749;2,63561
1839,88634;2,65093
1837,83518;2,66868
1835,78403;2,68779
1833,73287;2,70487
1831,68172;2,7203
1829,63056;2,73771
1827,57941;2,75533
1825,52825;2,77058
1823,4771;2,78883
1821,42594;2,81676
1819,37478;2,84861
1817,32363;2,87103
1815,27247;2,88217
1813,22132;2,8977
1811,17016;2,93428
1809,11901;2,98994
1807,06785;3,04302
1805,0167;3,0845
1802,96554;3,13669
1800,91439;3,20551
1798,86323;3,24992
1796,81208;3,24885
1794,76092;3,22915
1792,70977;3,20472
1790,65861;3,16977
1788,60745;3,12843
1786,5563;3,0798
1784,50514;3,02869
1782,45399;2,99296
1780,40283;2,97857
1778,35168;2,97704
1776,30052;2,97673
1774,24937;2,97084
1772,19821;2,96199
1770,14706;2,9582
1768,0959;2,96207
1766,04475;2,96774
1763,99359;2,97199
1761,94244;2,98096
1759,89128;2,99577
1757,84012;3,00897
1755,78897;3,01604
1753,73781;3,01874
1751,68666;3,01868
1749,6355;3,01334
1747,58435;3,01041
1745,53319;3,02465
1743,48204;3,05922
1741,43088;3,09746
1739,37973;3,10645
1737,32857;3,08411
1735,27742;3,06799
1733,22626;3,07479
1731,17511;3,08295
1729,12395;3,0832
1727,07279;3,08982
1725,02164;3,10486
1722,97048;3,12063
1720,91933;3,13515
1718,86817;3,14322
1716,81702;3,13721
1714,76586;3,12431
1712,71471;3,1089
1710,66355;3,09311
1708,6124;3,09158
1706,56124;3,11816
1704,51009;3,16671
1702,45893;3,20704
1700,40778;3,20714
1698,35662;3,17353
1696,30546;3,15593
1694,25431;3,16921
1692,20315;3,18361
1690,152;3,18719
1688,10084;3,19409
1686,04969;3,21364
1683,99853;3,23648
1681,94738;3,24179
1679,89622;3,21971
1677,84507;3,19166
1675,79391;3,19266
1673,74276;3,22875
1671,6916;3,27154
1669,64045;3,30045
1667,58929;3,30657
1665,53813;3,29171
1663,48698;3,27949
1661,43582;3,29631
1659,38467;3,33781
1657,33351;3,37584
1655,28236;3,37986
1653,2312;3,32873
1651,18005;3,26758
1649,12889;3,24743
1647,07774;3,27132
1645,02658;3,3106
1642,97543;3,32995
1640,92427;3,34204
1638,87312;3,3604
1636,82196;3,36745
1634,7708;3,35881
1632,71965;3,36704
1630,66849;3,39133
1628,61734;3,40711
1626,56618;3,40872
1624,51503;3,40351
1622,46387;3,39273
1620,41272;3,38786
1618,36156;3,39825
1616,31041;3,39704
1614,25925;3,36966
1612,2081;3,3508
1610,15694;3,3467
1608,10579;3,33579
1606,05463;3,31527
1604,00347;3,29397
1601,95232;3,27636
1599,90116;3,26838
1597,85001;3,26939
1595,79885;3,26689
1593,7477;3,24452
1591,69654;3,20607
1589,64539;3,17756
1587,59423;3,17138
1585,54308;3,16521
1583,49192;3,13894
1581,44077;3,101
1579,38961;3,06181
1577,33846;3,0163
1575,2873;2,96191
1573,23614;2,91319
1571,18499;2,86302
1569,13383;2,80102
1567,08268;2,74462
1565,03152;2,70071
1562,98037;2,6636
1560,92921;2,62682
1558,87806;2,57719
1556,8269;2,52489
1554,77575;2,48807
1552,72459;2,46119
1550,67344;2,44096
1548,62228;2,42665
1546,57113;2,41729
1544,51997;2,41242
1542,46881;2,41211
1540,41766;2,41358
1538,3665;2,41209
1536,31535;2,41056
1534,26419;2,40857
1532,21304;2,40415
1530,16188;2,40141
1528,11073;2,40184
1526,05957;2,40293
1524,00842;2,40445
1521,95726;2,40412
1519,90611;2,39888
1517,85495;2,39414
1515,80379;2,39476
1513,75264;2,39973
1511,70148;2,40474
1509,65033;2,40499
1507,59917;2,39854
1505,54802;2,39012
1503,49686;2,38659
1501,44571;2,38518
1499,39455;2,38491
1497,3434;2,38734
1495,29224;2,38988
1493,24109;2,39178
1491,18993;2,39476
1489,13878;2,39905
1487,08762;2,4019
1485,03646;2,40026
1482,98531;2,39629
1480,93415;2,3937
1478,883;2,39151
1476,83184;2,38865
1474,78069;2,38807
1472,72953;2,3904
1470,67838;2,39073
1468,62722;2,38851
1466,57607;2,38652
1464,52491;2,38478
1462,47376;2,38299
1460,4226;2,382
1458,37145;2,38117
1456,32029;2,38006
1454,26913;2,37844
1452,21798;2,37388
1450,16682;2,36797
1448,11567;2,36445
1446,06451;2,36212
1444,01336;2,35903
1441,9622;2,35578
1439,91105;2,35385
1437,85989;2,35191
1435,80874;2,34625
1433,75758;2,3377
1431,70643;2,32925
1429,65527;2,3219
1427,60412;2,31585
1425,55296;2,30938
1423,5018;2,30005
1421,45065;2,28764
1419,39949;2,2728
1417,34834;2,25632
1415,29718;2,23994
1413,24603;2,22393
1411,19487;2,20874
1409,14372;2,19774
1407,09256;2,19607
1405,04141;2,20451
1402,99025;2,21729
1400,9391;2,23071
1398,88794;2,24774
1396,83679;2,26946
1394,78563;2,29054
1392,73447;2,30689
1390,68332;2,32176
1388,63216;2,33889
1386,58101;2,35667
1384,52985;2,37269
1382,4787;2,3879
1380,42754;2,403
1378,37639;2,41684
1376,32523;2,42897
1374,27408;2,43976
1372,22292;2,44799
1370,17177;2,45343
1368,12061;2,4568
1366,06946;2,46022
1364,0183;2,46758
1361,96714;2,47827
1359,91599;2,4877
1357,86483;2,49428
1355,81368;2,49769
1353,76252;2,49808
1351,71137;2,49872
1349,66021;2,5029
1347,60906;2,50936
1345,5579;2,51463
1343,50675;2,52074
1341,45559;2,53106
1339,40444;2,53831
1337,35328;2,53519
1335,30213;2,53071
1333,25097;2,53277
1331,19981;2,53532
1329,14866;2,53391
1327,0975;2,53459
1325,04635;2,541
1322,99519;2,55009
1320,94404;2,55883
1318,89288;2,56498
1316,84173;2,56788
1314,79057;2,56953
1312,73942;2,56903
1310,68826;2,5655
1308,63711;2,56288
1306,58595;2,56058
1304,5348;2,556
1302,48364;2,55477
1300,43248;2,56157
1298,38133;2,57129
1296,33017;2,57438
1294,27902;2,56857
1292,22786;2,56256
1290,17671;2,5638
1288,12555;2,56997
1286,0744;2,57418
1284,02324;2,5744
1281,97209;2,57292
1279,92093;2,57176
1277,86978;2,57216
1275,81862;2,57343
1273,76747;2,57688
1271,71631;2,58483
1269,66515;2,59066
1267,614;2,59
1265,56284;2,5908
1263,51169;2,59575
1261,46053;2,60064
1259,40938;2,60431
1257,35822;2,60604
1255,30707;2,60556
1253,25591;2,60417
1251,20476;2,6052
1249,1536;2,61219
1247,10245;2,62099
1245,05129;2,62484
1243,00013;2,62636
1240,94898;2,62807
1238,89782;2,6264
1236,84667;2,62359
1234,79551;2,62604
1232,74436;2,63127
1230,6932;2,63101
1228,64205;2,62825
1226,59089;2,62975
1224,53974;2,63206
1222,48858;2,63194
1220,43743;2,63407
1218,38627;2,63901
1216,33512;2,64045
1214,28396;2,64532
1212,2328;2,66028
1210,18165;2,67218
1208,13049;2,6696
1206,07934;2,65892
1204,02818;2,65519
1201,97703;2,66175
1199,92587;2,67174
1197,87472;2,68123
1195,82356;2,68512
1193,77241;2,68234
1191,72125;2,68199
1189,6701;2,69052
1187,61894;2,69804
1185,56779;2,6981
1183,51663;2,69863
1181,46547;2,70056
1179,41432;2,70288
1177,36316;2,70739
1175,31201;2,7105
1173,26085;2,71206
1171,2097;2,71167
1169,15854;2,71028
1167,10739;2,71243
1165,05623;2,71689
1163,00508;2,72015
1160,95392;2,71897
1158,90277;2,71452
1156,85161;2,71406
1154,80046;2,71909
1152,7493;2,7205
1150,69814;2,71309
1148,64699;2,70294
1146,59583;2,69707
1144,54468;2,69923
1142,49352;2,70427
1140,44237;2,70139
1138,39121;2,69825
1136,34006;2,70379
1134,2889;2,70543
1132,23775;2,70545
1130,18659;2,71427
1128,13544;2,72199
1126,08428;2,72282
1124,03313;2,72334
1121,98197;2,72826
1119,93081;2,73094
1117,87966;2,7291
1115,8285;2,73135
1113,77735;2,73931
1111,72619;2,74846
1109,67504;2,75288
1107,62388;2,75483
1105,57273;2,75727
1103,52157;2,75913
1101,47042;2,76422
1099,41926;2,76799
1097,36811;2,76684
1095,31695;2,76737
1093,2658;2,76861
1091,21464;2,7709
1089,16348;2,78736
1087,11233;2,81408
1085,06117;2,82398
1083,01002;2,80854
1080,95886;2,78246
1078,90771;2,76652
1076,85655;2,76587
1074,8054;2,76584
1072,75424;2,76459
1070,70309;2,76276
1068,65193;2,75907
1066,60078;2,76508
1064,54962;2,77464
1062,49847;2,77016
1060,44731;2,75759
1058,39615;2,75322
1056,345;2,75734
1054,29384;2,76165
1052,24269;2,76558
1050,19153;2,77156
1048,14038;2,77922
1046,08922;2,78889
1044,03807;2,79486
1041,98691;2,78861
1039,93576;2,7823
1037,8846;2,79096
1035,83345;2,79912
1033,78229;2,79217
1031,73114;2,78023
1029,67998;2,77231
1027,62882;2,77598
1025,57767;2,78705
1023,52651;2,79257
1021,47536;2,79409
1019,4242;2,79532
1017,37305;2,79782
1015,32189;2,80245
1013,27074;2,80149
1011,21958;2,79078
1009,16843;2,77611
1007,11727;2,76492
1005,06612;2,77099
1003,01496;2,7895
1000,96381;2,79377
998,91265;2,78237
996,86149;2,76579
994,81034;2,74879
992,75918;2,73963
990,70803;2,73672
988,65687;2,73497
986,60572;2,7348
984,55456;2,73527
982,50341;2,73923
980,45225;2,74189
978,4011;2,73262
976,34994;2,71583
974,29879;2,70691
972,24763;2,71276
970,19647;2,71671
968,14532;2,7074
966,09416;2,70271
964,04301;2,71267
961,99185;2,724
959,9407;2,72844
957,88954;2,73788
955,83839;2,74775
953,78723;2,74596
951,73608;2,74353
949,68492;2,74678
947,63377;2,75536
945,58261;2,77158
943,53146;2,78536
941,4803;2,7867
939,42914;2,78116
937,37799;2,77247
935,32683;2,76201
933,27568;2,76279
931,22452;2,77776
929,17337;2,79145
927,12221;2,7951
925,07106;2,78772
923,0199;2,78136
920,96875;2,78264
918,91759;2,77697
916,86644;2,76686
914,81528;2,76791
912,76413;2,77516
910,71297;2,77891
908,66181;2,77327
906,61066;2,75508
904,5595;2,74632
902,50835;2,7605
900,45719;2,77191
898,40604;2,76768
896,35488;2,75817
894,30373;2,73607
892,25257;2,68792
890,20142;2,61624
888,15026;2,56034
886,09911;2,56724
884,04795;2,6309
881,9968;2,68965
879,94564;2,6913
877,89448;2,6376
875,84333;2,55542
873,79217;2,47746
871,74102;2,44007
869,68986;2,4642
867,63871;2,53037
865,58755;2,5906
863,5364;2,62436
861,48524;2,6406
859,43409;2,65268
857,38293;2,66823
855,33178;2,68397
853,28062;2,7078
851,22947;2,74464
849,17831;2,76875
847,12715;2,75538
845,076;2,72097
843,02484;2,69587
840,97369;2,67942
838,92253;2,6657
836,87138;2,65833
834,82022;2,65398
832,76907;2,64807
830,71791;2,64368
828,66676;2,64992
826,6156;2,67114
824,56445;2,68755
822,51329;2,67819
820,46214;2,67079
818,41098;2,69257
816,35982;2,7146
814,30867;2,70977
812,25751;2,70625
810,20636;2,72563
808,1552;2,75297
806,10405;2,76026
804,05289;2,75775
802,00174;2,75238
799,95058;2,74142
797,89943;2,74595
795,84827;2,76932
793,79712;2,79893
791,74596;2,80826
789,69481;2,78509
787,64365;2,76764
785,59249;2,76717
783,54134;2,77102
781,49018;2,77806
779,43903;2,78783
777,38787;2,81157
775,33672;2,83192
773,28556;2,81644
771,23441;2,78789
769,18325;2,76425
767,1321;2,75517
765,08094;2,77015
763,02979;2,78911
760,97863;2,7991
758,92748;2,79958
756,87632;2,7753
754,82516;2,75173
752,77401;2,75951
750,72285;2,78104
748,6717;2,79124
746,62054;2,78655
744,56939;2,77992
742,51823;2,78466
740,46708;2,80326
738,41592;2,82466
736,36477;2,84236
734,31361;2,848
732,26246;2,84144
730,2113;2,8545
728,16015;2,89529
726,10899;2,93461
724,05783;2,96206
722,00668;2,99866
719,95552;3,04671
717,90437;3,08956
715,85321;3,08809
713,80206;3,01595
711,7509;2,93579
709,69975;2,89083
707,64859;2,87061
705,59744;2,8699
703,54628;2,88418
701,49513;2,89146
699,44397;2,87528
697,39281;2,84476
695,34166;2,81996
693,2905;2,80386
691,23935;2,79748
689,18819;2,80853
687,13704;2,82896
685,08588;2,8311
683,03473;2,81687
680,98357;2,81263
678,93242;2,81143
676,88126;2,7951
674,83011;2,77734
672,77895;2,78858
670,7278;2,82691
668,67664;2,84
666,62548;2,81076
664,57433;2,79173
662,52317;2,78699
660,47202;2,78748
658,42086;2,80585
656,36971;2,85423
654,31855;2,91122
652,2674;2,92822
650,21624;2,89981
648,16509;2,87096
646,11393;2,85312
644,06278;2,84776
642,01162;2,85903
639,96047;2,8572
637,90931;2,83757
635,85815;2,84029
633,807;2,88375
631,75584;2,92402
629,70469;2,91147
627,65353;2,87899
625,60238;2,87967
623,55122;2,87188
621,50007;2,85453
619,44891;2,88178
617,39776;2,91177
615,3466;2,8998
613,29545;2,90208
611,24429;2,92466
609,19314;2,96324
607,14198;2,98316
605,09082;2,93789
603,03967;2,90221
600,98851;2,89067
598,93736;2,88247
596,8862;2,89278
594,83505;2,9074
592,78389;2,90642
590,73274;2,92963
588,68158;3,0036
586,63043;3,03477
584,57927;2,93988
582,52812;2,87166
580,47696;2,92335
578,42581;3,00439
576,37465;3,03515
574,32349;3,05922
572,27234;3,10769
570,22118;3,0965
568,17003;2,96401
566,11887;2,86355
564,06772;2,88037
562,01656;2,94409
559,96541;2,99308
557,91425;3,00018
555,8631;2,92603
553,81194;2,85323
551,76079;2,86173
549,70963;2,94204
547,65848;3,02233
545,60732;3,0348
543,55616;2,93928
541,50501;2,83572
539,45385;2,7949
537,4027;2,82702
535,35154;2,91784
533,30039;3,02109
531,24923;3,06719
529,19808;3,09226
527,14692;3,12616
525,09577;3,08684
523,04461;3,02721
520,99346;3,08719
518,9423;3,29033
516,89115;3,4037
514,83999;3,33629
512,78883;3,25182
510,73768;3,1563
508,68652;3,1091
506,63537;3,10566
504,58421;3,12645
502,53306;3,18791
500,4819;3,19025
498,43075;3,08324
496,37959;2,98489
494,32844;2,97741
492,27728;3,10772
490,22613;3,30499
488,17497;3,27368
486,12382;3,17463
484,07266;3,12986
482,0215;3,06922
479,97035;3,07246
477,91919;3,13402
475,86804;3,14218
473,81688;3,09857
471,76573;3,08108
469,71457;3,08975
467,66342;3,16105
465,61226;3,31013
463,56111;3,37288
461,50995;3,18946
459,4588;3,06183
457,40764;3,07959
455,35649;3,09401
453,30533;3,17403
451,25417;3,43056
449,20302;3,59073
447,15186;3,2907
445,10071;3,01403
443,04955;3,02868
440,9984;3,30797
438,94724;3,55196
436,89609;3,25705
434,84493;3,0885
432,79378;3,1492
430,74262;3,06617
428,69147;2,96047
426,64031;2,91605
424,58916;2,93987
422,538;2,99929
420,48684;3,07269
418,43569;2,83256
416,38453;2,72266
414,33338;2,79927
412,28222;2,86175
410,23107;2,83842
408,17991;2,77232
406,12876;2,77166
404,0776;2,908
402,02645;2,92996
399,97529;2,65254
