3997,70175;1,93743
3995,6506;1,93919
3993,59944;1,94117
3991,54829;1,9422
3989,49713;1,94223
3987,44598;1,94297
3985,39482;1,9452
3983,34367;1,94649
3981,29251;1,94579
3979,24136;1,94588
3977,1902;1,94929
3975,13905;1,95436
3973,08789;1,95794
3971,03673;1,95995
3968,98558;1,96011
3966,93442;1,95868
3964,88327;1,95964
3962,83211;1,96461
3960,78096;1,96946
3958,7298;1,97135
3956,67865;1,97115
3954,62749;1,97091
3952,57634;1,97317
3950,52518;1,97738
3948,47403;1,97909
3946,42287;1,97777
3944,37172;1,97787
3942,32056;1,97911
3940,2694;1,97878
3938,21825;1,97719
3936,16709;1,97473
3934,11594;1,9736
3932,06478;1,97463
3930,01363;1,97286
3927,96247;1,96802
3925,91132;1,9651
3923,86016;1,9612
3921,80901;1,953
3919,75785;1,94666
3917,7067;1,94526
3915,65554;1,94292
3913,60439;1,93666
3911,55323;1,92951
3909,50207;1,92328
3907,45092;1,91984
3905,39976;1,922
3903,34861;1,92815
3901,29745;1,9328
3899,2463;1,93116
3897,19514;1,92354
3895,14399;1,91791
3893,09283;1,91825
3891,04168;1,91768
3888,99052;1,91343
3886,93937;1,91345
3884,88821;1,91787
3882,83706;1,92204
3880,7859;1,92411
3878,73474;1,91965
3876,68359;1,91332
3874,63243;1,91268
3872,58128;1,9177
3870,53012;1,92323
3868,47897;1,92253
3866,42781;1,9205
3864,37666;1,92254
3862,3255;1,92149
3860,27435;1,91232
3858,22319;1,89906
3856,17204;1,89274
3854,12088;1,90476
3852,06973;1,92092
3850,01857;1,92137
3847,96741;1,9129
3845,91626;1,90646
3843,8651;1,90563
3841,81395;1,91031
3839,76279;1,91897
3837,71164;1,92479
3835,66048;1,92351
3833,60933;1,9199
3831,55817;1,91717
3829,50702;1,91568
3827,45586;1,91441
3825,40471;1,9123
3823,35355;1,91534
3821,3024;1,92485
3819,25124;1,92908
3817,20008;1,92831
3815,14893;1,92644
3813,09777;1,92152
3811,04662;1,91552
3808,99546;1,9135
3806,94431;1,91692
3804,89315;1,92289
3802,842;1,9325
3800,79084;1,94234
3798,73969;1,94677
3796,68853;1,94608
3794,63738;1,94074
3792,58622;1,93427
3790,53506;1,93053
3788,48391;1,93256
3786,43275;1,93937
3784,3816;1,94374
3782,33044;1,94504
3780,27929;1,94921
3778,22813;1,95341
3776,17698;1,95363
3774,12582;1,95322
3772,07467;1,95649
3770,02351;1,96376
3767,97236;1,97233
3765,9212;1,97933
3763,87005;1,98148
3761,81889;1,98354
3759,76773;1,99104
3757,71658;1,99766
3755,66542;1,99851
3753,61427;2,00262
3751,56311;2,01628
3749,51196;2,02587
3747,4608;2,02462
3745,40965;2,02767
3743,35849;2,04094
3741,30734;2,05456
3739,25618;2,0668
3737,20503;2,08649
3735,15387;2,1119
3733,10272;2,12601
3731,05156;2,1267
3729,0004;2,13032
3726,94925;2,1494
3724,89809;2,1802
3722,84694;2,21092
3720,79578;2,23627
3718,74463;2,25865
3716,69347;2,28435
3714,64232;2,32408
3712,59116;2,38601
3710,54001;2,45393
3708,48885;2,50424
3706,4377;2,54255
3704,38654;2,58065
3702,33539;2,62127
3700,28423;2,65843
3698,23307;2,68567
3696,18192;2,70352
3694,13076;2,71193
3692,07961;2,70816
3690,02845;2,69159
3687,9773;2,66791
3685,92614;2,65289
3683,87499;2,64568
3681,82383;2,6354
3679,77268;2,62357
3677,72152;2,62015
3675,67037;2,63195
3673,61921;2,64701
3671,56806;2,65389
3669,5169;2,65705
3667,46574;2,66116
3665,41459;2,66427
3663,36343;2,66548
3661,31228;2,66691
3659,26112;2,67254
3657,20997;2,68239
3655,15881;2,68752
3653,10766;2,69327
3651,0565;2,71479
3649,00535;2,73916
3646,95419;2,73739
3644,90304;2,72022
3642,85188;2,70818
3640,80073;2,7011
3638,74957;2,69619
3636,69841;2,69477
3634,64726;2,69209
3632,5961;2,69281
3630,54495;2,71316
3628,49379;2,74256
3626,44264;2,75436
3624,39148;2,75545
3622,34033;2,75629
3620,28917;2,75432
3618,23802;2,74666
3616,18686;2,74089
3614,13571;2,73902
3612,08455;2,73157
3610,0334;2,71961
3607,98224;2,71477
3605,93108;2,7207
3603,87993;2,72633
3601,82877;2,72168
3599,77762;2,71886
3597,72646;2,73136
3595,67531;2,74887
3593,62415;2,75471
3591,573;2,74967
3589,52184;2,74733
3587,47069;2,75094
3585,41953;2,74977
3583,36838;2,74293
3581,31722;2,73935
3579,26607;2,73981
3577,21491;2,73857
3575,16375;2,73789
3573,1126;2,7435
3571,06144;2,75481
3569,01029;2,76874
3566,95913;2,77979
3564,90798;2,7826
3562,85682;2,77589
3560,80567;2,76267
3558,75451;2,75272
3556,70336;2,75056
3554,6522;2,7511
3552,60105;2,75194
3550,54989;2,75462
3548,49874;2,76077
3546,44758;2,76775
3544,39642;2,7696
3542,34527;2,76837
3540,29411;2,7688
3538,24296;2,7659
3536,1918;2,75072
3534,14065;2,73068
3532,08949;2,7251
3530,03834;2,73913
3527,98718;2,7564
3525,93603;2,76204
3523,88487;2,76268
3521,83372;2,76399
3519,78256;2,75996
3517,73141;2,74828
3515,68025;2,73693
3513,62909;2,73692
3511,57794;2,74827
3509,52678;2,75668
3507,47563;2,75033
3505,42447;2,74414
3503,37332;2,75471
3501,32216;2,765
3499,27101;2,75691
3497,21985;2,74008
3495,1687;2,7315
3493,11754;2,73613
3491,06639;2,74322
3489,01523;2,73989
3486,96407;2,72955
3484,91292;2,72582
3482,86176;2,73192
3480,81061;2,7385
3478,75945;2,73972
3476,7083;2,73988
3474,65714;2,73929
3472,60599;2,73212
3470,55483;2,72149
3468,50368;2,71374
3466,45252;2,71409
3464,40137;2,72553
3462,35021;2,74033
3460,29906;2,74933
3458,2479;2,74737
3456,19674;2,73644
3454,14559;2,72934
3452,09443;2,73051
3450,04328;2,72872
3447,99212;2,7172
3445,94097;2,70477
3443,88981;2,69572
3441,83866;2,69129
3439,7875;2,6987
3437,73635;2,71459
3435,68519;2,72543
3433,63404;2,72653
3431,58288;2,72191
3429,53173;2,71221
3427,48057;2,70327
3425,42941;2,70268
3423,37826;2,69963
3421,3271;2,68902
3419,27595;2,69018
3417,22479;2,70006
3415,17364;2,69913
3413,12248;2,69405
3411,07133;2,69498
3409,02017;2,69412
3406,96902;2,68733
3404,91786;2,68332
3402,86671;2,68202
3400,81555;2,67748
3398,7644;2,67071
3396,71324;2,6669
3394,66208;2,67057
3392,61093;2,67948
3390,55977;2,685
3388,50862;2,68088
3386,45746;2,67442
3384,40631;2,67225
3382,35515;2,67061
3380,304;2,66789
3378,25284;2,67011
3376,20169;2,67945
3374,15053;2,68489
3372,09938;2,68278
3370,04822;2,67828
3367,99707;2,67064
3365,94591;2,66313
3363,89475;2,66176
3361,8436;2,6654
3359,79244;2,66774
3357,74129;2,66784
3355,69013;2,66472
3353,63898;2,65933
3351,58782;2,66056
3349,53667;2,66649
3347,48551;2,67063
3345,43436;2,67446
3343,3832;2,67381
3341,33205;2,66395
3339,28089;2,65317
3337,22974;2,65192
3335,17858;2,65552
3333,12742;2,65203
3331,07627;2,64307
3329,02511;2,6384
3326,97396;2,64278
3324,9228;2,64654
3322,87165;2,63979
3320,82049;2,63389
3318,76934;2,64142
3316,71818;2,65546
3314,66703;2,6603
3312,61587;2,65451
3310,56472;2,65064
3308,51356;2,64947
3306,46241;2,64021
3304,41125;2,62805
3302,36009;2,62603
3300,30894;2,63111
3298,25778;2,63407
3296,20663;2,63162
3294,15547;2,62677
3292,10432;2,62365
3290,05316;2,62168
3288,00201;2,62161
3285,95085;2,62836
3283,8997;2,63811
3281,84854;2,64016
3279,79739;2,63455
3277,74623;2,63032
3275,69508;2,63113
3273,64392;2,63016
3271,59276;2,62661
3269,54161;2,62835
3267,49045;2,63009
3265,4393;2,62226
3263,38814;2,61188
3261,33699;2,60949
3259,28583;2,617
3257,23468;2,62617
3255,18352;2,62352
3253,13237;2,61256
3251,08121;2,6082
3249,03006;2,61152
3246,9789;2,61461
3244,92775;2,61818
3242,87659;2,62452
3240,82543;2,62655
3238,77428;2,61927
3236,72312;2,61122
3234,67197;2,61078
3232,62081;2,6134
3230,56966;2,61387
3228,5185;2,61283
3226,46735;2,61096
3224,41619;2,60626
3222,36504;2,60166
3220,31388;2,60721
3218,26273;2,61756
3216,21157;2,62029
3214,16041;2,61781
3212,10926;2,6167
3210,0581;2,61615
3208,00695;2,61233
3205,95579;2,6051
3203,90464;2,59735
3201,85348;2,59444
3199,80233;2,59796
3197,75117;2,60212
3195,70002;2,60476
3193,64886;2,61053
3191,59771;2,61697
3189,54655;2,6164
3187,4954;2,60852
3185,44424;2,60025
3183,39308;2,59709
3181,34193;2,59858
3179,29077;2,60166
3177,23962;2,60063
3175,18846;2,59549
3173,13731;2,59375
3171,08615;2,59573
3169,035;2,59638
3166,98384;2,5959
3164,93269;2,59566
3162,88153;2,59312
3160,83038;2,59003
3158,77922;2,59067
3156,72807;2,59466
3154,67691;2,59931
3152,62575;2,59965
3150,5746;2,59592
3148,52344;2,59521
3146,47229;2,59892
3144,42113;2,60476
3142,36998;2,60936
3140,31882;2,60445
3138,26767;2,59086
3136,21651;2,5836
3134,16536;2,5886
3132,1142;2,59511
3130,06305;2,59689
3128,01189;2,59627
3125,96074;2,59623
3123,90958;2,60169
3121,85842;2,60787
3119,80727;2,60397
3117,75611;2,59421
3115,70496;2,5883
3113,6538;2,58662
3111,60265;2,58722
3109,55149;2,58904
3107,50034;2,59002
3105,44918;2,59006
3103,39803;2,59164
3101,34687;2,59453
3099,29572;2,59753
3097,24456;2,59786
3095,19341;2,59345
3093,14225;2,5898
3091,09109;2,58955
3089,03994;2,58988
3086,98878;2,59015
3084,93763;2,59088
3082,88647;2,59177
3080,83532;2,59037
3078,78416;2,58529
3076,73301;2,57914
3074,68185;2,5775
3072,6307;2,58054
3070,57954;2,58363
3068,52839;2,58562
3066,47723;2,58625
3064,42608;2,58716
3062,37492;2,58858
3060,32376;2,58759
3058,27261;2,58596
3056,22145;2,58899
3054,1703;2,59581
3052,11914;2,59781
3050,06799;2,59231
3048,01683;2,58683
3045,96568;2,58759
3043,91452;2,58925
3041,86337;2,58492
3039,81221;2,58219
3037,76106;2,58617
3035,7099;2,58754
3033,65875;2,58295
3031,60759;2,58126
3029,55643;2,58667
3027,50528;2,59017
3025,45412;2,58647
3023,40297;2,58128
3021,35181;2,5788
3019,30066;2,57845
3017,2495;2,57611
3015,19835;2,57486
3013,14719;2,57919
3011,09604;2,58268
3009,04488;2,58459
3006,99373;2,58698
3004,94257;2,586
3002,89142;2,58452
3000,84026;2,58435
2998,7891;2,58217
2996,73795;2,57927
2994,68679;2,5794
2992,63564;2,58323
2990,58448;2,59057
2988,53333;2,59755
2986,48217;2,59821
2984,43102;2,59575
2982,37986;2,59731
2980,32871;2,60356
2978,27755;2,60868
2976,2264;2,60629
2974,17524;2,59844
2972,12409;2,59351
2970,07293;2,59405
2968,02177;2,59592
2965,97062;2,60126
2963,91946;2,61037
2961,86831;2,61298
2959,81715;2,60763
2957,766;2,60156
2955,71484;2,59936
2953,66369;2,60315
2951,61253;2,60937
2949,56138;2,61386
2947,51022;2,61578
2945,45907;2,61538
2943,40791;2,61277
2941,35675;2,60765
2939,3056;2,60507
2937,25444;2,60789
2935,20329;2,61144
2933,15213;2,61351
2931,10098;2,61352
2929,04982;2,60899
2926,99867;2,60485
2924,94751;2,60721
2922,89636;2,61087
2920,8452;2,60836
2918,79405;2,60281
2916,74289;2,59748
2914,69174;2,58988
2912,64058;2,58414
2910,58942;2,58786
2908,53827;2,59724
2906,48711;2,60078
2904,43596;2,59694
2902,3848;2,59359
2900,33365;2,59561
2898,28249;2,59804
2896,23134;2,59432
2894,18018;2,58857
2892,12903;2,58701
2890,07787;2,58859
2888,02672;2,58912
2885,97556;2,58824
2883,92441;2,58976
2881,87325;2,59403
2879,82209;2,59201
2877,77094;2,58305
2875,71978;2,57892
2873,66863;2,57902
2871,61747;2,57941
2869,56632;2,58276
2867,51516;2,58441
2865,46401;2,58162
2863,41285;2,58034
2861,3617;2,57762
2859,31054;2,57076
2857,25939;2,56817
2855,20823;2,56964
2853,15708;2,5674
2851,10592;2,56363
2849,05476;2,56402
2847,00361;2,56471
2844,95245;2,5629
2842,9013;2,56112
2840,85014;2,55545
2838,79899;2,54484
2836,74783;2,53916
2834,69668;2,54248
2832,64552;2,5444
2830,59437;2,54025
2828,54321;2,53606
2826,49206;2,53241
2824,4409;2,52903
2822,38975;2,52789
2820,33859;2,52787
2818,28743;2,52528
2816,23628;2,52181
2814,18512;2,52452
2812,13397;2,52884
2810,08281;2,52357
2808,03166;2,51413
2805,9805;2,51261
2803,92935;2,51558
2801,87819;2,51403
2799,82704;2,50921
2797,77588;2,50659
2795,72473;2,50556
2793,67357;2,50062
2791,62242;2,49497
2789,57126;2,49394
2787,5201;2,49381
2785,46895;2,49376
2783,41779;2,49371
2781,36664;2,48937
2779,31548;2,48476
2777,26433;2,48468
2775,21317;2,48498
2773,16202;2,48274
2771,11086;2,4789
2769,05971;2,47648
2767,00855;2,47799
2764,9574;2,481
2762,90624;2,48262
2760,85509;2,48148
2758,80393;2,47666
2756,75277;2,47085
2754,70162;2,46938
2752,65046;2,47225
2750,59931;2,47305
2748,54815;2,46947
2746,497;2,46528
2744,44584;2,46291
2742,39469;2,4618
2740,34353;2,45993
2738,29238;2,4568
2736,24122;2,45494
2734,19007;2,45458
2732,13891;2,45447
2730,08776;2,45438
2728,0366;2,45325
2725,98544;2,45335
2723,93429;2,45563
2721,88313;2,45679
2719,83198;2,45559
2717,78082;2,45384
2715,72967;2,4542
2713,67851;2,4535
2711,62736;2,44905
2709,5762;2,4446
2707,52505;2,44146
2705,47389;2,43939
2703,42274;2,43908
2701,37158;2,43973
2699,32043;2,43916
2697,26927;2,43744
2695,21811;2,43761
2693,16696;2,43837
2691,1158;2,43575
2689,06465;2,42958
2687,01349;2,42496
2684,96234;2,42579
2682,91118;2,42648
2680,86003;2,42319
2678,80887;2,42189
2676,75772;2,42343
2674,70656;2,42327
2672,65541;2,42188
2670,60425;2,42057
2668,55309;2,42012
2666,50194;2,42044
2664,45078;2,41939
2662,39963;2,41824
2660,34847;2,41805
2658,29732;2,41642
2656,24616;2,41399
2654,19501;2,41291
2652,14385;2,41163
2650,0927;2,41019
2648,04154;2,41171
2645,99039;2,4141
2643,93923;2,41281
2641,88808;2,41046
2639,83692;2,41155
2637,78576;2,41565
2635,73461;2,41963
2633,68345;2,42213
2631,6323;2,42551
2629,58114;2,43098
2627,52999;2,43596
2625,47883;2,43797
2623,42768;2,43934
2621,37652;2,44354
2619,32537;2,4478
2617,27421;2,44847
2615,22306;2,44997
2613,1719;2,45595
2611,12075;2,45878
2609,06959;2,45565
2607,01843;2,45444
2604,96728;2,45724
2602,91612;2,45949
2600,86497;2,46017
2598,81381;2,46162
2596,76266;2,4631
2594,7115;2,46447
2592,66035;2,46641
2590,60919;2,46722
2588,55804;2,46672
2586,50688;2,46552
2584,45573;2,46466
2582,40457;2,46561
2580,35342;2,46628
2578,30226;2,46627
2576,2511;2,46669
2574,19995;2,46535
2572,14879;2,46235
2570,09764;2,46102
2568,04648;2,46247
2565,99533;2,46473
2563,94417;2,46648
2561,89302;2,46747
2559,84186;2,46649
2557,79071;2,4641
2555,73955;2,46337
2553,6884;2,46469
2551,63724;2,46688
2549,58609;2,46839
2547,53493;2,46997
2545,48377;2,47472
2543,43262;2,47673
2541,38146;2,47418
2539,33031;2,47696
2537,27915;2,48569
2535,228;2,49454
2533,17684;2,50371
2531,12569;2,51206
2529,07453;2,51565
2527,02338;2,51749
2524,97222;2,52394
2522,92107;2,53435
2520,86991;2,5389
2518,81876;2,53316
2516,7676;2,5275
2514,71644;2,52889
2512,66529;2,53267
2510,61413;2,53537
2508,56298;2,53582
2506,51182;2,53237
2504,46067;2,52563
2502,40951;2,51796
2500,35836;2,51205
2498,3072;2,50554
2496,25605;2,49626
2494,20489;2,48642
2492,15374;2,47722
2490,10258;2,46997
2488,05143;2,46273
2486,00027;2,45234
2483,94911;2,44131
2481,89796;2,43262
2479,8468;2,42626
2477,79565;2,4196
2475,74449;2,41105
2473,69334;2,40264
2471,64218;2,39643
2469,59103;2,39181
2467,53987;2,38585
2465,48872;2,37708
2463,43756;2,36923
2461,38641;2,36506
2459,33525;2,36131
2457,2841;2,35586
2455,23294;2,34928
2453,18178;2,34225
2451,13063;2,33584
2449,07947;2,32981
2447,02832;2,32508
2444,97716;2,32315
2442,92601;2,32246
2440,87485;2,32144
2438,8237;2,32036
2436,77254;2,31818
2434,72139;2,3136
2432,67023;2,30835
2430,61908;2,30472
2428,56792;2,30249
2426,51677;2,29991
2424,46561;2,29678
2422,41445;2,29358
2420,3633;2,28984
2418,31214;2,28669
2416,26099;2,28543
2414,20983;2,28435
2412,15868;2,28315
2410,10752;2,28284
2408,05637;2,28141
2406,00521;2,2785
2403,95406;2,27624
2401,9029;2,27546
2399,85175;2,27566
2397,80059;2,27526
2395,74944;2,27286
2393,69828;2,26914
2391,64712;2,26631
2389,59597;2,26477
2387,54481;2,26358
2385,49366;2,26363
2383,4425;2,26572
2381,39135;2,26708
2379,34019;2,26585
2377,28904;2,26425
2375,23788;2,26233
2373,18673;2,25872
2371,13557;2,25686
2369,08442;2,26008
2367,03326;2,26555
2364,9821;2,26901
2362,93095;2,2715
2360,87979;2,27608
2358,82864;2,27883
2356,77748;2,27428
2354,72633;2,2696
2352,67517;2,27282
2350,62402;2,27617
2348,57286;2,27338
2346,52171;2,27104
2344,47055;2,27393
2342,4194;2,27625
2340,36824;2,27501
2338,31709;2,27404
2336,26593;2,27337
2334,21477;2,27209
2332,16362;2,27344
2330,11246;2,27821
2328,06131;2,28159
2326,01015;2,28038
2323,959;2,27724
2321,90784;2,27591
2319,85669;2,27711
2317,80553;2,27887
2315,75438;2,2792
2313,70322;2,27824
2311,65207;2,27682
2309,60091;2,27624
2307,54976;2,27767
2305,4986;2,27943
2303,44744;2,27875
2301,39629;2,2756
2299,34513;2,27237
2297,29398;2,27071
2295,24282;2,27004
2293,19167;2,26975
2291,14051;2,27051
2289,08936;2,27214
2287,0382;2,27355
2284,98705;2,27447
2282,93589;2,27471
2280,88474;2,27401
2278,83358;2,27318
2276,78243;2,27321
2274,73127;2,27349
2272,68011;2,27324
2270,62896;2,27305
2268,5778;2,2742
2266,52665;2,27745
2264,47549;2,28099
2262,42434;2,28228
2260,37318;2,28211
2258,32203;2,28207
2256,27087;2,28181
2254,21972;2,28243
2252,16856;2,28539
2250,11741;2,28878
2248,06625;2,29178
2246,0151;2,29543
2243,96394;2,29813
2241,91278;2,29797
2239,86163;2,29838
2237,81047;2,29956
2235,75932;2,29975
2233,70816;2,30076
2231,65701;2,30424
2229,60585;2,30891
2227,5547;2,3116
2225,50354;2,31273
2223,45239;2,31452
2221,40123;2,31569
2219,35008;2,3161
2217,29892;2,31797
2215,24777;2,32004
2213,19661;2,32118
2211,14545;2,32329
2209,0943;2,32637
2207,04314;2,32885
2204,99199;2,32958
2202,94083;2,32837
2200,88968;2,32821
2198,83852;2,33112
2196,78737;2,33366
2194,73621;2,3336
2192,68506;2,3333
2190,6339;2,33446
2188,58275;2,33697
2186,53159;2,34024
2184,48044;2,34237
2182,42928;2,34357
2180,37812;2,34473
2178,32697;2,34533
2176,27581;2,34786
2174,22466;2,35163
2172,1735;2,35306
2170,12235;2,35266
2168,07119;2,3522
2166,02004;2,35446
2163,96888;2,35948
2161,91773;2,36318
2159,86657;2,36652
2157,81542;2,37269
2155,76426;2,38048
2153,71311;2,3879
2151,66195;2,39408
2149,61079;2,39817
2147,55964;2,40012
2145,50848;2,4011
2143,45733;2,40237
2141,40617;2,40436
2139,35502;2,40461
2137,30386;2,40247
2135,25271;2,40072
2133,20155;2,39906
2131,1504;2,39621
2129,09924;2,39307
2127,04809;2,39092
2124,99693;2,38844
2122,94578;2,38357
2120,89462;2,37815
2118,84346;2,37469
2116,79231;2,37297
2114,74115;2,37123
2112,69;2,36852
2110,63884;2,36576
2108,58769;2,36392
2106,53653;2,36311
2104,48538;2,36304
2102,43422;2,36185
2100,38307;2,3589
2098,33191;2,35693
2096,28076;2,35723
2094,2296;2,35828
2092,17844;2,35906
2090,12729;2,3596
2088,07613;2,35865
2086,02498;2,35723
2083,97382;2,35837
2081,92267;2,36076
2079,87151;2,36126
2077,82036;2,36122
2075,7692;2,36227
2073,71805;2,36232
2071,66689;2,35991
2069,61574;2,3579
2067,56458;2,36011
2065,51343;2,36506
2063,46227;2,36818
2061,41111;2,36945
2059,35996;2,37101
2057,3088;2,3717
2055,25765;2,37054
2053,20649;2,36908
2051,15534;2,36849
2049,10418;2,36868
2047,05303;2,36941
2045,00187;2,37132
2042,95072;2,37422
2040,89956;2,37585
2038,84841;2,37539
2036,79725;2,37516
2034,7461;2,37647
2032,69494;2,37728
2030,64378;2,37809
2028,59263;2,38062
2026,54147;2,3814
2024,49032;2,37946
2022,43916;2,3796
2020,38801;2,38305
2018,33685;2,38619
2016,2857;2,38503
2014,23454;2,38073
2012,18339;2,37811
2010,13223;2,37822
2008,08108;2,38008
2006,02992;2,38218
2003,97877;2,38268
2001,92761;2,38254
1999,87645;2,38294
1997,8253;2,38374
1995,77414;2,38607
1993,72299;2,39066
1991,67183;2,39464
1989,62068;2,39541
1987,56952;2,39289
1985,51837;2,38909
1983,46721;2,389
1981,41606;2,39301
1979,3649;2,39605
1977,31375;2,39661
1975,26259;2,39662
1973,21144;2,39693
1971,16028;2,39941
1969,10912;2,40523
1967,05797;2,41115
1965,00681;2,41564
1962,95566;2,42014
1960,9045;2,42165
1958,85335;2,41826
1956,80219;2,41483
1954,75104;2,41347
1952,69988;2,41289
1950,64873;2,41476
1948,59757;2,41901
1946,54642;2,42246
1944,49526;2,42436
1942,44411;2,42515
1940,39295;2,42501
1938,34179;2,42484
1936,29064;2,42464
1934,23948;2,4251
1932,18833;2,42683
1930,13717;2,42909
1928,08602;2,43031
1926,03486;2,43175
1923,98371;2,43639
1921,93255;2,44058
1919,8814;2,44193
1917,83024;2,44163
1915,77909;2,4387
1913,72793;2,43657
1911,67678;2,43843
1909,62562;2,44221
1907,57446;2,44523
1905,52331;2,44754
1903,47215;2,44909
1901,421;2,44868
1899,36984;2,44655
1897,31869;2,44605
1895,26753;2,4482
1893,21638;2,4505
1891,16522;2,45456
1889,11407;2,46012
1887,06291;2,46204
1885,01176;2,46073
1882,9606;2,46014
1880,90945;2,46211
1878,85829;2,46562
1876,80713;2,46779
1874,75598;2,46774
1872,70482;2,47002
1870,65367;2,47942
1868,60251;2,48993
1866,55136;2,49067
1864,5002;2,486
1862,44905;2,48554
1860,39789;2,48956
1858,34674;2,49393
1856,29558;2,49733
1854,24443;2,50099
1852,19327;2,50586
1850,14212;2,51057
1848,09096;2,51359
1846,0398;2,51725
1843,98865;2,52254
1841,93749;2,52678
1839,88634;2,53102
1837,83518;2,53491
1835,78403;2,53584
1833,73287;2,53628
1831,68172;2,542
1829,63056;2,55165
1827,57941;2,55987
1825,52825;2,56569
1823,4771;2,56715
1821,42594;2,56717
1819,37478;2,57143
1817,32363;2,57774
1815,27247;2,58209
1813,22132;2,58713
1811,17016;2,59708
1809,11901;2,60875
1807,06785;2,61612
1805,0167;2,62283
1802,96554;2,63611
1800,91439;2,65152
1798,86323;2,65956
1796,81208;2,66154
1794,76092;2,66367
1792,70977;2,66548
1790,65861;2,66072
1788,60745;2,65064
1786,5563;2,64078
1784,50514;2,63373
1782,45399;2,63132
1780,40283;2,62958
1778,35168;2,62301
1776,30052;2,61583
1774,24937;2,61632
1772,19821;2,62433
1770,14706;2,62875
1768,0959;2,62613
1766,04475;2,62248
1763,99359;2,62088
1761,94244;2,61886
1759,89128;2,61646
1757,84012;2,61963
1755,78897;2,62753
1753,73781;2,63527
1751,68666;2,64329
1749,6355;2,64991
1747,58435;2,65241
1745,53319;2,6546
1743,48204;2,65782
1741,43088;2,65857
1739,37973;2,65512
1737,32857;2,65243
1735,27742;2,65856
1733,22626;2,66784
1731,17511;2,66724
1729,12395;2,65979
1727,07279;2,65497
1725,02164;2,65639
1722,97048;2,65835
1720,91933;2,66045
1718,86817;2,67086
1716,81702;2,68577
1714,76586;2,68962
1712,71471;2,68397
1710,66355;2,6818
1708,6124;2,68838
1706,56124;2,6948
1704,51009;2,69316
1702,45893;2,69277
1700,40778;2,7028
1698,35662;2,71542
1696,30546;2,72243
1694,25431;2,72255
1692,20315;2,72326
1690,152;2,72731
1688,10084;2,7303
1686,04969;2,73825
1683,99853;2,75477
1681,94738;2,76137
1679,89622;2,75619
1677,84507;2,75072
1675,79391;2,75022
1673,74276;2,75335
1671,6916;2,75757
1669,64045;2,7574
1667,58929;2,75032
1665,53813;2,74576
1663,48698;2,74917
1661,43582;2,75397
1659,38467;2,75097
1657,33351;2,74172
1655,28236;2,7384
1653,2312;2,74557
1651,18005;2,74902
1649,12889;2,75165
1647,07774;2,75461
1645,02658;2,7526
1642,97543;2,74785
1640,92427;2,74351
1638,87312;2,74248
1636,82196;2,74551
1634,7708;2,74214
1632,71965;2,73253
1630,66849;2,72938
1628,61734;2,73437
1626,56618;2,73919
1624,51503;2,73567
1622,46387;2,7265
1620,41272;2,72255
1618,36156;2,72759
1616,31041;2,73201
1614,25925;2,72703
1612,2081;2,71838
1610,15694;2,71154
1608,10579;2,70504
1606,05463;2,69677
1604,00347;2,68921
1601,95232;2,68369
1599,90116;2,67769
1597,85001;2,66988
1595,79885;2,66277
1593,7477;2,65829
1591,69654;2,65602
1589,64539;2,65438
1587,59423;2,65028
1585,54308;2,64103
1583,49192;2,62911
1581,44077;2,6203
1579,38961;2,6156
1577,33846;2,61014
1575,2873;2,59911
1573,23614;2,58894
1571,18499;2,58501
1569,13383;2,57974
1567,08268;2,5694
1565,03152;2,558
1562,98037;2,54824
1560,92921;2,54713
1558,87806;2,54719
1556,8269;2,52439
1554,77575;2,4957
1552,72459;2,47477
1550,67344;2,45768
1548,62228;2,43891
1546,57113;2,42616
1544,51997;2,42758
1542,46881;2,43744
1540,41766;2,43912
1538,3665;2,42274
1536,31535;2,41089
1534,26419;2,41133
1532,21304;2,41083
1530,16188;2,40779
1528,11073;2,40968
1526,05957;2,41319
1524,00842;2,41532
1521,95726;2,41993
1519,90611;2,42401
1517,85495;2,42524
1515,80379;2,42208
1513,75264;2,41573
1511,70148;2,41565
1509,65033;2,42939
1507,59917;2,44632
1505,54802;2,43924
1503,49686;2,42244
1501,44571;2,41866
1499,39455;2,42589
1497,3434;2,43446
1495,29224;2,43696
1493,24109;2,44174
1491,18993;2,4575
1489,13878;2,47439
1487,08762;2,47851
1485,03646;2,47542
1482,98531;2,47545
1480,93415;2,48048
1478,883;2,49069
1476,83184;2,50941
1474,78069;2,53519
1472,72953;2,55565
1470,67838;2,55994
1468,62722;2,55923
1466,57607;2,56702
1464,52491;2,57929
1462,47376;2,58564
1460,4226;2,59239
1458,37145;2,60694
1456,32029;2,61687
1454,26913;2,61531
1452,21798;2,61214
1450,16682;2,61157
1448,11567;2,6129
1446,06451;2,61244
1444,01336;2,61115
1441,9622;2,61306
1439,91105;2,62091
1437,85989;2,63223
1435,80874;2,63564
1433,75758;2,63097
1431,70643;2,63024
1429,65527;2,63406
1427,60412;2,63911
1425,55296;2,64447
1423,5018;2,64488
1421,45065;2,64121
1419,39949;2,64034
1417,34834;2,6369
1415,29718;2,62792
1413,24603;2,61873
1411,19487;2,61093
1409,14372;2,60614
1407,09256;2,60631
1405,04141;2,60732
1402,99025;2,60631
1400,9391;2,60879
1398,88794;2,61575
1396,83679;2,62324
1394,78563;2,63242
1392,73447;2,64249
1390,68332;2,65198
1388,63216;2,66137
1386,58101;2,66603
1384,52985;2,66699
1382,4787;2,67408
1380,42754;2,68674
1378,37639;2,69821
1376,32523;2,70685
1374,27408;2,70952
1372,22292;2,70545
1370,17177;2,70365
1368,12061;2,7082
1366,06946;2,71377
1364,0183;2,7153
1361,96714;2,71297
1359,91599;2,71102
1357,86483;2,71267
1355,81368;2,71718
1353,76252;2,72075
1351,71137;2,72176
1349,66021;2,72272
1347,60906;2,72292
1345,5579;2,7203
1343,50675;2,72106
1341,45559;2,7302
1339,40444;2,74
1337,35328;2,74236
1335,30213;2,73793
1333,25097;2,72994
1331,19981;2,72339
1329,14866;2,72355
1327,0975;2,73049
1325,04635;2,73843
1322,99519;2,74303
1320,94404;2,74558
1318,89288;2,74794
1316,84173;2,7494
1314,79057;2,74869
1312,73942;2,74636
1310,68826;2,74456
1308,63711;2,7436
1306,58595;2,74165
1304,5348;2,73912
1302,48364;2,73989
1300,43248;2,74335
1298,38133;2,74436
1296,33017;2,74665
1294,27902;2,75271
1292,22786;2,75271
1290,17671;2,74559
1288,12555;2,74258
1286,0744;2,74627
1284,02324;2,74955
1281,97209;2,74927
1279,92093;2,74848
1277,86978;2,74738
1275,81862;2,74511
1273,76747;2,74583
1271,71631;2,75131
1269,66515;2,75743
1267,614;2,75949
1265,56284;2,75895
1263,51169;2,76133
1261,46053;2,76679
1259,40938;2,7713
1257,35822;2,77435
1255,30707;2,77827
1253,25591;2,78206
1251,20476;2,7868
1249,1536;2,79449
1247,10245;2,79977
1245,05129;2,80063
1243,00013;2,80041
1240,94898;2,79866
1238,89782;2,79763
1236,84667;2,79972
1234,79551;2,8008
1232,74436;2,80194
1230,6932;2,80616
1228,64205;2,81031
1226,59089;2,81347
1224,53974;2,81883
1222,48858;2,82643
1220,43743;2,82709
1218,38627;2,82259
1216,33512;2,82554
1214,28396;2,83009
1212,2328;2,83096
1210,18165;2,83359
1208,13049;2,83473
1206,07934;2,8354
1204,02818;2,84004
1201,97703;2,846
1199,92587;2,85498
1197,87472;2,86252
1195,82356;2,86306
1193,77241;2,86784
1191,72125;2,87874
1189,6701;2,89098
1187,61894;2,90722
1185,56779;2,92031
1183,51663;2,92713
1181,46547;2,94004
1179,41432;2,96313
1177,36316;2,9872
1175,31201;3,00538
1173,26085;3,01019
1171,2097;3,00017
1169,15854;2,99718
1167,10739;3,0116
1165,05623;3,0251
1163,00508;3,03024
1160,95392;3,03649
1158,90277;3,0465
1156,85161;3,05612
1154,80046;3,06068
1152,7493;3,05325
1150,69814;3,04159
1148,64699;3,04554
1146,59583;3,05674
1144,54468;3,04885
1142,49352;3,03405
1140,44237;3,03039
1138,39121;3,03773
1136,34006;3,04262
1134,2889;3,02749
1132,23775;3,00663
1130,18659;2,99821
1128,13544;2,99099
1126,08428;2,97674
1124,03313;2,96132
1121,98197;2,94138
1119,93081;2,9044
1117,87966;2,86157
1115,8285;2,83618
1113,77735;2,83036
1111,72619;2,83212
1109,67504;2,83046
1107,62388;2,82509
1105,57273;2,82291
1103,52157;2,81732
1101,47042;2,79467
1099,41926;2,76065
1097,36811;2,73221
1095,31695;2,709
1093,2658;2,68174
1091,21464;2,65724
1089,16348;2,64005
1087,11233;2,6162
1085,06117;2,57735
1083,01002;2,54136
1080,95886;2,52325
1078,90771;2,51507
1076,85655;2,50428
1074,8054;2,48986
1072,75424;2,47634
1070,70309;2,46412
1068,65193;2,4526
1066,60078;2,44214
1064,54962;2,4299
1062,49847;2,41261
1060,44731;2,39173
1058,39615;2,37002
1056,345;2,34869
1054,29384;2,32768
1052,24269;2,30562
1050,19153;2,28329
1048,14038;2,26167
1046,08922;2,24092
1044,03807;2,22277
1041,98691;2,20831
1039,93576;2,19464
1037,8846;2,17967
1035,83345;2,16678
1033,78229;2,15962
1031,73114;2,15858
1029,67998;2,16303
1027,62882;2,17295
1025,57767;2,18692
1023,52651;2,20249
1021,47536;2,21568
1019,4242;2,22311
1017,37305;2,22538
1015,32189;2,22324
1013,27074;2,21794
1011,21958;2,21084
1009,16843;2,20414
1007,11727;2,20125
1005,06612;2,20228
1003,01496;2,20724
1000,96381;2,21745
998,91265;2,23093
996,86149;2,24574
994,81034;2,26361
992,75918;2,28435
990,70803;2,30315
988,65687;2,3174
986,60572;2,32972
984,55456;2,34004
982,50341;2,34598
980,45225;2,34983
978,4011;2,35495
976,34994;2,36131
974,29879;2,36827
972,24763;2,37683
970,19647;2,3851
968,14532;2,392
966,09416;2,401
964,04301;2,40933
961,99185;2,41486
959,9407;2,42507
957,88954;2,43915
955,83839;2,44911
953,78723;2,45956
951,73608;2,47449
949,68492;2,48435
947,63377;2,48687
945,58261;2,49138
943,53146;2,49749
941,4803;2,4975
939,42914;2,49436
937,37799;2,49507
935,32683;2,50091
933,27568;2,51124
931,22452;2,52166
929,17337;2,52766
927,12221;2,53048
925,07106;2,53186
923,0199;2,52873
920,96875;2,51925
918,91759;2,5039
916,86644;2,48054
914,81528;2,45628
912,76413;2,44326
910,71297;2,44147
908,66181;2,44447
906,61066;2,44531
904,5595;2,4422
902,50835;2,44202
900,45719;2,44833
898,40604;2,45911
896,35488;2,46844
894,30373;2,47186
892,25257;2,47287
890,20142;2,47463
888,15026;2,47588
886,09911;2,47639
884,04795;2,47784
881,9968;2,47829
879,94564;2,47739
877,89448;2,48149
875,84333;2,48786
873,79217;2,49051
871,74102;2,49469
869,68986;2,50371
867,63871;2,51639
865,58755;2,52952
863,5364;2,53858
861,48524;2,5459
859,43409;2,55156
857,38293;2,55117
855,33178;2,5517
853,28062;2,56142
851,22947;2,57615
849,17831;2,58706
847,12715;2,59036
845,076;2,59003
843,02484;2,58831
840,97369;2,58719
838,92253;2,59147
836,87138;2,60033
834,82022;2,60412
832,76907;2,60466
830,71791;2,6195
828,66676;2,64029
826,6156;2,64383
824,56445;2,63705
822,51329;2,63788
820,46214;2,64101
818,41098;2,63876
816,35982;2,64363
814,30867;2,65674
812,25751;2,66075
810,20636;2,6465
808,1552;2,62942
806,10405;2,62756
804,05289;2,63771
802,00174;2,64319
799,95058;2,6369
797,89943;2,62472
795,84827;2,61043
793,79712;2,59627
791,74596;2,59177
789,69481;2,59984
787,64365;2,60272
785,59249;2,59936
783,54134;2,60678
781,49018;2,6164
779,43903;2,61823
777,38787;2,62105
775,33672;2,62186
773,28556;2,61303
771,23441;2,60553
769,18325;2,61477
767,1321;2,63781
765,08094;2,65591
763,02979;2,65854
760,97863;2,65661
758,92748;2,66212
756,87632;2,66185
754,82516;2,6477
752,77401;2,63876
750,72285;2,64493
748,6717;2,65276
746,62054;2,65127
744,56939;2,65026
742,51823;2,65808
740,46708;2,66642
738,41592;2,66889
736,36477;2,66807
734,31361;2,66747
732,26246;2,67165
730,2113;2,68408
728,16015;2,69441
726,10899;2,6974
724,05783;2,71114
722,00668;2,73721
719,95552;2,75439
717,90437;2,74626
715,85321;2,7281
713,80206;2,71687
711,7509;2,70736
709,69975;2,69562
707,64859;2,68686
705,59744;2,69267
703,54628;2,70707
701,49513;2,70346
699,44397;2,69223
697,39281;2,69595
695,34166;2,69895
693,2905;2,69188
691,23935;2,68579
689,18819;2,6797
687,13704;2,67365
685,08588;2,67234
683,03473;2,66694
680,98357;2,65354
678,93242;2,64675
676,88126;2,65176
674,83011;2,65384
672,77895;2,64046
670,7278;2,61461
668,67664;2,59863
666,62548;2,61172
664,57433;2,62998
662,52317;2,63464
660,47202;2,63837
658,42086;2,64895
656,36971;2,65725
654,31855;2,65481
652,2674;2,64363
650,21624;2,63787
648,16509;2,64269
646,11393;2,64972
644,06278;2,66236
642,01162;2,67779
639,96047;2,67581
637,90931;2,66024
635,85815;2,65179
633,807;2,64609
631,75584;2,62903
629,70469;2,60986
627,65353;2,61235
625,60238;2,64086
623,55122;2,66765
621,50007;2,66778
619,44891;2,64568
617,39776;2,61576
615,3466;2,59151
613,29545;2,58483
611,24429;2,5963
609,19314;2,59733
607,14198;2,57251
605,09082;2,55372
603,03967;2,55597
600,98851;2,55535
598,93736;2,53648
596,8862;2,52619
594,83505;2,54352
592,78389;2,56653
590,73274;2,57476
588,68158;2,56647
586,63043;2,54361
584,57927;2,51969
582,52812;2,5023
580,47696;2,47899
578,42581;2,44831
576,37465;2,43161
574,32349;2,43615
572,27234;2,43579
570,22118;2,40966
568,17003;2,38661
566,11887;2,38401
564,06772;2,37513
562,01656;2,35182
559,96541;2,33312
557,91425;2,3216
555,8631;2,3083
553,81194;2,29166
551,76079;2,27377
549,70963;2,25312
547,65848;2,22895
545,60732;2,21036
543,55616;2,19899
541,50501;2,18646
539,45385;2,17466
537,4027;2,17057
535,35154;2,16908
533,30039;2,16621
531,24923;2,1717
529,19808;2,18576
527,14692;2,19875
525,09577;2,20824
523,04461;2,22012
520,99346;2,23696
518,9423;2,25087
516,89115;2,2616
514,83999;2,2742
512,78883;2,28899
510,73768;2,3054
508,68652;2,31414
506,63537;2,30841
504,58421;2,30486
502,53306;2,31227
500,4819;2,31295
498,43075;2,3015
496,37959;2,29283
494,32844;2,29865
492,27728;2,31405
490,22613;2,32128
488,17497;2,31311
486,12382;2,29106
484,07266;2,25463
482,0215;2,21402
479,97035;2,18163
477,91919;2,15609
475,86804;2,13259
473,81688;2,10986
471,76573;2,0887
469,71457;2,07213
467,66342;2,0616
465,61226;2,06258
463,56111;2,07921
461,50995;2,09609
459,4588;2,09708
457,40764;2,09752
455,35649;2,11878
453,30533;2,1523
451,25417;2,17717
449,20302;2,18749
447,15186;2,19179
445,10071;2,18432
443,04955;2,16175
440,9984;2,14802
438,94724;2,1509
436,89609;2,15377
434,84493;2,15028
432,79378;2,14729
430,74262;2,14825
428,69147;2,14531
426,64031;2,14224
424,58916;2,14424
422,538;2,14622
420,48684;2,15092
418,43569;2,1498
416,38453;2,1327
414,33338;2,1247
412,28222;2,13316
410,23107;2,13482
408,17991;2,12242
406,12876;2,11502
404,0776;2,12243
402,02645;2,13706
399,97529;2,15425
