3997,70175;1,87305
3995,6506;1,87354
3993,59944;1,87398
3991,54829;1,87363
3989,49713;1,87515
3987,44598;1,87901
3985,39482;1,88259
3983,34367;1,88574
3981,29251;1,8878
3979,24136;1,88734
3977,1902;1,88676
3975,13905;1,88809
3973,08789;1,8904
3971,03673;1,89387
3968,98558;1,89728
3966,93442;1,89736
3964,88327;1,89461
3962,83211;1,89309
3960,78096;1,89524
3958,7298;1,89886
3956,67865;1,90111
3954,62749;1,90234
3952,57634;1,90524
3950,52518;1,91112
3948,47403;1,9165
3946,42287;1,91832
3944,37172;1,91793
3942,32056;1,91692
3940,2694;1,91465
3938,21825;1,91098
3936,16709;1,90832
3934,11594;1,90866
3932,06478;1,9122
3930,01363;1,91486
3927,96247;1,91251
3925,91132;1,90673
3923,86016;1,9016
3921,80901;1,89734
3919,75785;1,89344
3917,7067;1,89152
3915,65554;1,88997
3913,60439;1,88544
3911,55323;1,87863
3909,50207;1,87376
3907,45092;1,8737
3905,39976;1,87904
3903,34861;1,88826
3901,29745;1,89506
3899,2463;1,89403
3897,19514;1,88776
3895,14399;1,88128
3893,09283;1,87757
3891,04168;1,87719
3888,99052;1,87746
3886,93937;1,87526
3884,88821;1,87677
3882,83706;1,88135
3880,7859;1,88127
3878,73474;1,87947
3876,68359;1,87745
3874,63243;1,87666
3872,58128;1,87923
3870,53012;1,88027
3868,47897;1,88081
3866,42781;1,87932
3864,37666;1,87674
3862,3255;1,87603
3860,27435;1,87351
3858,22319;1,86797
3856,17204;1,86088
3854,12088;1,86294
3852,06973;1,87817
3850,01857;1,88341
3847,96741;1,87397
3845,91626;1,86485
3843,8651;1,86468
3841,81395;1,86991
3839,76279;1,87192
3837,71164;1,8709
3835,66048;1,87093
3833,60933;1,86923
3831,55817;1,86537
3829,50702;1,86336
3827,45586;1,86287
3825,40471;1,86414
3823,35355;1,86627
3821,3024;1,8707
3819,25124;1,87796
3817,20008;1,8792
3815,14893;1,8784
3813,09777;1,87786
3811,04662;1,87261
3808,99546;1,86657
3806,94431;1,86695
3804,89315;1,87507
3802,842;1,88205
3800,79084;1,88892
3798,73969;1,89415
3796,68853;1,8918
3794,63738;1,88786
3792,58622;1,88432
3790,53506;1,88103
3788,48391;1,88083
3786,43275;1,88372
3784,3816;1,88724
3782,33044;1,89051
3780,27929;1,89437
3778,22813;1,89878
3776,17698;1,89933
3774,12582;1,89658
3772,07467;1,89637
3770,02351;1,90282
3767,97236;1,91376
3765,9212;1,91969
3763,87005;1,92007
3761,81889;1,9203
3759,76773;1,9254
3757,71658;1,93365
3755,66542;1,93787
3753,61427;1,93891
3751,56311;1,94423
3749,51196;1,954
3747,4608;1,95924
3745,40965;1,95929
3743,35849;1,9716
3741,30734;1,99019
3739,25618;1,99918
3737,20503;2,0095
3735,15387;2,02962
3733,10272;2,04461
3731,05156;2,04908
3729,0004;2,05495
3726,94925;2,07123
3724,89809;2,10005
3722,84694;2,13006
3720,79578;2,15343
3718,74463;2,17373
3716,69347;2,19829
3714,64232;2,23436
3712,59116;2,29027
3710,54001;2,36135
3708,48885;2,42597
3706,4377;2,4782
3704,38654;2,52434
3702,33539;2,572
3700,28423;2,62176
3698,23307;2,6556
3696,18192;2,66441
3694,13076;2,66154
3692,07961;2,65842
3690,02845;2,65292
3687,9773;2,6338
3685,92614;2,60394
3683,87499;2,57651
3681,82383;2,56216
3679,77268;2,56405
3677,72152;2,57214
3675,67037;2,57249
3673,61921;2,56847
3671,56806;2,56962
3669,5169;2,58125
3667,46574;2,59653
3665,41459;2,60138
3663,36343;2,59665
3661,31228;2,59259
3659,26112;2,59828
3657,20997;2,6122
3655,15881;2,63017
3653,10766;2,64961
3651,0565;2,66774
3649,00535;2,68608
3646,95419;2,70016
3644,90304;2,70503
3642,85188;2,69597
3640,80073;2,67659
3638,74957;2,66177
3636,69841;2,6605
3634,64726;2,66704
3632,5961;2,67302
3630,54495;2,67553
3628,49379;2,68536
3626,44264;2,70116
3624,39148;2,70821
3622,34033;2,70967
3620,28917;2,70973
3618,23802;2,71097
3616,18686;2,70678
3614,13571;2,68686
3612,08455;2,66805
3610,0334;2,66918
3607,98224;2,67617
3605,93108;2,66779
3603,87993;2,6539
3601,82877;2,65393
3599,77762;2,66451
3597,72646;2,67165
3595,67531;2,6773
3593,62415;2,68671
3591,573;2,69096
3589,52184;2,68679
3587,47069;2,68158
3585,41953;2,67491
3583,36838;2,66758
3581,31722;2,66601
3579,26607;2,66839
3577,21491;2,66576
3575,16375;2,65688
3573,1126;2,65574
3571,06144;2,67408
3569,01029;2,69876
3566,95913;2,70366
3564,90798;2,69049
3562,85682;2,68317
3560,80567;2,68417
3558,75451;2,68419
3556,70336;2,6848
3554,6522;2,69127
3552,60105;2,70175
3550,54989;2,70777
3548,49874;2,70571
3546,44758;2,7039
3544,39642;2,71039
3542,34527;2,72029
3540,29411;2,7253
3538,24296;2,72512
3536,1918;2,72503
3534,14065;2,72916
3532,08949;2,7374
3530,03834;2,74365
3527,98718;2,73834
3525,93603;2,72384
3523,88487;2,71403
3521,83372;2,71247
3519,78256;2,71137
3517,73141;2,70835
3515,68025;2,70733
3513,62909;2,71095
3511,57794;2,71849
3509,52678;2,72589
3507,47563;2,72529
3505,42447;2,71584
3503,37332;2,71383
3501,32216;2,72398
3499,27101;2,72736
3497,21985;2,72223
3495,1687;2,72656
3493,11754;2,73713
3491,06639;2,73635
3489,01523;2,72596
3486,96407;2,71996
3484,91292;2,72321
3482,86176;2,72648
3480,81061;2,72196
3478,75945;2,71788
3476,7083;2,72362
3474,65714;2,73006
3472,60599;2,72988
3470,55483;2,73581
3468,50368;2,75303
3466,45252;2,76303
3464,40137;2,75837
3462,35021;2,75068
3460,29906;2,74402
3458,2479;2,74314
3456,19674;2,74656
3454,14559;2,74978
3452,09443;2,75541
3450,04328;2,75532
3447,99212;2,74599
3445,94097;2,74089
3443,88981;2,7476
3441,83866;2,75624
3439,7875;2,75028
3437,73635;2,73632
3435,68519;2,73146
3433,63404;2,73735
3431,58288;2,74497
3429,53173;2,74231
3427,48057;2,73121
3425,42941;2,72489
3423,37826;2,72739
3421,3271;2,7335
3419,27595;2,73665
3417,22479;2,73506
3415,17364;2,73147
3413,12248;2,72399
3411,07133;2,71587
3409,02017;2,71937
3406,96902;2,73426
3404,91786;2,7481
3402,86671;2,75409
3400,81555;2,74822
3398,7644;2,74062
3396,71324;2,74673
3394,66208;2,75484
3392,61093;2,75192
3390,55977;2,75071
3388,50862;2,75931
3386,45746;2,76322
3384,40631;2,75387
3382,35515;2,7451
3380,304;2,74045
3378,25284;2,73342
3376,20169;2,73425
3374,15053;2,74907
3372,09938;2,7644
3370,04822;2,76538
3367,99707;2,75401
3365,94591;2,74562
3363,89475;2,74459
3361,8436;2,74631
3359,79244;2,74932
3357,74129;2,75198
3355,69013;2,75694
3353,63898;2,76249
3351,58782;2,76327
3349,53667;2,76502
3347,48551;2,76998
3345,43436;2,77003
3343,3832;2,76284
3341,33205;2,75256
3339,28089;2,74167
3337,22974;2,73474
3335,17858;2,74194
3333,12742;2,75795
3331,07627;2,76402
3329,02511;2,75676
3326,97396;2,7476
3324,9228;2,74219
3322,87165;2,73692
3320,82049;2,73259
3318,76934;2,7327
3316,71818;2,73666
3314,66703;2,74062
3312,61587;2,74087
3310,56472;2,73895
3308,51356;2,73744
3306,46241;2,74166
3304,41125;2,75042
3302,36009;2,75021
3300,30894;2,7364
3298,25778;2,72642
3296,20663;2,7339
3294,15547;2,74337
3292,10432;2,744
3290,05316;2,74311
3288,00201;2,73901
3285,95085;2,73189
3283,8997;2,72865
3281,84854;2,72369
3279,79739;2,71399
3277,74623;2,71086
3275,69508;2,7208
3273,64392;2,73257
3271,59276;2,73054
3269,54161;2,71825
3267,49045;2,71302
3265,4393;2,72244
3263,38814;2,73559
3261,33699;2,73679
3259,28583;2,72724
3257,23468;2,72184
3255,18352;2,72132
3253,13237;2,71376
3251,08121;2,6996
3249,03006;2,69031
3246,9789;2,69603
3244,92775;2,70709
3242,87659;2,71015
3240,82543;2,70659
3238,77428;2,69725
3236,72312;2,69178
3234,67197;2,70078
3232,62081;2,71531
3230,56966;2,71829
3228,5185;2,71045
3226,46735;2,70719
3224,41619;2,71344
3222,36504;2,7198
3220,31388;2,71715
3218,26273;2,70747
3216,21157;2,69593
3214,16041;2,68721
3212,10926;2,68916
3210,0581;2,70012
3208,00695;2,70626
3205,95579;2,70742
3203,90464;2,71399
3201,85348;2,71929
3199,80233;2,70912
3197,75117;2,69305
3195,70002;2,68999
3193,64886;2,69577
3191,59771;2,69767
3189,54655;2,6999
3187,4954;2,70714
3185,44424;2,71016
3183,39308;2,70577
3181,34193;2,70146
3179,29077;2,69516
3177,23962;2,68847
3175,18846;2,69092
3173,13731;2,69171
3171,08615;2,68217
3169,035;2,68133
3166,98384;2,69237
3164,93269;2,69464
3162,88153;2,68588
3160,83038;2,67992
3158,77922;2,68552
3156,72807;2,70234
3154,67691;2,71481
3152,62575;2,70957
3150,5746;2,69751
3148,52344;2,69552
3146,47229;2,70014
3144,42113;2,70169
3142,36998;2,69705
3140,31882;2,68635
3138,26767;2,68019
3136,21651;2,68158
3134,16536;2,67935
3132,1142;2,67327
3130,06305;2,67131
3128,01189;2,67291
3125,96074;2,67188
3123,90958;2,67064
3121,85842;2,67775
3119,80727;2,68826
3117,75611;2,68906
3115,70496;2,67863
3113,6538;2,67172
3111,60265;2,67811
3109,55149;2,68896
3107,50034;2,69063
3105,44918;2,67879
3103,39803;2,66534
3101,34687;2,66419
3099,29572;2,672
3097,24456;2,67876
3095,19341;2,68032
3093,14225;2,67743
3091,09109;2,67417
3089,03994;2,67166
3086,98878;2,66543
3084,93763;2,65293
3082,88647;2,64436
3080,83532;2,64785
3078,78416;2,65078
3076,73301;2,64545
3074,68185;2,64496
3072,6307;2,65397
3070,57954;2,66243
3068,52839;2,66458
3066,47723;2,6592
3064,42608;2,65244
3062,37492;2,65508
3060,32376;2,66067
3058,27261;2,65615
3056,22145;2,65104
3054,1703;2,65777
3052,11914;2,66354
3050,06799;2,65715
3048,01683;2,64861
3045,96568;2,63932
3043,91452;2,62693
3041,86337;2,62329
3039,81221;2,63114
3037,76106;2,6407
3035,7099;2,6483
3033,65875;2,65126
3031,60759;2,64711
3029,55643;2,64214
3027,50528;2,64115
3025,45412;2,63862
3023,40297;2,63578
3021,35181;2,64024
3019,30066;2,64669
3017,2495;2,6482
3015,19835;2,64683
3013,14719;2,64495
3011,09604;2,6482
3009,04488;2,66344
3006,99373;2,677
3004,94257;2,67641
3002,89142;2,67478
3000,84026;2,67379
2998,7891;2,6681
2996,73795;2,66815
2994,68679;2,67797
2992,63564;2,68379
2990,58448;2,68014
2988,53333;2,6758
2986,48217;2,67391
2984,43102;2,67654
2982,37986;2,68366
2980,32871;2,69071
2978,27755;2,7013
2976,2264;2,71443
2974,17524;2,72189
2972,12409;2,71745
2970,07293;2,708
2968,02177;2,71207
2965,97062;2,72693
2963,91946;2,73568
2961,86831;2,73481
2959,81715;2,73665
2957,766;2,74707
2955,71484;2,75401
2953,66369;2,74967
2951,61253;2,74083
2949,56138;2,7389
2947,51022;2,74475
2945,45907;2,7471
2943,40791;2,74645
2941,35675;2,75411
2939,3056;2,76025
2937,25444;2,75754
2935,20329;2,76009
2933,15213;2,76273
2931,10098;2,75893
2929,04982;2,75728
2926,99867;2,75316
2924,94751;2,73771
2922,89636;2,71282
2920,8452;2,69112
2918,79405;2,68419
2916,74289;2,68458
2914,69174;2,68222
2912,64058;2,67475
2910,58942;2,66734
2908,53827;2,6649
2906,48711;2,66045
2904,43596;2,65867
2902,3848;2,66561
2900,33365;2,66918
2898,28249;2,66985
2896,23134;2,67374
2894,18018;2,67343
2892,12903;2,6665
2890,07787;2,65707
2888,02672;2,65237
2885,97556;2,65502
2883,92441;2,6544
2881,87325;2,65029
2879,82209;2,65182
2877,77094;2,65788
2875,71978;2,66277
2873,66863;2,66692
2871,61747;2,67536
2869,56632;2,68363
2867,51516;2,6841
2865,46401;2,68473
2863,41285;2,69478
2861,3617;2,70449
2859,31054;2,70341
2857,25939;2,69605
2855,20823;2,68461
2853,15708;2,67396
2851,10592;2,66829
2849,05476;2,65756
2847,00361;2,6414
2844,95245;2,62906
2842,9013;2,62256
2840,85014;2,61823
2838,79899;2,61294
2836,74783;2,60783
2834,69668;2,59988
2832,64552;2,58769
2830,59437;2,57597
2828,54321;2,56928
2826,49206;2,56592
2824,4409;2,55958
2822,38975;2,54989
2820,33859;2,54068
2818,28743;2,53543
2816,23628;2,53439
2814,18512;2,53663
2812,13397;2,53809
2810,08281;2,52962
2808,03166;2,51279
2805,9805;2,5002
2803,92935;2,4974
2801,87819;2,49988
2799,82704;2,50359
2797,77588;2,5051
2795,72473;2,50188
2793,67357;2,49661
2791,62242;2,49134
2789,57126;2,48684
2787,5201;2,48315
2785,46895;2,47932
2783,41779;2,47629
2781,36664;2,4748
2779,31548;2,47226
2777,26433;2,46845
2775,21317;2,4687
2773,16202;2,4698
2771,11086;2,4659
2769,05971;2,46444
2767,00855;2,46644
2764,9574;2,46495
2762,90624;2,46251
2760,85509;2,46256
2758,80393;2,46146
2756,75277;2,45445
2754,70162;2,44822
2752,65046;2,4502
2750,59931;2,4537
2748,54815;2,45136
2746,497;2,44323
2744,44584;2,43642
2742,39469;2,43748
2740,34353;2,44186
2738,29238;2,443
2736,24122;2,44187
2734,19007;2,44051
2732,13891;2,43671
2730,08776;2,43103
2728,0366;2,42749
2725,98544;2,42833
2723,93429;2,43092
2721,88313;2,42998
2719,83198;2,42637
2717,78082;2,42372
2715,72967;2,42273
2713,67851;2,42109
2711,62736;2,41699
2709,5762;2,41409
2707,52505;2,41562
2705,47389;2,41775
2703,42274;2,41715
2701,37158;2,41566
2699,32043;2,41478
2697,26927;2,41422
2695,21811;2,4115
2693,16696;2,4066
2691,1158;2,40324
2689,06465;2,40347
2687,01349;2,40538
2684,96234;2,40511
2682,91118;2,40385
2680,86003;2,40504
2678,80887;2,40685
2676,75772;2,40631
2674,70656;2,40507
2672,65541;2,40593
2670,60425;2,40865
2668,55309;2,41021
2666,50194;2,4081
2664,45078;2,40421
2662,39963;2,40205
2660,34847;2,4024
2658,29732;2,40406
2656,24616;2,40399
2654,19501;2,40029
2652,14385;2,39638
2650,0927;2,39518
2648,04154;2,39451
2645,99039;2,39324
2643,93923;2,39301
2641,88808;2,39361
2639,83692;2,39607
2637,78576;2,40177
2635,73461;2,40652
2633,68345;2,40745
2631,6323;2,40805
2629,58114;2,41126
2627,52999;2,41709
2625,47883;2,42199
2623,42768;2,42126
2621,37652;2,41904
2619,32537;2,4216
2617,27421;2,4265
2615,22306;2,43078
2613,1719;2,43478
2611,12075;2,43796
2609,06959;2,43971
2607,01843;2,4414
2604,96728;2,4448
2602,91612;2,44852
2600,86497;2,45034
2598,81381;2,45137
2596,76266;2,45199
2594,7115;2,45177
2592,66035;2,45241
2590,60919;2,45415
2588,55804;2,45409
2586,50688;2,4507
2584,45573;2,44719
2582,40457;2,44663
2580,35342;2,44822
2578,30226;2,45138
2576,2511;2,4531
2574,19995;2,45024
2572,14879;2,44838
2570,09764;2,45039
2568,04648;2,4513
2565,99533;2,44966
2563,94417;2,44846
2561,89302;2,45033
2559,84186;2,45426
2557,79071;2,45423
2555,73955;2,45028
2553,6884;2,4525
2551,63724;2,45998
2549,58609;2,46151
2547,53493;2,46
2545,48377;2,46452
2543,43262;2,46975
2541,38146;2,47085
2539,33031;2,474
2537,27915;2,47902
2535,228;2,48257
2533,17684;2,48681
2531,12569;2,49555
2529,07453;2,50658
2527,02338;2,51409
2524,97222;2,52061
2522,92107;2,52657
2520,86991;2,53128
2518,81876;2,53748
2516,7676;2,54119
2514,71644;2,54016
2512,66529;2,53859
2510,61413;2,53993
2508,56298;2,54171
2506,51182;2,53671
2504,46067;2,52431
2502,40951;2,51038
2500,35836;2,50007
2498,3072;2,49528
2496,25605;2,49159
2494,20489;2,48364
2492,15374;2,47055
2490,10258;2,45551
2488,05143;2,44416
2486,00027;2,4372
2483,94911;2,43019
2481,89796;2,42115
2479,8468;2,41255
2477,79565;2,40446
2475,74449;2,39493
2473,69334;2,38691
2471,64218;2,38066
2469,59103;2,37341
2467,53987;2,36681
2465,48872;2,36203
2463,43756;2,35791
2461,38641;2,35243
2459,33525;2,34661
2457,2841;2,34295
2455,23294;2,33984
2453,18178;2,33725
2451,13063;2,33483
2449,07947;2,32943
2447,02832;2,32335
2444,97716;2,31906
2442,92601;2,31493
2440,87485;2,31095
2438,8237;2,3089
2436,77254;2,3097
2434,72139;2,30972
2432,67023;2,30572
2430,61908;2,3018
2428,56792;2,30138
2426,51677;2,30092
2424,46561;2,29796
2422,41445;2,295
2420,3633;2,29286
2418,31214;2,29034
2416,26099;2,28821
2414,20983;2,28746
2412,15868;2,28671
2410,10752;2,28582
2408,05637;2,28649
2406,00521;2,28749
2403,95406;2,28722
2401,9029;2,2852
2399,85175;2,28236
2397,80059;2,28096
2395,74944;2,28033
2393,69828;2,27851
2391,64712;2,27699
2389,59597;2,27793
2387,54481;2,27902
2385,49366;2,2773
2383,4425;2,27473
2381,39135;2,27393
2379,34019;2,27449
2377,28904;2,27605
2375,23788;2,2775
2373,18673;2,27646
2371,13557;2,27412
2369,08442;2,27239
2367,03326;2,27081
2364,9821;2,27124
2362,93095;2,27718
2360,87979;2,28825
2358,82864;2,29566
2356,77748;2,29388
2354,72633;2,28998
2352,67517;2,28858
2350,62402;2,28643
2348,57286;2,28015
2346,52171;2,27178
2344,47055;2,26859
2342,4194;2,27233
2340,36824;2,27384
2338,31709;2,26866
2336,26593;2,266
2334,21477;2,2735
2332,16362;2,28433
2330,11246;2,28655
2328,06131;2,27959
2326,01015;2,27406
2323,959;2,27667
2321,90784;2,28504
2319,85669;2,29314
2317,80553;2,2959
2315,75438;2,29236
2313,70322;2,28632
2311,65207;2,28203
2309,60091;2,28025
2307,54976;2,28032
2305,4986;2,28216
2303,44744;2,28518
2301,39629;2,2871
2299,34513;2,28633
2297,29398;2,28379
2295,24282;2,28084
2293,19167;2,27904
2291,14051;2,27943
2289,08936;2,28095
2287,0382;2,28163
2284,98705;2,28053
2282,93589;2,27905
2280,88474;2,27896
2278,83358;2,27959
2276,78243;2,28059
2274,73127;2,28216
2272,68011;2,28284
2270,62896;2,28253
2268,5778;2,28261
2266,52665;2,28246
2264,47549;2,28138
2262,42434;2,28024
2260,37318;2,2803
2258,32203;2,28231
2256,27087;2,28462
2254,21972;2,28659
2252,16856;2,29028
2250,11741;2,29456
2248,06625;2,29655
2246,0151;2,29699
2243,96394;2,29746
2241,91278;2,29487
2239,86163;2,29234
2237,81047;2,29428
2235,75932;2,29766
2233,70816;2,29984
2231,65701;2,30299
2229,60585;2,30692
2227,5547;2,30826
2225,50354;2,30731
2223,45239;2,30704
2221,40123;2,30823
2219,35008;2,30982
2217,29892;2,31165
2215,24777;2,31284
2213,19661;2,31274
2211,14545;2,31236
2209,0943;2,31112
2207,04314;2,31054
2204,99199;2,31324
2202,94083;2,31602
2200,88968;2,31587
2198,83852;2,31503
2196,78737;2,31572
2194,73621;2,31775
2192,68506;2,31956
2190,6339;2,32119
2188,58275;2,32316
2186,53159;2,32346
2184,48044;2,32313
2182,42928;2,32543
2180,37812;2,32842
2178,32697;2,33024
2176,27581;2,33112
2174,22466;2,33022
2172,1735;2,32967
2170,12235;2,33232
2168,07119;2,33747
2166,02004;2,34216
2163,96888;2,34428
2161,91773;2,3447
2159,86657;2,34583
2157,81542;2,34932
2155,76426;2,35531
2153,71311;2,36176
2151,66195;2,36673
2149,61079;2,36939
2147,55964;2,369
2145,50848;2,36851
2143,45733;2,37295
2141,40617;2,38016
2139,35502;2,38182
2137,30386;2,37846
2135,25271;2,37657
2133,20155;2,37581
2131,1504;2,37379
2129,09924;2,3714
2127,04809;2,36984
2124,99693;2,36975
2122,94578;2,37005
2120,89462;2,36808
2118,84346;2,36433
2116,79231;2,36101
2114,74115;2,35963
2112,69;2,36013
2110,63884;2,3589
2108,58769;2,35427
2106,53653;2,35127
2104,48538;2,35309
2102,43422;2,35498
2100,38307;2,35361
2098,33191;2,35107
2096,28076;2,35046
2094,2296;2,35353
2092,17844;2,35745
2090,12729;2,35701
2088,07613;2,35456
2086,02498;2,35522
2083,97382;2,3569
2081,92267;2,35892
2079,87151;2,3629
2077,82036;2,36675
2075,7692;2,36672
2073,71805;2,36244
2071,66689;2,35894
2069,61574;2,35913
2067,56458;2,36228
2065,51343;2,36649
2063,46227;2,36951
2061,41111;2,3712
2059,35996;2,37218
2057,3088;2,37297
2055,25765;2,37647
2053,20649;2,38261
2051,15534;2,38514
2049,10418;2,38312
2047,05303;2,38048
2045,00187;2,37977
2042,95072;2,38326
2040,89956;2,38639
2038,84841;2,38462
2036,79725;2,38393
2034,7461;2,38812
2032,69494;2,392
2030,64378;2,39264
2028,59263;2,39254
2026,54147;2,392
2024,49032;2,39159
2022,43916;2,3933
2020,38801;2,39644
2018,33685;2,39908
2016,2857;2,39906
2014,23454;2,39773
2012,18339;2,39867
2010,13223;2,40151
2008,08108;2,40357
2006,02992;2,4039
2003,97877;2,40388
2001,92761;2,40358
1999,87645;2,40207
1997,8253;2,4039
1995,77414;2,412
1993,72299;2,41907
1991,67183;2,41992
1989,62068;2,41942
1987,56952;2,41927
1985,51837;2,41761
1983,46721;2,4155
1981,41606;2,41501
1979,3649;2,41763
1977,31375;2,42154
1975,26259;2,42258
1973,21144;2,4216
1971,16028;2,4229
1969,10912;2,42725
1967,05797;2,43139
1965,00681;2,43484
1962,95566;2,43911
1960,9045;2,44403
1958,85335;2,4483
1956,80219;2,44943
1954,75104;2,44772
1952,69988;2,44794
1950,64873;2,4505
1948,59757;2,45047
1946,54642;2,4482
1944,49526;2,44822
1942,44411;2,45105
1940,39295;2,45425
1938,34179;2,45376
1936,29064;2,44966
1934,23948;2,44816
1932,18833;2,4521
1930,13717;2,45586
1928,08602;2,45671
1926,03486;2,45744
1923,98371;2,45864
1921,93255;2,46234
1919,8814;2,46776
1917,83024;2,47024
1915,77909;2,47064
1913,72793;2,4716
1911,67678;2,47297
1909,62562;2,4728
1907,57446;2,47172
1905,52331;2,46983
1903,47215;2,46776
1901,421;2,46863
1899,36984;2,47296
1897,31869;2,4779
1895,26753;2,48077
1893,21638;2,48206
1891,16522;2,48416
1889,11407;2,48824
1887,06291;2,49104
1885,01176;2,48876
1882,9606;2,48422
1880,90945;2,48415
1878,85829;2,49054
1876,80713;2,49603
1874,75598;2,49583
1872,70482;2,49576
1870,65367;2,50089
1868,60251;2,50905
1866,55136;2,51263
1864,5002;2,50981
1862,44905;2,50943
1860,39789;2,51555
1858,34674;2,52207
1856,29558;2,52495
1854,24443;2,52615
1852,19327;2,52801
1850,14212;2,53238
1848,09096;2,53868
1846,0398;2,54271
1843,98865;2,54469
1841,93749;2,54795
1839,88634;2,55013
1837,83518;2,55122
1835,78403;2,55375
1833,73287;2,55965
1831,68172;2,56847
1829,63056;2,57775
1827,57941;2,58405
1825,52825;2,58571
1823,4771;2,58777
1821,42594;2,59103
1819,37478;2,59328
1817,32363;2,59485
1815,27247;2,5977
1813,22132;2,60467
1811,17016;2,61644
1809,11901;2,62928
1807,06785;2,63899
1805,0167;2,64654
1802,96554;2,65719
1800,91439;2,67591
1798,86323;2,69679
1796,81208;2,70618
1794,76092;2,70256
1792,70977;2,69619
1790,65861;2,69453
1788,60745;2,69207
1786,5563;2,68473
1784,50514;2,67923
1782,45399;2,67918
1780,40283;2,68162
1778,35168;2,68369
1776,30052;2,68273
1774,24937;2,67969
1772,19821;2,67981
1770,14706;2,68587
1768,0959;2,69631
1766,04475;2,71541
1763,99359;2,74166
1761,94244;2,76977
1759,89128;2,7945
1757,84012;2,81006
1755,78897;2,82087
1753,73781;2,82991
1751,68666;2,83379
1749,6355;2,83136
1747,58435;2,81913
1745,53319;2,7986
1743,48204;2,77849
1741,43088;2,76276
1739,37973;2,75337
1737,32857;2,7494
1735,27742;2,74111
1733,22626;2,73221
1731,17511;2,72488
1729,12395;2,71349
1727,07279;2,70401
1725,02164;2,70124
1722,97048;2,70575
1720,91933;2,71522
1718,86817;2,72507
1716,81702;2,73258
1714,76586;2,73197
1712,71471;2,72671
1710,66355;2,72358
1708,6124;2,72316
1706,56124;2,72319
1704,51009;2,72163
1702,45893;2,7168
1700,40778;2,72166
1698,35662;2,74552
1696,30546;2,76166
1694,25431;2,76435
1692,20315;2,76041
1690,152;2,75723
1688,10084;2,76431
1686,04969;2,77631
1683,99853;2,79043
1681,94738;2,80088
1679,89622;2,79696
1677,84507;2,78419
1675,79391;2,77483
1673,74276;2,78009
1671,6916;2,78688
1669,64045;2,78052
1667,58929;2,77232
1665,53813;2,7687
1663,48698;2,7639
1661,43582;2,75712
1659,38467;2,74942
1657,33351;2,74116
1655,28236;2,72732
1653,2312;2,71173
1651,18005;2,71597
1649,12889;2,73107
1647,07774;2,73578
1645,02658;2,72685
1642,97543;2,71336
1640,92427;2,70279
1638,87312;2,69488
1636,82196;2,68516
1634,7708;2,6768
1632,71965;2,67283
1630,66849;2,66902
1628,61734;2,66583
1626,56618;2,66651
1624,51503;2,67127
1622,46387;2,67731
1620,41272;2,67771
1618,36156;2,66931
1616,31041;2,66025
1614,25925;2,65483
1612,2081;2,65012
1610,15694;2,64881
1608,10579;2,65109
1606,05463;2,65434
1604,00347;2,659
1601,95232;2,66259
1599,90116;2,66132
1597,85001;2,65842
1595,79885;2,65838
1593,7477;2,65844
1591,69654;2,65589
1589,64539;2,65402
1587,59423;2,65376
1585,54308;2,65447
1583,49192;2,6583
1581,44077;2,66504
1579,38961;2,67091
1577,33846;2,67195
1575,2873;2,6718
1573,23614;2,67172
1571,18499;2,66795
1569,13383;2,66549
1567,08268;2,662
1565,03152;2,65267
1562,98037;2,64496
1560,92921;2,64136
1558,87806;2,64596
1556,8269;2,65514
1554,77575;2,65699
1552,72459;2,6556
1550,67344;2,6503
1548,62228;2,63733
1546,57113;2,62359
1544,51997;2,62043
1542,46881;2,62984
1540,41766;2,63143
1538,3665;2,61571
1536,31535;2,59933
1534,26419;2,58414
1532,21304;2,5734
1530,16188;2,56503
1528,11073;2,55363
1526,05957;2,54548
1524,00842;2,54425
1521,95726;2,54459
1519,90611;2,54838
1517,85495;2,54919
1515,80379;2,54118
1513,75264;2,53051
1511,70148;2,52151
1509,65033;2,51514
1507,59917;2,50802
1505,54802;2,49992
1503,49686;2,49363
1501,44571;2,48644
1499,39455;2,47981
1497,3434;2,47837
1495,29224;2,4831
1493,24109;2,48706
1491,18993;2,4869
1489,13878;2,4892
1487,08762;2,49107
1485,03646;2,48981
1482,98531;2,49034
1480,93415;2,49427
1478,883;2,49991
1476,83184;2,50785
1474,78069;2,52082
1472,72953;2,53959
1470,67838;2,56214
1468,62722;2,57759
1466,57607;2,57949
1464,52491;2,57529
1462,47376;2,57546
1460,4226;2,5793
1458,37145;2,58312
1456,32029;2,58424
1454,26913;2,5774
1452,21798;2,56278
1450,16682;2,54918
1448,11567;2,54327
1446,06451;2,5422
1444,01336;2,5393
1441,9622;2,53512
1439,91105;2,53136
1437,85989;2,52594
1435,80874;2,5248
1433,75758;2,52717
1431,70643;2,52307
1429,65527;2,51579
1427,60412;2,51199
1425,55296;2,51116
1423,5018;2,51089
1421,45065;2,50676
1419,39949;2,49817
1417,34834;2,49194
1415,29718;2,48829
1413,24603;2,48518
1411,19487;2,48235
1409,14372;2,48093
1407,09256;2,48386
1405,04141;2,49234
1402,99025;2,5034
1400,9391;2,51287
1398,88794;2,52369
1396,83679;2,53758
1394,78563;2,54996
1392,73447;2,55911
1390,68332;2,56453
1388,63216;2,56852
1386,58101;2,57553
1384,52985;2,5855
1382,4787;2,59583
1380,42754;2,60503
1378,37639;2,61078
1376,32523;2,61481
1374,27408;2,61857
1372,22292;2,6168
1370,17177;2,60924
1368,12061;2,60528
1366,06946;2,60916
1364,0183;2,61505
1361,96714;2,6183
1359,91599;2,6194
1357,86483;2,62029
1355,81368;2,62224
1353,76252;2,6266
1351,71137;2,6331
1349,66021;2,6377
1347,60906;2,63757
1345,5579;2,63544
1343,50675;2,6371
1341,45559;2,64019
1339,40444;2,63645
1337,35328;2,63201
1335,30213;2,63692
1333,25097;2,64425
1331,19981;2,64359
1329,14866;2,63765
1327,0975;2,63537
1325,04635;2,64136
1322,99519;2,65374
1320,94404;2,66462
1318,89288;2,67074
1316,84173;2,67356
1314,79057;2,67018
1312,73942;2,66434
1310,68826;2,66353
1308,63711;2,66637
1306,58595;2,66965
1304,5348;2,67268
1302,48364;2,67546
1300,43248;2,67829
1298,38133;2,68105
1296,33017;2,68145
1294,27902;2,67985
1292,22786;2,68157
1290,17671;2,6843
1288,12555;2,68354
1286,0744;2,68465
1284,02324;2,69089
1281,97209;2,69803
1279,92093;2,69907
1277,86978;2,69483
1275,81862;2,69369
1273,76747;2,69667
1271,71631;2,70373
1269,66515;2,71871
1267,614;2,73143
1265,56284;2,72474
1263,51169;2,7103
1261,46053;2,70771
1259,40938;2,71329
1257,35822;2,71695
1255,30707;2,71526
1253,25591;2,71406
1251,20476;2,72142
1249,1536;2,73474
1247,10245;2,74194
1245,05129;2,73855
1243,00013;2,72973
1240,94898;2,72032
1238,89782;2,71325
1236,84667;2,71225
1234,79551;2,7172
1232,74436;2,71779
1230,6932;2,71034
1228,64205;2,70271
1226,59089;2,70056
1224,53974;2,70458
1222,48858;2,70648
1220,43743;2,69751
1218,38627;2,6882
1216,33512;2,68932
1214,28396;2,696
1212,2328;2,70519
1210,18165;2,71276
1208,13049;2,70987
1206,07934;2,70085
1204,02818;2,70187
1201,97703;2,71247
1199,92587;2,7171
1197,87472;2,71571
1195,82356;2,71808
1193,77241;2,72289
1191,72125;2,72883
1189,6701;2,74084
1187,61894;2,75439
1185,56779;2,7615
1183,51663;2,7653
1181,46547;2,76658
1179,41432;2,76189
1177,36316;2,75877
1175,31201;2,76322
1173,26085;2,77104
1171,2097;2,77697
1169,15854;2,77477
1167,10739;2,76835
1165,05623;2,76888
1163,00508;2,77375
1160,95392;2,77362
1158,90277;2,77417
1156,85161;2,77921
1154,80046;2,7772
1152,7493;2,76936
1150,69814;2,76708
1148,64699;2,77524
1146,59583;2,79102
1144,54468;2,80249
1142,49352;2,79715
1140,44237;2,7854
1138,39121;2,78971
1136,34006;2,80822
1134,2889;2,81856
1132,23775;2,81573
1130,18659;2,81565
1128,13544;2,82914
1126,08428;2,84712
1124,03313;2,85328
1121,98197;2,84939
1119,93081;2,84257
1117,87966;2,83718
1115,8285;2,83493
1113,77735;2,82928
1111,72619;2,81953
1109,67504;2,81229
1107,62388;2,81143
1105,57273;2,81125
1103,52157;2,80724
1101,47042;2,81065
1099,41926;2,81606
1097,36811;2,80026
1095,31695;2,7711
1093,2658;2,74958
1091,21464;2,73618
1089,16348;2,72785
1087,11233;2,73146
1085,06117;2,73968
1083,01002;2,7374
1080,95886;2,72942
1078,90771;2,7208
1076,85655;2,71691
1074,8054;2,72417
1072,75424;2,7322
1070,70309;2,73259
1068,65193;2,72484
1066,60078;2,71588
1064,54962;2,71639
1062,49847;2,71702
1060,44731;2,70712
1058,39615;2,69646
1056,345;2,68576
1054,29384;2,66693
1052,24269;2,64245
1050,19153;2,61075
1048,14038;2,57342
1046,08922;2,54357
1044,03807;2,52077
1041,98691;2,49424
1039,93576;2,46481
1037,8846;2,44156
1035,83345;2,42452
1033,78229;2,41066
1031,73114;2,40022
1029,67998;2,39387
1027,62882;2,39423
1025,57767;2,40345
1023,52651;2,41943
1021,47536;2,43647
1019,4242;2,44839
1017,37305;2,44934
1015,32189;2,43828
1013,27074;2,41976
1011,21958;2,39973
1009,16843;2,38562
1007,11727;2,37981
1005,06612;2,38058
1003,01496;2,38807
1000,96381;2,39832
998,91265;2,40458
996,86149;2,40796
994,81034;2,41574
992,75918;2,43042
990,70803;2,44233
988,65687;2,44581
986,60572;2,45222
984,55456;2,46535
982,50341;2,47433
980,45225;2,47895
978,4011;2,4865
976,34994;2,49575
974,29879;2,50231
972,24763;2,50812
970,19647;2,51433
968,14532;2,51813
966,09416;2,52213
964,04301;2,52277
961,99185;2,51691
959,9407;2,5172
957,88954;2,52602
955,83839;2,53446
953,78723;2,54732
951,73608;2,56559
949,68492;2,57472
947,63377;2,57273
945,58261;2,5698
943,53146;2,56879
941,4803;2,56996
939,42914;2,57313
937,37799;2,57649
935,32683;2,58023
933,27568;2,57893
931,22452;2,57154
929,17337;2,5687
927,12221;2,57435
925,07106;2,57878
923,0199;2,57288
920,96875;2,56087
918,91759;2,54659
916,86644;2,53148
914,81528;2,51348
912,76413;2,49399
910,71297;2,48388
908,66181;2,48331
906,61066;2,48662
904,5595;2,49245
902,50835;2,49863
900,45719;2,50218
898,40604;2,50378
896,35488;2,50536
894,30373;2,50206
892,25257;2,49205
890,20142;2,47829
888,15026;2,4684
886,09911;2,47089
884,04795;2,47942
881,9968;2,48761
879,94564;2,49481
877,89448;2,49325
875,84333;2,48983
873,79217;2,49404
871,74102;2,50039
869,68986;2,51519
867,63871;2,54104
865,58755;2,55863
863,5364;2,55421
861,48524;2,54065
859,43409;2,54149
857,38293;2,55974
855,33178;2,5753
853,28062;2,57771
851,22947;2,58389
849,17831;2,59571
847,12715;2,58998
845,076;2,57535
843,02484;2,57503
840,97369;2,5793
838,92253;2,57807
836,87138;2,58042
834,82022;2,58627
832,76907;2,59012
830,71791;2,59591
828,66676;2,60273
826,6156;2,6076
824,56445;2,61126
822,51329;2,61446
820,46214;2,6123
818,41098;2,61271
816,35982;2,62885
814,30867;2,6429
812,25751;2,64002
810,20636;2,63548
808,1552;2,6356
806,10405;2,63018
804,05289;2,61889
802,00174;2,61144
799,95058;2,60565
797,89943;2,60299
795,84827;2,61057
793,79712;2,62342
791,74596;2,6235
789,69481;2,60872
787,64365;2,60215
785,59249;2,60904
783,54134;2,61275
781,49018;2,60192
779,43903;2,59311
777,38787;2,60268
775,33672;2,60722
773,28556;2,59354
771,23441;2,58703
769,18325;2,59754
767,1321;2,61061
765,08094;2,61662
763,02979;2,61121
760,97863;2,5994
758,92748;2,59513
756,87632;2,60508
754,82516;2,61654
752,77401;2,61711
750,72285;2,61581
748,6717;2,61706
746,62054;2,62141
744,56939;2,6349
742,51823;2,64986
740,46708;2,66235
738,41592;2,66306
736,36477;2,6528
734,31361;2,6552
732,26246;2,66102
730,2113;2,66001
728,16015;2,66598
726,10899;2,67843
724,05783;2,67838
722,00668;2,66687
719,95552;2,66248
717,90437;2,66669
715,85321;2,67656
713,80206;2,69086
711,7509;2,6944
709,69975;2,68646
707,64859;2,68427
705,59744;2,68535
703,54628;2,67392
701,49513;2,6623
699,44397;2,67037
697,39281;2,6809
695,34166;2,67618
693,2905;2,66448
691,23935;2,64518
689,18819;2,62696
687,13704;2,6333
685,08588;2,65614
683,03473;2,6734
680,98357;2,67679
678,93242;2,65895
676,88126;2,6271
674,83011;2,61049
672,77895;2,61988
670,7278;2,63556
668,67664;2,63982
666,62548;2,63738
664,57433;2,63743
662,52317;2,63824
660,47202;2,64249
658,42086;2,64719
656,36971;2,64348
654,31855;2,6418
652,2674;2,6547
650,21624;2,6716
648,16509;2,67684
646,11393;2,67034
644,06278;2,65777
642,01162;2,64378
639,96047;2,644
637,90931;2,66558
635,85815;2,68399
633,807;2,6741
631,75584;2,65275
629,70469;2,63572
627,65353;2,61553
625,60238;2,59663
623,55122;2,59655
621,50007;2,61294
619,44891;2,62229
617,39776;2,61943
615,3466;2,62679
613,29545;2,65187
611,24429;2,67825
609,19314;2,69354
607,14198;2,67633
605,09082;2,64103
603,03967;2,63207
600,98851;2,63801
598,93736;2,62483
596,8862;2,59365
594,83505;2,57244
592,78389;2,57648
590,73274;2,59052
588,68158;2,59715
586,63043;2,58009
584,57927;2,55568
582,52812;2,57441
580,47696;2,63452
578,42581;2,66585
576,37465;2,65228
574,32349;2,62223
572,27234;2,59037
570,22118;2,55947
568,17003;2,53001
566,11887;2,50394
564,06772;2,48746
562,01656;2,48489
559,96541;2,49631
557,91425;2,50404
555,8631;2,48788
553,81194;2,45625
551,76079;2,42977
549,70963;2,40713
547,65848;2,37632
545,60732;2,35369
543,55616;2,35061
541,50501;2,34612
539,45385;2,33642
537,4027;2,33147
535,35154;2,32649
533,30039;2,32202
531,24923;2,3239
529,19808;2,32759
527,14692;2,32899
525,09577;2,33241
523,04461;2,34527
520,99346;2,35977
518,9423;2,36359
516,89115;2,3682
514,83999;2,38276
512,78883;2,39698
510,73768;2,40087
508,68652;2,39444
506,63537;2,39661
504,58421;2,42241
502,53306;2,44667
500,4819;2,43928
498,43075;2,40595
496,37959;2,36756
494,32844;2,35254
492,27728;2,38471
490,22613;2,45372
488,17497;2,51437
486,12382;2,52542
484,07266;2,48476
482,0215;2,43223
479,97035;2,39355
477,91919;2,35971
475,86804;2,31337
473,81688;2,25591
471,76573;2,21774
469,71457;2,20988
467,66342;2,20083
465,61226;2,17808
463,56111;2,1721
461,50995;2,19737
459,4588;2,23071
457,40764;2,25784
455,35649;2,27957
453,30533;2,29364
451,25417;2,29982
449,20302;2,30415
447,15186;2,32093
445,10071;2,34866
443,04955;2,36328
440,9984;2,35642
438,94724;2,34532
436,89609;2,33124
434,84493;2,30401
432,79378;2,27635
430,74262;2,2681
428,69147;2,27871
426,64031;2,28774
424,58916;2,26815
422,538;2,2346
420,48684;2,23278
418,43569;2,24291
416,38453;2,20999
414,33338;2,16846
412,28222;2,16054
410,23107;2,17736
408,17991;2,2
406,12876;2,21101
404,0776;2,21134
402,02645;2,23362
399,97529;2,27893
