3997,70175;1,94078
3995,6506;1,9442
3993,59944;1,94752
3991,54829;1,94979
3989,49713;1,94984
3987,44598;1,94835
3985,39482;1,94706
3983,34367;1,9458
3981,29251;1,94538
3979,24136;1,94802
3977,1902;1,95413
3975,13905;1,96094
3973,08789;1,96526
3971,03673;1,96643
3968,98558;1,96448
3966,93442;1,96246
3964,88327;1,96549
3962,83211;1,97149
3960,78096;1,97517
3958,7298;1,97762
3956,67865;1,98074
3954,62749;1,98469
3952,57634;1,99131
3950,52518;1,99946
3948,47403;2,00394
3946,42287;2,00599
3944,37172;2,01122
3942,32056;2,01286
3940,2694;2,00296
3938,21825;1,99119
3936,16709;1,99073
3934,11594;2,00228
3932,06478;2,01239
3930,01363;2,00916
3927,96247;2,00146
3925,91132;1,9997
3923,86016;1,9968
3921,80901;1,99013
3919,75785;1,98754
3917,7067;1,98479
3915,65554;1,97164
3913,60439;1,95341
3911,55323;1,94187
3909,50207;1,94216
3907,45092;1,96
3905,39976;1,99471
3903,34861;2,02559
3901,29745;2,02995
3899,2463;2,00556
3897,19514;1,97167
3895,14399;1,95829
3893,09283;1,97046
3891,04168;1,9786
3888,99052;1,9722
3886,93937;1,97324
3884,88821;1,98278
3882,83706;1,98924
3880,7859;1,98624
3878,73474;1,96896
3876,68359;1,9573
3874,63243;1,96728
3872,58128;1,98904
3870,53012;2,00609
3868,47897;2,00717
3866,42781;2,00208
3864,37666;1,99554
3862,3255;1,97535
3860,27435;1,95197
3858,22319;1,95323
3856,17204;1,99286
3854,12088;2,04322
3852,06973;2,04087
3850,01857;1,98877
3847,96741;1,94711
3845,91626;1,94151
3843,8651;1,96185
3841,81395;1,9929
3839,76279;2,02144
3837,71164;2,02966
3835,66048;2,01489
3833,60933;1,99425
3831,55817;1,97667
3829,50702;1,96435
3827,45586;1,95914
3825,40471;1,96436
3823,35355;1,98952
3821,3024;2,0217
3819,25124;2,03081
3817,20008;2,0199
3815,14893;1,99381
3813,09777;1,9588
3811,04662;1,9424
3808,99546;1,9568
3806,94431;1,98249
3804,89315;2,00341
3802,842;2,02594
3800,79084;2,03768
3798,73969;2,02667
3796,68853;2,00497
3794,63738;1,97954
3792,58622;1,95975
3790,53506;1,95361
3788,48391;1,95975
3786,43275;1,97265
3784,3816;1,98419
3782,33044;1,99413
3780,27929;2,00384
3778,22813;2,00147
3776,17698;1,98835
3774,12582;1,98558
3772,07467;2,00282
3770,02351;2,02608
3767,97236;2,0371
3765,9212;2,03483
3763,87005;2,0303
3761,81889;2,03887
3759,76773;2,05776
3757,71658;2,06787
3755,66542;2,07763
3753,61427;2,11258
3751,56311;2,16028
3749,51196;2,17855
3747,4608;2,17499
3745,40965;2,17898
3743,35849;2,17548
3741,30734;2,16157
3739,25618;2,17451
3737,20503;2,22748
3735,15387;2,27601
3733,10272;2,2686
3731,05156;2,22743
3729,0004;2,20969
3726,94925;2,23512
3724,89809;2,28171
3722,84694;2,32053
3720,79578;2,34321
3718,74463;2,35938
3716,69347;2,3883
3714,64232;2,45009
3712,59116;2,54001
3710,54001;2,61035
3708,48885;2,63278
3706,4377;2,64636
3704,38654;2,6881
3702,33539;2,75086
3700,28423;2,80128
3698,23307;2,8249
3696,18192;2,8358
3694,13076;2,84812
3692,07961;2,868
3690,02845;2,87815
3687,9773;2,84657
3685,92614;2,78871
3683,87499;2,74605
3681,82383;2,73909
3679,77268;2,76542
3677,72152;2,80529
3675,67037;2,82725
3673,61921;2,82477
3671,56806;2,83132
3669,5169;2,83725
3667,46574;2,80537
3665,41459;2,75615
3663,36343;2,72918
3661,31228;2,73385
3659,26112;2,75567
3657,20997;2,77431
3655,15881;2,77933
3653,10766;2,79126
3651,0565;2,83906
3649,00535;2,89417
3646,95419;2,8914
3644,90304;2,84326
3642,85188;2,80155
3640,80073;2,78309
3638,74957;2,78656
3636,69841;2,80476
3634,64726;2,83184
3632,5961;2,87199
3630,54495;2,91245
3628,49379;2,91215
3626,44264;2,87018
3624,39148;2,84024
3622,34033;2,83839
3620,28917;2,83586
3618,23802;2,81563
3616,18686;2,80099
3614,13571;2,80744
3612,08455;2,81611
3610,0334;2,8197
3607,98224;2,83008
3605,93108;2,83773
3603,87993;2,82802
3601,82877;2,80806
3599,77762;2,78953
3597,72646;2,78931
3595,67531;2,80949
3593,62415;2,81437
3591,573;2,79716
3589,52184;2,79863
3587,47069;2,81734
3585,41953;2,81401
3583,36838;2,78959
3581,31722;2,77194
3579,26607;2,77097
3577,21491;2,77548
3575,16375;2,7741
3573,1126;2,77312
3571,06144;2,79146
3569,01029;2,83197
3566,95913;2,86422
3564,90798;2,85244
3562,85682;2,81338
3560,80567;2,78882
3558,75451;2,78651
3556,70336;2,79426
3554,6522;2,80597
3552,60105;2,81764
3550,54989;2,82591
3548,49874;2,83208
3546,44758;2,83757
3544,39642;2,83474
3542,34527;2,8189
3540,29411;2,80365
3538,24296;2,80084
3536,1918;2,80121
3534,14065;2,79512
3532,08949;2,79323
3530,03834;2,80731
3527,98718;2,82909
3525,93603;2,8397
3523,88487;2,83177
3521,83372;2,81592
3519,78256;2,81085
3517,73141;2,81787
3515,68025;2,8197
3513,62909;2,81721
3511,57794;2,82391
3509,52678;2,82817
3507,47563;2,81376
3505,42447;2,79286
3503,37332;2,78444
3501,32216;2,78683
3499,27101;2,78758
3497,21985;2,78789
3495,1687;2,79467
3493,11754;2,80402
3491,06639;2,80584
3489,01523;2,79868
3486,96407;2,80103
3484,91292;2,82206
3482,86176;2,83889
3480,81061;2,83451
3478,75945;2,82432
3476,7083;2,82658
3474,65714;2,84144
3472,60599;2,85392
3470,55483;2,84681
3468,50368;2,82713
3466,45252;2,81513
3464,40137;2,81638
3462,35021;2,8251
3460,29906;2,83189
3458,2479;2,83727
3456,19674;2,84134
3454,14559;2,83003
3452,09443;2,81047
3450,04328;2,81447
3447,99212;2,84085
3445,94097;2,85315
3443,88981;2,8382
3441,83866;2,81718
3439,7875;2,81017
3437,73635;2,81996
3435,68519;2,8344
3433,63404;2,83892
3431,58288;2,83462
3429,53173;2,83119
3427,48057;2,82257
3425,42941;2,80893
3423,37826;2,80811
3421,3271;2,81199
3419,27595;2,8082
3417,22479;2,81123
3415,17364;2,82346
3413,12248;2,8352
3411,07133;2,83703
3409,02017;2,82763
3406,96902;2,82546
3404,91786;2,83757
3402,86671;2,84494
3400,81555;2,83839
3398,7644;2,82847
3396,71324;2,82892
3394,66208;2,83485
3392,61093;2,83908
3390,55977;2,83368
3388,50862;2,82357
3386,45746;2,82142
3384,40631;2,82689
3382,35515;2,83036
3380,304;2,82963
3378,25284;2,82367
3376,20169;2,82021
3374,15053;2,82959
3372,09938;2,83964
3370,04822;2,84092
3367,99707;2,84634
3365,94591;2,85108
3363,89475;2,83223
3361,8436;2,8091
3359,79244;2,81678
3357,74129;2,84541
3355,69013;2,85853
3353,63898;2,84567
3351,58782;2,83111
3349,53667;2,82719
3347,48551;2,8175
3345,43436;2,80618
3343,3832;2,81289
3341,33205;2,83102
3339,28089;2,83981
3337,22974;2,83378
3335,17858;2,82592
3333,12742;2,82481
3331,07627;2,82182
3329,02511;2,8124
3326,97396;2,80311
3324,9228;2,79835
3322,87165;2,80114
3320,82049;2,81107
3318,76934;2,81603
3316,71818;2,81045
3314,66703;2,80628
3312,61587;2,80576
3310,56472;2,80353
3308,51356;2,80294
3306,46241;2,8082
3304,41125;2,81503
3302,36009;2,81027
3300,30894;2,79696
3298,25778;2,79097
3296,20663;2,79286
3294,15547;2,79064
3292,10432;2,78307
3290,05316;2,78306
3288,00201;2,79096
3285,95085;2,79581
3283,8997;2,79761
3281,84854;2,80427
3279,79739;2,81051
3277,74623;2,81022
3275,69508;2,80705
3273,64392;2,80261
3271,59276;2,80121
3269,54161;2,80172
3267,49045;2,79771
3265,4393;2,7939
3263,38814;2,7909
3261,33699;2,7855
3259,28583;2,78446
3257,23468;2,78701
3255,18352;2,78544
3253,13237;2,77711
3251,08121;2,76987
3249,03006;2,77959
3246,9789;2,7983
3244,92775;2,79981
3242,87659;2,78159
3240,82543;2,76388
3238,77428;2,75773
3236,72312;2,75887
3234,67197;2,76048
3232,62081;2,76728
3230,56966;2,78233
3228,5185;2,79134
3226,46735;2,78802
3224,41619;2,78599
3222,36504;2,79589
3220,31388;2,81245
3218,26273;2,81659
3216,21157;2,79951
3214,16041;2,77786
3212,10926;2,76019
3210,0581;2,74989
3208,00695;2,75422
3205,95579;2,76626
3203,90464;2,77072
3201,85348;2,76835
3199,80233;2,77045
3197,75117;2,77215
3195,70002;2,76357
3193,64886;2,75402
3191,59771;2,75228
3189,54655;2,75656
3187,4954;2,76256
3185,44424;2,76432
3183,39308;2,76005
3181,34193;2,75824
3179,29077;2,76096
3177,23962;2,75542
3175,18846;2,74212
3173,13731;2,73279
3171,08615;2,73303
3169,035;2,74649
3166,98384;2,76095
3164,93269;2,75625
3162,88153;2,74165
3160,83038;2,74018
3158,77922;2,74958
3156,72807;2,75155
3154,67691;2,74626
3152,62575;2,74572
3150,5746;2,75077
3148,52344;2,75109
3146,47229;2,74424
3144,42113;2,74243
3142,36998;2,75267
3140,31882;2,76505
3138,26767;2,76449
3136,21651;2,75457
3134,16536;2,74968
3132,1142;2,75005
3130,06305;2,74837
3128,01189;2,7442
3125,96074;2,74224
3123,90958;2,74327
3121,85842;2,74794
3119,80727;2,75348
3117,75611;2,75343
3115,70496;2,74891
3113,6538;2,74179
3111,60265;2,73444
3109,55149;2,73266
3107,50034;2,73841
3105,44918;2,74118
3103,39803;2,7353
3101,34687;2,73353
3099,29572;2,73799
3097,24456;2,73973
3095,19341;2,73809
3093,14225;2,73199
3091,09109;2,72259
3089,03994;2,71697
3086,98878;2,72096
3084,93763;2,73027
3082,88647;2,73528
3080,83532;2,73383
3078,78416;2,72825
3076,73301;2,72605
3074,68185;2,73116
3072,6307;2,73481
3070,57954;2,73149
3068,52839;2,72751
3066,47723;2,72801
3064,42608;2,72968
3062,37492;2,72683
3060,32376;2,72139
3058,27261;2,71714
3056,22145;2,71518
3054,1703;2,7187
3052,11914;2,72352
3050,06799;2,721
3048,01683;2,71428
3045,96568;2,7096
3043,91452;2,70475
3041,86337;2,70141
3039,81221;2,70515
3037,76106;2,71045
3035,7099;2,71353
3033,65875;2,71607
3031,60759;2,71522
3029,55643;2,71542
3027,50528;2,71447
3025,45412;2,70316
3023,40297;2,68978
3021,35181;2,68483
3019,30066;2,68484
3017,2495;2,68619
3015,19835;2,6926
3013,14719;2,70143
3011,09604;2,70258
3009,04488;2,69703
3006,99373;2,69733
3004,94257;2,7029
3002,89142;2,70316
3000,84026;2,70337
2998,7891;2,70969
2996,73795;2,71314
2994,68679;2,71254
2992,63564;2,71322
2990,58448;2,71806
2988,53333;2,72665
2986,48217;2,7306
2984,43102;2,7288
2982,37986;2,72714
2980,32871;2,72898
2978,27755;2,7333
2976,2264;2,73463
2974,17524;2,73329
2972,12409;2,7302
2970,07293;2,72814
2968,02177;2,72821
2965,97062;2,72346
2963,91946;2,7161
2961,86831;2,71526
2959,81715;2,71848
2957,766;2,71798
2955,71484;2,71193
2953,66369;2,70086
2951,61253;2,69587
2949,56138;2,70339
2947,51022;2,71337
2945,45907;2,71704
2943,40791;2,71281
2941,35675;2,70161
2939,3056;2,69218
2937,25444;2,69364
2935,20329;2,70244
2933,15213;2,70584
2931,10098;2,69931
2929,04982;2,69052
2926,99867;2,68568
2924,94751;2,68441
2922,89636;2,68552
2920,8452;2,69233
2918,79405;2,69813
2916,74289;2,69261
2914,69174;2,68479
2912,64058;2,6813
2910,58942;2,67858
2908,53827;2,67931
2906,48711;2,68453
2904,43596;2,68466
2902,3848;2,67674
2900,33365;2,67339
2898,28249;2,67706
2896,23134;2,67431
2894,18018;2,66936
2892,12903;2,67337
2890,07787;2,6777
2888,02672;2,67347
2885,97556;2,66583
2883,92441;2,66278
2881,87325;2,66245
2879,82209;2,65832
2877,77094;2,65544
2875,71978;2,659
2873,66863;2,66172
2871,61747;2,66097
2869,56632;2,66349
2867,51516;2,668
2865,46401;2,67089
2863,41285;2,67394
2861,3617;2,66486
2859,31054;2,6431
2857,25939;2,63359
2855,20823;2,64287
2853,15708;2,65499
2851,10592;2,65706
2849,05476;2,64955
2847,00361;2,63728
2844,95245;2,62557
2842,9013;2,6192
2840,85014;2,61823
2838,79899;2,6172
2836,74783;2,60902
2834,69668;2,59932
2832,64552;2,59494
2830,59437;2,59343
2828,54321;2,59087
2826,49206;2,58403
2824,4409;2,57504
2822,38975;2,5714
2820,33859;2,57411
2818,28743;2,5747
2816,23628;2,57153
2814,18512;2,56997
2812,13397;2,56834
2810,08281;2,56359
2808,03166;2,55908
2805,9805;2,55499
2803,92935;2,54951
2801,87819;2,5461
2799,82704;2,5443
2797,77588;2,54
2795,72473;2,53364
2793,67357;2,52886
2791,62242;2,52674
2789,57126;2,52675
2787,5201;2,5271
2785,46895;2,52541
2783,41779;2,52001
2781,36664;2,51292
2779,31548;2,50962
2777,26433;2,51057
2775,21317;2,51132
2773,16202;2,50846
2771,11086;2,5027
2769,05971;2,4956
2767,00855;2,48938
2764,9574;2,48714
2762,90624;2,48746
2760,85509;2,48754
2758,80393;2,4885
2756,75277;2,49013
2754,70162;2,48905
2752,65046;2,48598
2750,59931;2,48494
2748,54815;2,48469
2746,497;2,47943
2744,44584;2,47227
2742,39469;2,46871
2740,34353;2,46728
2738,29238;2,46715
2736,24122;2,46693
2734,19007;2,46475
2732,13891;2,46044
2730,08776;2,45625
2728,0366;2,45419
2725,98544;2,45227
2723,93429;2,44942
2721,88313;2,44781
2719,83198;2,44862
2717,78082;2,44924
2715,72967;2,44631
2713,67851;2,44084
2711,62736;2,43756
2709,5762;2,43768
2707,52505;2,43779
2705,47389;2,436
2703,42274;2,43325
2701,37158;2,42979
2699,32043;2,4248
2697,26927;2,41883
2695,21811;2,41596
2693,16696;2,41895
2691,1158;2,42505
2689,06465;2,42859
2687,01349;2,42425
2684,96234;2,41616
2682,91118;2,41219
2680,86003;2,41358
2678,80887;2,41879
2676,75772;2,42493
2674,70656;2,42784
2672,65541;2,42445
2670,60425;2,41712
2668,55309;2,41314
2666,50194;2,41411
2664,45078;2,41398
2662,39963;2,41302
2660,34847;2,41531
2658,29732;2,41863
2656,24616;2,41953
2654,19501;2,41691
2652,14385;2,41222
2650,0927;2,40805
2648,04154;2,40684
2645,99039;2,40817
2643,93923;2,41035
2641,88808;2,41604
2639,83692;2,42617
2637,78576;2,4356
2635,73461;2,44046
2633,68345;2,44071
2631,6323;2,44053
2629,58114;2,44416
2627,52999;2,44814
2625,47883;2,4519
2623,42768;2,45946
2621,37652;2,46629
2619,32537;2,46908
2617,27421;2,47319
2615,22306;2,47735
2613,1719;2,47729
2611,12075;2,47891
2609,06959;2,48595
2607,01843;2,49064
2604,96728;2,48831
2602,91612;2,48545
2600,86497;2,48456
2598,81381;2,48401
2596,76266;2,48808
2594,7115;2,49597
2592,66035;2,49667
2590,60919;2,487
2588,55804;2,47909
2586,50688;2,48105
2584,45573;2,4852
2582,40457;2,48521
2580,35342;2,48528
2578,30226;2,48675
2576,2511;2,48713
2574,19995;2,48556
2572,14879;2,48377
2570,09764;2,48378
2568,04648;2,48773
2565,99533;2,49295
2563,94417;2,49013
2561,89302;2,48116
2559,84186;2,47775
2557,79071;2,48103
2555,73955;2,48315
2553,6884;2,48273
2551,63724;2,48229
2549,58609;2,48093
2547,53493;2,48193
2545,48377;2,48755
2543,43262;2,49446
2541,38146;2,49958
2539,33031;2,5015
2537,27915;2,50223
2535,228;2,50604
2533,17684;2,51235
2531,12569;2,51879
2529,07453;2,52786
2527,02338;2,53757
2524,97222;2,54249
2522,92107;2,54187
2520,86991;2,5365
2518,81876;2,53068
2516,7676;2,53001
2514,71644;2,53351
2512,66529;2,536
2510,61413;2,53699
2508,56298;2,53755
2506,51182;2,53491
2504,46067;2,52758
2502,40951;2,51963
2500,35836;2,5137
2498,3072;2,50906
2496,25605;2,50459
2494,20489;2,49574
2492,15374;2,48338
2490,10258;2,47466
2488,05143;2,46963
2486,00027;2,46393
2483,94911;2,45683
2481,89796;2,44765
2479,8468;2,43601
2477,79565;2,42668
2475,74449;2,42141
2473,69334;2,41675
2471,64218;2,41117
2469,59103;2,40418
2467,53987;2,3956
2465,48872;2,38514
2463,43756;2,37567
2461,38641;2,37132
2459,33525;2,36761
2457,2841;2,36076
2455,23294;2,35343
2453,18178;2,34632
2451,13063;2,34143
2449,07947;2,33864
2447,02832;2,33486
2444,97716;2,33184
2442,92601;2,33086
2440,87485;2,33014
2438,8237;2,32807
2436,77254;2,32265
2434,72139;2,31528
2432,67023;2,31117
2430,61908;2,31008
2428,56792;2,30933
2426,51677;2,30807
2424,46561;2,30493
2422,41445;2,30126
2420,3633;2,2981
2418,31214;2,29431
2416,26099;2,29013
2414,20983;2,28614
2412,15868;2,28371
2410,10752;2,28217
2408,05637;2,27978
2406,00521;2,28009
2403,95406;2,28267
2401,9029;2,28164
2399,85175;2,278
2397,80059;2,27374
2395,74944;2,26978
2393,69828;2,26767
2391,64712;2,2683
2389,59597;2,27005
2387,54481;2,27059
2385,49366;2,26987
2383,4425;2,26859
2381,39135;2,26619
2379,34019;2,26312
2377,28904;2,26173
2375,23788;2,262
2373,18673;2,26255
2371,13557;2,26446
2369,08442;2,26705
2367,03326;2,26595
2364,9821;2,26303
2362,93095;2,26691
2360,87979;2,27385
2358,82864;2,27146
2356,77748;2,26348
2354,72633;2,26302
2352,67517;2,2677
2350,62402;2,26738
2348,57286;2,26387
2346,52171;2,26332
2344,47055;2,26576
2342,4194;2,26814
2340,36824;2,26986
2338,31709;2,27306
2336,26593;2,27616
2334,21477;2,27277
2332,16362;2,26439
2330,11246;2,26012
2328,06131;2,26272
2326,01015;2,26753
2323,959;2,2698
2321,90784;2,26977
2319,85669;2,27097
2317,80553;2,27284
2315,75438;2,27295
2313,70322;2,27334
2311,65207;2,27562
2309,60091;2,27711
2307,54976;2,27709
2305,4986;2,27762
2303,44744;2,27852
2301,39629;2,27846
2299,34513;2,27624
2297,29398;2,27108
2295,24282;2,2655
2293,19167;2,26307
2291,14051;2,26389
2289,08936;2,26508
2287,0382;2,26506
2284,98705;2,26517
2282,93589;2,26535
2280,88474;2,26505
2278,83358;2,26641
2276,78243;2,2696
2274,73127;2,2717
2272,68011;2,27158
2270,62896;2,27155
2268,5778;2,27316
2266,52665;2,27508
2264,47549;2,27657
2262,42434;2,2773
2260,37318;2,27706
2258,32203;2,27752
2256,27087;2,27957
2254,21972;2,28216
2252,16856;2,28441
2250,11741;2,28654
2248,06625;2,28903
2246,0151;2,2894
2243,96394;2,28806
2241,91278;2,28927
2239,86163;2,29346
2237,81047;2,29805
2235,75932;2,30099
2233,70816;2,30018
2231,65701;2,29781
2229,60585;2,29901
2227,5547;2,30403
2225,50354;2,30822
2223,45239;2,30929
2221,40123;2,30988
2219,35008;2,3119
2217,29892;2,31479
2215,24777;2,31738
2213,19661;2,31823
2211,14545;2,31761
2209,0943;2,31612
2207,04314;2,31408
2204,99199;2,31367
2202,94083;2,31606
2200,88968;2,3195
2198,83852;2,32095
2196,78737;2,32078
2194,73621;2,32264
2192,68506;2,32548
2190,6339;2,32734
2188,58275;2,3296
2186,53159;2,33105
2184,48044;2,33059
2182,42928;2,32957
2180,37812;2,32906
2178,32697;2,32934
2176,27581;2,33103
2174,22466;2,33441
2172,1735;2,33837
2170,12235;2,34198
2168,07119;2,34512
2166,02004;2,34882
2163,96888;2,35337
2161,91773;2,35935
2159,86657;2,36728
2157,81542;2,37248
2155,76426;2,37411
2153,71311;2,37983
2151,66195;2,39048
2149,61079;2,39878
2147,55964;2,40235
2145,50848;2,40424
2143,45733;2,40522
2141,40617;2,40317
2139,35502;2,3995
2137,30386;2,39932
2135,25271;2,40131
2133,20155;2,39918
2131,1504;2,39311
2129,09924;2,38624
2127,04809;2,38063
2124,99693;2,37722
2122,94578;2,37449
2120,89462;2,37229
2118,84346;2,36913
2116,79231;2,3648
2114,74115;2,36178
2112,69;2,35852
2110,63884;2,35398
2108,58769;2,35064
2106,53653;2,34964
2104,48538;2,34949
2102,43422;2,34911
2100,38307;2,34887
2098,33191;2,34917
2096,28076;2,35068
2094,2296;2,35357
2092,17844;2,35634
2090,12729;2,35682
2088,07613;2,35474
2086,02498;2,35171
2083,97382;2,3482
2081,92267;2,34662
2079,87151;2,34968
2077,82036;2,35387
2075,7692;2,35577
2073,71805;2,35569
2071,66689;2,35345
2069,61574;2,35158
2067,56458;2,35341
2065,51343;2,35624
2063,46227;2,35697
2061,41111;2,35882
2059,35996;2,36225
2057,3088;2,3642
2055,25765;2,36579
2053,20649;2,36828
2051,15534;2,36894
2049,10418;2,36667
2047,05303;2,36599
2045,00187;2,36983
2042,95072;2,37415
2040,89956;2,37366
2038,84841;2,37075
2036,79725;2,37262
2034,7461;2,37896
2032,69494;2,38256
2030,64378;2,38112
2028,59263;2,37869
2026,54147;2,37925
2024,49032;2,38262
2022,43916;2,38535
2020,38801;2,38844
2018,33685;2,3932
2016,2857;2,39431
2014,23454;2,39114
2012,18339;2,3889
2010,13223;2,38732
2008,08108;2,38504
2006,02992;2,38531
2003,97877;2,38953
2001,92761;2,39351
1999,87645;2,3951
1997,8253;2,39539
1995,77414;2,3972
1993,72299;2,40591
1991,67183;2,4158
1989,62068;2,41683
1987,56952;2,41237
1985,51837;2,40833
1983,46721;2,40621
1981,41606;2,40614
1979,3649;2,40755
1977,31375;2,40948
1975,26259;2,41145
1973,21144;2,41288
1971,16028;2,41607
1969,10912;2,42402
1967,05797;2,43073
1965,00681;2,43405
1962,95566;2,44313
1960,9045;2,4545
1958,85335;2,45596
1956,80219;2,45067
1954,75104;2,44829
1952,69988;2,44901
1950,64873;2,44951
1948,59757;2,45121
1946,54642;2,45764
1944,49526;2,46742
1942,44411;2,46964
1940,39295;2,46026
1938,34179;2,45348
1936,29064;2,45636
1934,23948;2,46141
1932,18833;2,46191
1930,13717;2,45887
1928,08602;2,45914
1926,03486;2,46819
1923,98371;2,48191
1921,93255;2,48967
1919,8814;2,49152
1917,83024;2,48976
1915,77909;2,48127
1913,72793;2,47447
1911,67678;2,47637
1909,62562;2,48049
1907,57446;2,48065
1905,52331;2,47817
1903,47215;2,47676
1901,421;2,47857
1899,36984;2,48221
1897,31869;2,48562
1895,26753;2,48764
1893,21638;2,48997
1891,16522;2,4979
1889,11407;2,50591
1887,06291;2,50431
1885,01176;2,49784
1882,9606;2,49515
1880,90945;2,49855
1878,85829;2,50417
1876,80713;2,50768
1874,75598;2,51029
1872,70482;2,52147
1870,65367;2,54686
1868,60251;2,56543
1866,55136;2,55503
1864,5002;2,53479
1862,44905;2,52828
1860,39789;2,53251
1858,34674;2,53747
1856,29558;2,54002
1854,24443;2,54034
1852,19327;2,5429
1850,14212;2,55531
1848,09096;2,57966
1846,0398;2,60839
1843,98865;2,62284
1841,93749;2,61423
1839,88634;2,60239
1837,83518;2,59839
1835,78403;2,59765
1833,73287;2,60683
1831,68172;2,63282
1829,63056;2,65715
1827,57941;2,66144
1825,52825;2,65369
1823,4771;2,64195
1821,42594;2,63453
1819,37478;2,63937
1817,32363;2,64937
1815,27247;2,65767
1813,22132;2,66795
1811,17016;2,68003
1809,11901;2,68817
1807,06785;2,6937
1805,0167;2,70625
1802,96554;2,73031
1800,91439;2,75198
1798,86323;2,75633
1796,81208;2,75356
1794,76092;2,76045
1792,70977;2,77082
1790,65861;2,76236
1788,60745;2,73956
1786,5563;2,72658
1784,50514;2,72585
1782,45399;2,72491
1780,40283;2,71521
1778,35168;2,70272
1776,30052;2,70838
1774,24937;2,73628
1772,19821;2,75654
1770,14706;2,74669
1768,0959;2,72377
1766,04475;2,71113
1763,99359;2,72021
1761,94244;2,7365
1759,89128;2,73621
1757,84012;2,72676
1755,78897;2,72439
1753,73781;2,73842
1751,68666;2,76841
1749,6355;2,79082
1747,58435;2,78768
1745,53319;2,77547
1743,48204;2,77514
1741,43088;2,7834
1739,37973;2,78567
1737,32857;2,79337
1735,27742;2,82842
1733,22626;2,86279
1731,17511;2,85208
1729,12395;2,81385
1727,07279;2,78567
1725,02164;2,77831
1722,97048;2,78194
1720,91933;2,80566
1718,86817;2,86145
1716,81702;2,90635
1714,76586;2,89464
1712,71471;2,86169
1710,66355;2,85161
1708,6124;2,87339
1706,56124;2,91264
1704,51009;2,94547
1702,45893;2,97545
1700,40778;3,02005
1698,35662;3,05675
1696,30546;3,05587
1694,25431;3,02787
1692,20315;3,01163
1690,152;3,0294
1688,10084;3,07789
1686,04969;3,13615
1683,99853;3,14664
1681,94738;3,08724
1679,89622;3,02629
1677,84507;3,01041
1675,79391;3,02927
1673,74276;3,04374
1671,6916;3,04403
1669,64045;3,03577
1667,58929;3,00317
1665,53813;2,96396
1663,48698;2,9445
1661,43582;2,93145
1659,38467;2,91821
1657,33351;2,93215
1655,28236;2,98461
1653,2312;3,01957
1651,18005;2,98953
1649,12889;2,96263
1647,07774;2,95218
1645,02658;2,90575
1642,97543;2,84462
1640,92427;2,81966
1638,87312;2,84078
1636,82196;2,87431
1634,7708;2,86244
1632,71965;2,81032
1630,66849;2,775
1628,61734;2,77134
1626,56618;2,78123
1624,51503;2,79013
1622,46387;2,78868
1620,41272;2,7864
1618,36156;2,80309
1616,31041;2,8152
1614,25925;2,79563
1612,2081;2,7765
1610,15694;2,77698
1608,10579;2,77667
1606,05463;2,76518
1604,00347;2,75521
1601,95232;2,75391
1599,90116;2,7575
1597,85001;2,7649
1595,79885;2,77515
1593,7477;2,78131
1591,69654;2,77929
1589,64539;2,77067
1587,59423;2,76264
1585,54308;2,76499
1583,49192;2,77579
1581,44077;2,79154
1579,38961;2,82233
1577,33846;2,85803
1575,2873;2,85744
1573,23614;2,83238
1571,18499;2,8293
1569,13383;2,83385
1567,08268;2,82118
1565,03152;2,813
1562,98037;2,83698
1560,92921;2,90075
1558,87806;2,95306
1556,8269;2,92217
1554,77575;2,8556
1552,72459;2,81087
1550,67344;2,79052
1548,62228;2,78249
1546,57113;2,79485
1544,51997;2,837
1542,46881;2,89228
1540,41766;2,9127
1538,3665;2,85953
1536,31535;2,79486
1534,26419;2,7679
1532,21304;2,75586
1530,16188;2,74747
1528,11073;2,75379
1526,05957;2,76922
1524,00842;2,79193
1521,95726;2,81425
1519,90611;2,80866
1517,85495;2,7773
1515,80379;2,7359
1513,75264;2,70437
1511,70148;2,7166
1509,65033;2,78204
1507,59917;2,83437
1505,54802;2,77795
1503,49686;2,6777
1501,44571;2,63399
1499,39455;2,643
1497,3434;2,65196
1495,29224;2,63441
1493,24109;2,62296
1491,18993;2,64233
1489,13878;2,65483
1487,08762;2,62442
1485,03646;2,58187
1482,98531;2,56151
1480,93415;2,56168
1478,883;2,57658
1476,83184;2,61175
1474,78069;2,65849
1472,72953;2,68017
1470,67838;2,65767
1468,62722;2,63357
1466,57607;2,63799
1464,52491;2,64698
1462,47376;2,64971
1460,4226;2,67967
1458,37145;2,73099
1456,32029;2,73541
1454,26913;2,68751
1452,21798;2,64983
1450,16682;2,64457
1448,11567;2,65141
1446,06451;2,64532
1444,01336;2,63043
1441,9622;2,62706
1439,91105;2,64639
1437,85989;2,67598
1435,80874;2,67725
1433,75758;2,64737
1431,70643;2,62536
1429,65527;2,6177
1427,60412;2,61413
1425,55296;2,61985
1423,5018;2,63326
1421,45065;2,65037
1419,39949;2,66429
1417,34834;2,65136
1415,29718;2,61822
1413,24603;2,59392
1411,19487;2,58292
1409,14372;2,58037
1407,09256;2,58799
1405,04141;2,59939
1402,99025;2,61106
1400,9391;2,63572
1398,88794;2,66974
1396,83679;2,68905
1394,78563;2,68296
1392,73447;2,6627
1390,68332;2,6538
1388,63216;2,66511
1386,58101;2,67637
1384,52985;2,67338
1382,4787;2,66573
1380,42754;2,66561
1378,37639;2,67591
1376,32523;2,69134
1374,27408;2,70202
1372,22292;2,70068
1370,17177;2,69233
1368,12061;2,68903
1366,06946;2,69971
1364,0183;2,71882
1361,96714;2,72523
1359,91599;2,71421
1357,86483;2,70354
1355,81368;2,70015
1353,76252;2,69892
1351,71137;2,70047
1349,66021;2,70517
1347,60906;2,70708
1345,5579;2,70813
1343,50675;2,71855
1341,45559;2,74158
1339,40444;2,76195
1337,35328;2,76035
1335,30213;2,74622
1333,25097;2,74171
1331,19981;2,74722
1329,14866;2,74938
1327,0975;2,74679
1325,04635;2,74612
1322,99519;2,74937
1320,94404;2,75462
1318,89288;2,75676
1316,84173;2,75622
1314,79057;2,75826
1312,73942;2,75883
1310,68826;2,75443
1308,63711;2,75183
1306,58595;2,75323
1304,5348;2,75758
1302,48364;2,76275
1300,43248;2,75841
1298,38133;2,74732
1296,33017;2,74574
1294,27902;2,75548
1292,22786;2,76889
1290,17671;2,77842
1288,12555;2,78047
1286,0744;2,77996
1284,02324;2,78207
1281,97209;2,78528
1279,92093;2,78482
1277,86978;2,78341
1275,81862;2,78256
1273,76747;2,78242
1271,71631;2,78712
1269,66515;2,79224
1267,614;2,79441
1265,56284;2,79833
1263,51169;2,80677
1261,46053;2,81583
1259,40938;2,81929
1257,35822;2,81389
1255,30707;2,80381
1253,25591;2,7957
1251,20476;2,79399
1249,1536;2,80243
1247,10245;2,81447
1245,05129;2,82096
1243,00013;2,82567
1240,94898;2,83323
1238,89782;2,83953
1236,84667;2,84204
1234,79551;2,84402
1232,74436;2,84292
1230,6932;2,83743
1228,64205;2,83541
1226,59089;2,84023
1224,53974;2,84123
1222,48858;2,8294
1220,43743;2,81949
1218,38627;2,83077
1216,33512;2,85325
1214,28396;2,86597
1212,2328;2,86555
1210,18165;2,86152
1208,13049;2,86323
1206,07934;2,87198
1204,02818;2,88401
1201,97703;2,89331
1199,92587;2,8978
1197,87472;2,89509
1195,82356;2,88891
1193,77241;2,89096
1191,72125;2,89685
1189,6701;2,89785
1187,61894;2,90031
1185,56779;2,90248
1183,51663;2,90509
1181,46547;2,91404
1179,41432;2,91959
1177,36316;2,92152
1175,31201;2,93138
1173,26085;2,94742
1171,2097;2,9544
1169,15854;2,95353
1167,10739;2,95859
1165,05623;2,96079
1163,00508;2,95854
1160,95392;2,97196
1158,90277;2,99425
1156,85161;3,00494
1154,80046;3,00849
1152,7493;3,01062
1150,69814;3,02172
1148,64699;3,04518
1146,59583;3,06451
1144,54468;3,08121
1142,49352;3,10003
1140,44237;3,1052
1138,39121;3,0898
1136,34006;3,07223
1134,2889;3,0671
1132,23775;3,06187
1130,18659;3,04363
1128,13544;3,02778
1126,08428;3,01814
1124,03313;3,00075
1121,98197;2,97154
1119,93081;2,93714
1117,87966;2,90975
1115,8285;2,892
1113,77735;2,88758
1111,72619;2,90432
1109,67504;2,92323
1107,62388;2,92393
1105,57273;2,91729
1103,52157;2,90786
1101,47042;2,89635
1099,41926;2,88378
1097,36811;2,86374
1095,31695;2,84294
1093,2658;2,82638
1091,21464;2,81137
1089,16348;2,79096
1087,11233;2,76874
1085,06117;2,75598
1083,01002;2,7434
1080,95886;2,72097
1078,90771;2,69419
1076,85655;2,668
1074,8054;2,63524
1072,75424;2,59715
1070,70309;2,56155
1068,65193;2,52553
1066,60078;2,48696
1064,54962;2,44553
1062,49847;2,40113
1060,44731;2,35748
1058,39615;2,31759
1056,345;2,28281
1054,29384;2,25231
1052,24269;2,22371
1050,19153;2,19759
1048,14038;2,1795
1046,08922;2,17073
1044,03807;2,16345
1041,98691;2,15261
1039,93576;2,14125
1037,8846;2,13349
1035,83345;2,1311
1033,78229;2,13294
1031,73114;2,13968
1029,67998;2,15541
1027,62882;2,17875
1025,57767;2,20224
1023,52651;2,223
1021,47536;2,24172
1019,4242;2,25176
1017,37305;2,24754
1015,32189;2,23562
1013,27074;2,22283
1011,21958;2,21084
1009,16843;2,20261
1007,11727;2,20138
1005,06612;2,20658
1003,01496;2,21823
1000,96381;2,23664
998,91265;2,25604
996,86149;2,27224
994,81034;2,28923
992,75918;2,30894
990,70803;2,32898
988,65687;2,34974
986,60572;2,37174
984,55456;2,39231
982,50341;2,40672
980,45225;2,41457
978,4011;2,42507
976,34994;2,44584
974,29879;2,47208
972,24763;2,49496
970,19647;2,51406
968,14532;2,52941
966,09416;2,53827
964,04301;2,54419
961,99185;2,54882
959,9407;2,55311
957,88954;2,5658
955,83839;2,586
953,78723;2,60604
951,73608;2,62123
949,68492;2,62678
947,63377;2,62487
945,58261;2,61988
943,53146;2,6135
941,4803;2,61519
939,42914;2,62773
937,37799;2,63738
935,32683;2,62675
933,27568;2,60493
931,22452;2,59627
929,17337;2,59165
927,12221;2,58028
925,07106;2,57748
923,0199;2,58196
920,96875;2,57552
918,91759;2,54925
916,86644;2,5098
914,81528;2,471
912,76413;2,4428
910,71297;2,42874
908,66181;2,42671
906,61066;2,43604
904,5595;2,45305
902,50835;2,46898
900,45719;2,48345
898,40604;2,49578
896,35488;2,49848
894,30373;2,4983
892,25257;2,50396
890,20142;2,50713
888,15026;2,50495
886,09911;2,50959
884,04795;2,52144
881,9968;2,53169
879,94564;2,53818
877,89448;2,53875
875,84333;2,54024
873,79217;2,55384
871,74102;2,57265
869,68986;2,58502
867,63871;2,59409
865,58755;2,59908
863,5364;2,59808
861,48524;2,60725
859,43409;2,62324
857,38293;2,6253
855,33178;2,62105
853,28062;2,62948
851,22947;2,64635
849,17831;2,65216
847,12715;2,64454
845,076;2,64292
843,02484;2,64737
840,97369;2,65136
838,92253;2,66065
836,87138;2,66358
834,82022;2,65922
832,76907;2,66471
830,71791;2,67852
828,66676;2,69247
826,6156;2,71005
824,56445;2,73175
822,51329;2,74458
820,46214;2,74074
818,41098;2,73419
816,35982;2,73358
814,30867;2,72671
812,25751;2,71191
810,20636;2,71266
808,1552;2,74392
806,10405;2,77155
804,05289;2,75254
802,00174;2,71003
799,95058;2,68139
797,89943;2,66697
795,84827;2,65423
793,79712;2,65327
791,74596;2,66234
789,69481;2,66347
787,64365;2,65738
785,59249;2,66478
783,54134;2,68519
781,49018;2,69456
779,43903;2,69287
777,38787;2,69784
775,33672;2,70842
773,28556;2,71344
771,23441;2,7153
769,18325;2,71967
767,1321;2,72557
765,08094;2,73939
763,02979;2,7574
760,97863;2,76022
758,92748;2,75263
756,87632;2,75835
754,82516;2,77161
752,77401;2,76923
750,72285;2,75972
748,6717;2,75303
746,62054;2,7397
744,56939;2,72966
742,51823;2,74241
740,46708;2,76169
738,41592;2,75861
736,36477;2,75155
734,31361;2,76015
732,26246;2,77599
730,2113;2,78529
728,16015;2,77704
726,10899;2,76497
724,05783;2,78828
722,00668;2,85409
719,95552;2,91547
717,90437;2,93174
715,85321;2,92185
713,80206;2,906
711,7509;2,87982
709,69975;2,85753
707,64859;2,86479
705,59744;2,89847
703,54628;2,91518
701,49513;2,88892
699,44397;2,85719
697,39281;2,85725
695,34166;2,86021
693,2905;2,83024
691,23935;2,79576
689,18819;2,79385
687,13704;2,81015
685,08588;2,80876
683,03473;2,7821
680,98357;2,76547
678,93242;2,78279
676,88126;2,80165
674,83011;2,79319
672,77895;2,78074
670,7278;2,7737
668,67664;2,76108
666,62548;2,76363
664,57433;2,78587
662,52317;2,79258
660,47202;2,77337
658,42086;2,75295
656,36971;2,74846
654,31855;2,73943
652,2674;2,71589
650,21624;2,71218
648,16509;2,74059
646,11393;2,75885
644,06278;2,74224
642,01162;2,72456
639,96047;2,7333
637,90931;2,75347
635,85815;2,75922
633,807;2,72951
631,75584;2,68359
629,70469;2,66171
627,65353;2,66197
625,60238;2,65547
623,55122;2,65263
621,50007;2,65768
619,44891;2,66308
617,39776;2,66867
615,3466;2,65275
613,29545;2,60973
611,24429;2,57553
609,19314;2,57202
607,14198;2,57282
605,09082;2,5413
603,03967;2,49901
600,98851;2,49236
598,93736;2,50537
596,8862;2,49264
594,83505;2,46558
592,78389;2,45348
590,73274;2,45179
588,68158;2,44713
586,63043;2,43571
584,57927;2,4177
582,52812;2,40175
580,47696;2,38244
578,42581;2,34905
576,37465;2,31213
574,32349;2,28555
572,27234;2,27109
570,22118;2,26078
568,17003;2,24843
566,11887;2,23397
564,06772;2,21312
562,01656;2,18695
559,96541;2,16639
557,91425;2,14989
555,8631;2,1369
553,81194;2,13441
551,76079;2,13262
549,70963;2,11971
547,65848;2,09887
545,60732;2,07677
543,55616;2,05782
541,50501;2,04295
539,45385;2,0335
537,4027;2,03708
535,35154;2,05183
533,30039;2,06292
531,24923;2,06854
529,19808;2,0806
527,14692;2,10493
525,09577;2,13256
523,04461;2,15174
520,99346;2,16964
518,9423;2,18737
516,89115;2,19166
514,83999;2,19182
512,78883;2,20634
510,73768;2,22715
508,68652;2,23998
506,63537;2,24983
504,58421;2,26261
502,53306;2,27239
500,4819;2,27114
498,43075;2,26207
496,37959;2,25628
494,32844;2,26312
492,27728;2,28034
490,22613;2,28208
488,17497;2,25448
486,12382;2,21582
484,07266;2,17445
482,0215;2,13095
479,97035;2,08913
477,91919;2,05068
475,86804;2,02607
473,81688;2,0144
471,76573;1,99613
469,71457;1,97441
467,66342;1,96617
465,61226;1,96757
463,56111;1,97583
461,50995;2,00272
459,4588;2,04761
457,40764;2,07896
455,35649;2,07753
453,30533;2,06926
451,25417;2,06823
449,20302;2,07067
447,15186;2,08318
445,10071;2,11157
443,04955;2,13418
440,9984;2,12392
438,94724;2,09851
436,89609;2,08301
434,84493;2,06841
432,79378;2,05503
430,74262;2,05548
428,69147;2,05506
426,64031;2,04978
424,58916;2,0677
422,538;2,11994
420,48684;2,17149
418,43569;2,16817
416,38453;2,12332
414,33338;2,09279
412,28222;2,07242
410,23107;2,04717
408,17991;2,03515
406,12876;2,04156
404,0776;2,05512
402,02645;2,06599
399,97529;2,07018
