5997,43814;11,0439
5995,38704;11,02153
5993,33593;10,91432
5991,28482;10,85343
5989,23371;10,94632
5987,18261;11,12228
5985,1315;11,23592
5983,08039;11,2139
5981,02928;11,1086
5978,97818;11,0118
5976,92707;11,01761
5974,87596;11,04378
5972,82485;10,92824
5970,77375;10,79399
5968,72264;10,81904
5966,67153;10,92706
5964,62042;11,00782
5962,56932;11,05076
5960,51821;11,05895
5958,4671;11,06509
5956,41599;11,06874
5954,36489;11,0524
5952,31378;11,0452
5950,26267;11,09673
5948,21156;11,17007
5946,16046;11,16879
5944,10935;11,11441
5942,05824;11,06748
5940,00713;11,02838
5937,95603;10,99499
5935,90492;10,99807
5933,85381;10,99949
5931,80271;10,99111
5929,7516;11,07319
5927,70049;11,17964
5925,64938;11,20612
5923,59828;11,231
5921,54717;11,28128
5919,49606;11,29454
5917,44495;11,27473
5915,39385;11,24686
5913,34274;11,19187
5911,29163;11,10504
5909,24052;11,05889
5907,18942;11,10347
5905,13831;11,15479
5903,0872;11,17039
5901,03609;11,20309
5898,98499;11,23354
5896,93388;11,25117
5894,88277;11,27596
5892,83166;11,27362
5890,78056;11,2582
5888,72945;11,25353
5886,67834;11,21626
5884,62723;11,15535
5882,57613;11,15296
5880,52502;11,19638
5878,47391;11,18441
5876,4228;11,14059
5874,3717;11,13763
5872,32059;11,1601
5870,26948;11,16378
5868,21837;11,16157
5866,16727;11,18479
5864,11616;11,18052
5862,06505;11,15672
5860,01394;11,20441
5857,96284;11,25754
5855,91173;11,22467
5853,86062;11,20742
5851,80952;11,24041
5849,75841;11,26982
5847,7073;11,29502
5845,65619;11,28689
5843,60509;11,27335
5841,55398;11,28331
5839,50287;11,28248
5837,45176;11,28426
5835,40066;11,28523
5833,34955;11,25156
5831,29844;11,21564
5829,24733;11,2291
5827,19623;11,29483
5825,14512;11,34494
5823,09401;11,28091
5821,0429;11,15549
5818,9918;11,12156
5816,94069;11,19047
5814,88958;11,25595
5812,83847;11,32606
5810,78737;11,4071
5808,73626;11,37389
5806,68515;11,30073
5804,63404;11,32104
5802,58294;11,35775
5800,53183;11,35459
5798,48072;11,3533
5796,42961;11,35053
5794,37851;11,2827
5792,3274;11,2109
5790,27629;11,24929
5788,22518;11,32777
5786,17408;11,3227
5784,12297;11,24228
5782,07186;11,19592
5780,02075;11,21688
5777,96965;11,2054
5775,91854;11,16298
5773,86743;11,17543
5771,81633;11,24991
5769,76522;11,352
5767,71411;11,41457
5765,663;11,39397
5763,6119;11,37078
5761,56079;11,42711
5759,50968;11,46724
5757,45857;11,40324
5755,40747;11,35285
5753,35636;11,41367
5751,30525;11,49674
5749,25414;11,49173
5747,20304;11,42245
5745,15193;11,35646
5743,10082;11,36144
5741,04971;11,4642
5738,99861;11,57644
5736,9475;11,56402
5734,89639;11,43695
5732,84528;11,38108
5730,79418;11,45078
5728,74307;11,51097
5726,69196;11,50648
5724,64085;11,48375
5722,58975;11,45622
5720,53864;11,41731
5718,48753;11,41794
5716,43642;11,46419
5714,38532;11,48774
5712,33421;11,47264
5710,2831;11,42888
5708,23199;11,39357
5706,18089;11,41069
5704,12978;11,38466
5702,07867;11,30535
5700,02756;11,32227
5697,97646;11,40004
5695,92535;11,43
5693,87424;11,43289
5691,82314;11,41097
5689,77203;11,3637
5687,72092;11,39055
5685,66981;11,48977
5683,61871;11,53989
5681,5676;11,53186
5679,51649;11,46941
5677,46538;11,38679
5675,41428;11,38343
5673,36317;11,45425
5671,31206;11,53337
5669,26095;11,54622
5667,20985;11,50001
5665,15874;11,47287
5663,10763;11,43594
5661,05652;11,39449
5659,00542;11,41621
5656,95431;11,41484
5654,9032;11,38796
5652,85209;11,43863
5650,80099;11,50193
5648,74988;11,48798
5646,69877;11,40451
5644,64766;11,34157
5642,59656;11,36383
5640,54545;11,4142
5638,49434;11,43407
5636,44323;11,42259
5634,39213;11,38515
5632,34102;11,34974
5630,28991;11,36029
5628,2388;11,41064
5626,1877;11,48313
5624,13659;11,55473
5622,08548;11,55817
5620,03437;11,52058
5617,98327;11,54811
5615,93216;11,5946
5613,88105;11,5757
5611,82995;11,57996
5609,77884;11,6307
5607,72773;11,62384
5605,67662;11,58852
5603,62552;11,56934
5601,57441;11,54241
5599,5233;11,5366
5597,47219;11,54316
5595,42109;11,53205
5593,36998;11,48282
5591,31887;11,41254
5589,26776;11,40782
5587,21666;11,48004
5585,16555;11,54839
5583,11444;11,58327
5581,06333;11,58857
5579,01223;11,5499
5576,96112;11,4941
5574,91001;11,48658
5572,8589;11,52918
5570,8078;11,55935
5568,75669;11,5663
5566,70558;11,56722
5564,65447;11,54928
5562,60337;11,54596
5560,55226;11,58273
5558,50115;11,60505
5556,45004;11,5842
5554,39894;11,55189
5552,34783;11,52727
5550,29672;11,49728
5548,24561;11,47704
5546,19451;11,4943
5544,1434;11,51836
5542,09229;11,52956
5540,04118;11,53964
5537,99008;11,53864
5535,93897;11,51536
5533,88786;11,4846
5531,83676;11,47894
5529,78565;11,49825
5527,73454;11,52127
5525,68343;11,54044
5523,63233;11,54334
5521,58122;11,55539
5519,53011;11,59893
5517,479;11,6355
5515,4279;11,648
5513,37679;11,65464
5511,32568;11,65535
5509,27457;11,65215
5507,22347;11,65642
5505,17236;11,63102
5503,12125;11,56879
5501,07014;11,5488
5499,01904;11,57282
5496,96793;11,54807
5494,91682;11,47504
5492,86571;11,45213
5490,81461;11,50986
5488,7635;11,57062
5486,71239;11,56366
5484,66128;11,5327
5482,61018;11,53188
5480,55907;11,54487
5478,50796;11,57246
5476,45685;11,62111
5474,40575;11,68406
5472,35464;11,73416
5470,30353;11,71789
5468,25242;11,64984
5466,20132;11,61723
5464,15021;11,62723
5462,0991;11,61684
5460,04799;11,61015
5457,99689;11,62662
5455,94578;11,6158
5453,89467;11,60876
5451,84357;11,66448
5449,79246;11,74907
5447,74135;11,78308
5445,69024;11,74597
5443,63914;11,70058
5441,58803;11,65525
5439,53692;11,59053
5437,48581;11,56989
5435,43471;11,60576
5433,3836;11,63588
5431,33249;11,64944
5429,28138;11,6657
5427,23028;11,68919
5425,17917;11,69746
5423,12806;11,64925
5421,07695;11,56992
5419,02585;11,53042
5416,97474;11,55828
5414,92363;11,6119
5412,87252;11,63344
5410,82142;11,63643
5408,77031;11,6696
5406,7192;11,72738
5404,66809;11,73215
5402,61699;11,64983
5400,56588;11,5736
5398,51477;11,58931
5396,46366;11,64343
5394,41256;11,64356
5392,36145;11,63966
5390,31034;11,69885
5388,25923;11,74737
5386,20813;11,71981
5384,15702;11,6713
5382,10591;11,66622
5380,0548;11,68196
5378,0037;11,68078
5375,95259;11,69822
5373,90148;11,77705
5371,85038;11,86446
5369,79927;11,89673
5367,74816;11,8799
5365,69705;11,83807
5363,64595;11,80796
5361,59484;11,82892
5359,54373;11,86557
5357,49262;11,87578
5355,44152;11,88669
5353,39041;11,90578
5351,3393;11,90452
5349,28819;11,89216
5347,23709;11,87083
5345,18598;11,81975
5343,13487;11,77768
5341,08376;11,80533
5339,03266;11,87858
5336,98155;11,94374
5334,93044;11,99027
5332,87933;12,00926
5330,82823;12,03258
5328,77712;12,1012
5326,72601;12,1602
5324,6749;12,15718
5322,6238;12,12176
5320,57269;12,10694
5318,52158;12,12708
5316,47047;12,13919
5314,41937;12,12866
5312,36826;12,13773
5310,31715;12,17904
5308,26604;12,22083
5306,21494;12,24621
5304,16383;12,26498
5302,11272;12,27577
5300,06161;12,26513
5298,01051;12,24032
5295,9594;12,23696
5293,90829;12,2777
5291,85719;12,3505
5289,80608;12,44465
5287,75497;12,54375
5285,70386;12,60851
5283,65276;12,61886
5281,60165;12,60936
5279,55054;12,64913
5277,49943;12,75598
5275,44833;12,86014
5273,39722;12,90402
5271,34611;12,921
5269,295;12,97656
5267,2439;13,0762
5265,19279;13,14762
5263,14168;13,16476
5261,09057;13,2113
5259,03947;13,31669
5256,98836;13,41907
5254,93725;13,47264
5252,88614;13,4635
5250,83504;13,42054
5248,78393;13,41156
5246,73282;13,48534
5244,68171;13,61028
5242,63061;13,6696
5240,5795;13,64409
5238,52839;13,67033
5236,47728;13,77281
5234,42618;13,85542
5232,37507;13,9217
5230,32396;14,00918
5228,27285;14,07076
5226,22175;14,08066
5224,17064;14,11807
5222,11953;14,20507
5220,06842;14,26295
5218,01732;14,27393
5215,96621;14,26684
5213,9151;14,28479
5211,864;14,34466
5209,81289;14,41946
5207,76178;14,48418
5205,71067;14,49031
5203,65957;14,48183
5201,60846;14,55661
5199,55735;14,66301
5197,50624;14,6843
5195,45514;14,62276
5193,40403;14,57724
5191,35292;14,58779
5189,30181;14,65657
5187,25071;14,77693
5185,1996;14,8473
5183,14849;14,79913
5181,09738;14,74023
5179,04628;14,76618
5176,99517;14,82678
5174,94406;14,8606
5172,89295;14,86909
5170,84185;14,83779
5168,79074;14,80822
5166,73963;14,85239
5164,68852;14,9124
5162,63742;14,92816
5160,58631;14,92795
5158,5352;14,90652
5156,48409;14,86004
5154,43299;14,84116
5152,38188;14,83358
5150,33077;14,80255
5148,27966;14,81952
5146,22856;14,88871
5144,17745;14,89028
5142,12634;14,81402
5140,07523;14,7683
5138,02413;14,76983
5135,97302;14,75808
5133,92191;14,7005
5131,87081;14,62572
5129,8197;14,60178
5127,76859;14,61493
5125,71748;14,58897
5123,66638;14,5487
5121,61527;14,55774
5119,56416;14,58634
5117,51305;14,61075
5115,46195;14,6233
5113,41084;14,59218
5111,35973;14,55155
5109,30862;14,54794
5107,25752;14,5695
5105,20641;14,56415
5103,1553;14,51781
5101,10419;14,48335
5099,05309;14,46462
5097,00198;14,43713
5094,95087;14,4057
5092,89976;14,38997
5090,84866;14,4141
5088,79755;14,4667
5086,74644;14,50648
5084,69533;14,4751
5082,64423;14,38278
5080,59312;14,32586
5078,54201;14,3368
5076,4909;14,3531
5074,4398;14,33082
5072,38869;14,30646
5070,33758;14,29213
5068,28647;14,24459
5066,23537;14,19829
5064,18426;14,21319
5062,13315;14,24433
5060,08204;14,22636
5058,03094;14,1764
5055,97983;14,1654
5053,92872;14,17063
5051,87762;14,11998
5049,82651;14,06898
5047,7754;14,06997
5045,72429;14,08049
5043,67319;14,03778
5041,62208;13,94062
5039,57097;13,86212
5037,51986;13,84333
5035,46876;13,87293
5033,41765;13,9137
5031,36654;13,94631
5029,31543;13,98293
5027,26433;13,98087
5025,21322;13,91659
5023,16211;13,86779
5021,111;13,86568
5019,0599;13,87622
5017,00879;13,87448
5014,95768;13,85467
5012,90657;13,8331
5010,85547;13,80627
5008,80436;13,79519
5006,75325;13,83623
5004,70214;13,88191
5002,65104;13,89496
5000,59993;13,89808
4998,54882;13,88121
4996,49771;13,84056
4994,44661;13,78918
4992,3955;13,74979
4990,34439;13,74574
4988,29328;13,7294
4986,24218;13,67753
4984,19107;13,63142
4982,13996;13,62066
4980,08885;13,6446
4978,03775;13,67199
4975,98664;13,67167
4973,93553;13,6879
4971,88443;13,74683
4969,83332;13,75909
4967,78221;13,68971
4965,7311;13,6379
4963,68;13,66779
4961,62889;13,72315
4959,57778;13,72642
4957,52667;13,70276
4955,47557;13,71105
4953,42446;13,71447
4951,37335;13,68415
4949,32224;13,6658
4947,27114;13,66599
4945,22003;13,62675
4943,16892;13,56689
4941,11781;13,57217
4939,06671;13,595
4937,0156;13,57447
4934,96449;13,58595
4932,91338;13,63268
4930,86228;13,64601
4928,81117;13,63142
4926,76006;13,58961
4924,70895;13,54645
4922,65785;13,55627
4920,60674;13,59877
4918,55563;13,6237
4916,50452;13,62059
4914,45342;13,63575
4912,40231;13,69169
4910,3512;13,73596
4908,30009;13,72167
4906,24899;13,68812
4904,19788;13,68413
4902,14677;13,68805
4900,09566;13,69256
4898,04456;13,71264
4895,99345;13,7211
4893,94234;13,7171
4891,89124;13,7299
4889,84013;13,74034
4887,78902;13,74387
4885,73791;13,76377
4883,68681;13,79791
4881,6357;13,8154
4879,58459;13,80372
4877,53348;13,79671
4875,48238;13,7994
4873,43127;13,81778
4871,38016;13,86954
4869,32905;13,90173
4867,27795;13,86366
4865,22684;13,80492
4863,17573;13,81001
4861,12462;13,88642
4859,07352;13,92939
4857,02241;13,88523
4854,9713;13,83109
4852,92019;13,82068
4850,86909;13,84373
4848,81798;13,86731
4846,76687;13,86755
4844,71576;13,88076
4842,66466;13,95723
4840,61355;14,0378
4838,56244;14,02482
4836,51133;13,94887
4834,46023;13,89555
4832,40912;13,90985
4830,35801;13,96619
4828,3069;13,96258
4826,2558;13,91479
4824,20469;13,90984
4822,15358;13,92163
4820,10247;13,95607
4818,05137;13,99912
4816,00026;13,99796
4813,94915;13,99679
4811,89805;14,0221
4809,84694;14,05855
4807,79583;14,0741
4805,74472;14,05619
4803,69362;14,04643
4801,64251;14,04787
4799,5914;14,0441
4797,54029;14,07061
4795,48919;14,11388
4793,43808;14,09268
4791,38697;14,04067
4789,33586;14,03892
4787,28476;14,05342
4785,23365;14,04443
4783,18254;14,04844
4781,13143;14,08535
4779,08033;14,10709
4777,02922;14,09749
4774,97811;14,10978
4772,927;14,13731
4770,8759;14,146
4768,82479;14,15071
4766,77368;14,1442
4764,72257;14,11341
4762,67147;14,07706
4760,62036;14,07768
4758,56925;14,13429
4756,51814;14,19626
4754,46704;14,21015
4752,41593;14,19059
4750,36482;14,17355
4748,31371;14,17494
4746,26261;14,18663
4744,2115;14,17124
4742,16039;14,13266
4740,10928;14,09831
4738,05818;14,06083
4736,00707;14,05431
4733,95596;14,10472
4731,90486;14,14908
4729,85375;14,14739
4727,80264;14,12159
4725,75153;14,09169
4723,70043;14,07649
4721,64932;14,0928
4719,59821;14,13028
4717,5471;14,15209
4715,496;14,14287
4713,44489;14,10842
4711,39378;14,05642
4709,34267;14,02425
4707,29157;14,03481
4705,24046;14,0601
4703,18935;14,05773
4701,13824;14,01326
4699,08714;13,96254
4697,03603;13,95454
4694,98492;14,00319
4692,93381;14,04898
4690,88271;14,02781
4688,8316;13,98463
4686,78049;13,97439
4684,72938;13,97994
4682,67828;13,98062
4680,62717;13,98239
4678,57606;14,00144
4676,52495;14,02992
4674,47385;14,02609
4672,42274;13,99158
4670,37163;13,97723
4668,32052;13,99166
4666,26942;14,02014
4664,21831;14,0453
4662,1672;14,04359
4660,11609;14,01244
4658,06499;13,96194
4656,01388;13,90909
4653,96277;13,87599
4651,91167;13,90452
4649,86056;13,9689
4647,80945;13,97429
4645,75834;13,92723
4643,70724;13,89883
4641,65613;13,91253
4639,60502;13,944
4637,55391;13,96577
4635,50281;13,96756
4633,4517;13,94473
4631,40059;13,91178
4629,34948;13,88768
4627,29838;13,8655
4625,24727;13,83323
4623,19616;13,81304
4621,14505;13,82463
4619,09395;13,85178
4617,04284;13,87596
4614,99173;13,87743
4612,94062;13,84026
4610,88952;13,80098
4608,83841;13,80195
4606,7873;13,81629
4604,73619;13,80781
4602,68509;13,78399
4600,63398;13,78145
4598,58287;13,80426
4596,53176;13,79703
4594,48066;13,7604
4592,42955;13,75078
4590,37844;13,75966
4588,32733;13,75013
4586,27623;13,72718
4584,22512;13,70606
4582,17401;13,69658
4580,1229;13,69977
4578,0718;13,68781
4576,02069;13,65122
4573,96958;13,62523
4571,91848;13,63194
4569,86737;13,64275
4567,81626;13,62013
4565,76515;13,59483
4563,71405;13,61817
4561,66294;13,65438
4559,61183;13,64606
4557,56072;13,61798
4555,50962;13,60816
4553,45851;13,60511
4551,4074;13,57802
4549,35629;13,53532
4547,30519;13,53274
4545,25408;13,55759
4543,20297;13,55352
4541,15186;13,53535
4539,10076;13,53168
4537,04965;13,54265
4534,99854;13,55247
4532,94743;13,55433
4530,89633;13,56653
4528,84522;13,56859
4526,79411;13,54099
4524,743;13,51961
4522,6919;13,5243
4520,64079;13,54453
4518,58968;13,5751
4516,53857;13,61542
4514,48747;13,63469
4512,43636;13,61479
4510,38525;13,59913
4508,33414;13,59904
4506,28304;13,5969
4504,23193;13,60376
4502,18082;13,61425
4500,12971;13,62179
4498,07861;13,63541
4496,0275;13,65122
4493,97639;13,65102
4491,92529;13,62107
4489,87418;13,58562
4487,82307;13,56645
4485,77196;13,55635
4483,72086;13,57056
4481,66975;13,61208
4479,61864;13,64739
4477,56753;13,66316
4475,51643;13,65
4473,46532;13,61327
4471,41421;13,60468
4469,3631;13,62542
4467,312;13,63389
4465,26089;13,63816
4463,20978;13,6713
4461,15867;13,73162
4459,10757;13,76466
4457,05646;13,76182
4455,00535;13,77614
4452,95424;13,80706
4450,90314;13,84091
4448,85203;13,8806
4446,80092;13,90771
4444,74981;13,92224
4442,69871;13,9418
4440,6476;13,97389
4438,59649;14,00575
4436,54538;14,043
4434,49428;14,10747
4432,44317;14,15307
4430,39206;14,14188
4428,34095;14,13245
4426,28985;14,16665
4424,23874;14,20376
4422,18763;14,21784
4420,13652;14,24267
4418,08542;14,29346
4416,03431;14,33186
4413,9832;14,34396
4411,9321;14,37202
4409,88099;14,41925
4407,82988;14,46588
4405,77877;14,50319
4403,72767;14,48344
4401,67656;14,43236
4399,62545;14,43051
4397,57434;14,46762
4395,52324;14,52661
4393,47213;14,59625
4391,42102;14,62822
4389,36991;14,63206
4387,31881;14,64552
4385,2677;14,65594
4383,21659;14,66832
4381,16548;14,69836
4379,11438;14,71919
4377,06327;14,74105
4375,01216;14,78297
4372,96105;14,80811
4370,90995;14,80106
4368,85884;14,78966
4366,80773;14,80223
4364,75662;14,84097
4362,70552;14,875
4360,65441;14,88409
4358,6033;14,90492
4356,55219;14,95076
4354,50109;14,98711
4352,44998;15,00535
4350,39887;15,00248
4348,34776;15,00909
4346,29666;15,04424
4344,24555;15,0637
4342,19444;15,07953
4340,14333;15,10619
4338,09223;15,11073
4336,04112;15,10171
4333,99001;15,09016
4331,93891;15,09703
4329,8878;15,14699
4327,83669;15,18999
4325,78558;15,18616
4323,73448;15,18953
4321,68337;15,24584
4319,63226;15,31462
4317,58115;15,34705
4315,53005;15,33419
4313,47894;15,31347
4311,42783;15,32684
4309,37672;15,36401
4307,32562;15,4165
4305,27451;15,4576
4303,2234;15,45688
4301,17229;15,44316
4299,12119;15,44529
4297,07008;15,45879
4295,01897;15,47793
4292,96786;15,52289
4290,91676;15,57579
4288,86565;15,5825
4286,81454;15,56276
4284,76343;15,55574
4282,71233;15,56505
4280,66122;15,59056
4278,61011;15,5967
4276,559;15,54981
4274,5079;15,49527
4272,45679;15,50269
4270,40568;15,55102
4268,35457;15,5791
4266,30347;15,59965
4264,25236;15,64471
4262,20125;15,68727
4260,15014;15,67707
4258,09904;15,62776
4256,04793;15,58043
4253,99682;15,55294
4251,94572;15,55237
4249,89461;15,54784
4247,8435;15,52798
4245,79239;15,51128
4243,74129;15,48186
4241,69018;15,45122
4239,63907;15,45599
4237,58796;15,46765
4235,53686;15,44795
4233,48575;15,42308
4231,43464;15,41335
4229,38353;15,39785
4227,33243;15,37498
4225,28132;15,35977
4223,23021;15,3665
4221,1791;15,39102
4219,128;15,39319
4217,07689;15,37771
4215,02578;15,37213
4212,97467;15,35512
4210,92357;15,33641
4208,87246;15,35835
4206,82135;15,40747
4204,77024;15,43134
4202,71914;15,41985
4200,66803;15,40716
4198,61692;15,39258
4196,56581;15,37616
4194,51471;15,40551
4192,4636;15,47544
4190,41249;15,52429
4188,36138;15,54264
4186,31028;15,56382
4184,25917;15,57725
4182,20806;15,55135
4180,15695;15,50765
4178,10585;15,49802
4176,05474;15,53558
4174,00363;15,58449
4171,95253;15,61197
4169,90142;15,6191
4167,85031;15,61633
4165,7992;15,60587
4163,7481;15,60629
4161,69699;15,62572
4159,64588;15,64319
4157,59477;15,67463
4155,54367;15,73974
4153,49256;15,78263
4151,44145;15,76459
4149,39034;15,75201
4147,33924;15,79301
4145,28813;15,83465
4143,23702;15,8418
4141,18591;15,83865
4139,13481;15,83663
4137,0837;15,85929
4135,03259;15,92068
4132,98148;15,95107
4130,93038;15,90972
4128,87927;15,89271
4126,82816;15,94963
4124,77705;15,99485
4122,72595;16,01574
4120,67484;16,07327
4118,62373;16,13123
4116,57262;16,14317
4114,52152;16,14345
4112,47041;16,16878
4110,4193;16,21133
4108,36819;16,2514
4106,31709;16,30923
4104,26598;16,36806
4102,21487;16,38404
4100,16376;16,39287
4098,11266;16,43198
4096,06155;16,492
4094,01044;16,54653
4091,95934;16,59381
4089,90823;16,64008
4087,85712;16,66097
4085,80601;16,66558
4083,75491;16,70853
4081,7038;16,80218
4079,65269;16,89046
4077,60158;16,94234
4075,55048;16,97348
4073,49937;17,00128
4071,44826;17,04756
4069,39715;17,11755
4067,34605;17,18128
4065,29494;17,2111
4063,24383;17,23387
4061,19272;17,28509
4059,14162;17,33638
4057,09051;17,35903
4055,0394;17,38021
4052,98829;17,42075
4050,93719;17,47371
4048,88608;17,54239
4046,83497;17,62382
4044,78386;17,68358
4042,73276;17,71267
4040,68165;17,74613
4038,63054;17,81315
4036,57943;17,89858
4034,52833;17,95535
4032,47722;17,98745
4030,42611;18,02057
4028,375;18,04591
4026,3239;18,07982
4024,27279;18,12984
4022,22168;18,1682
4020,17057;18,21522
4018,11947;18,26842
4016,06836;18,26764
4014,01725;18,24877
4011,96615;18,25843
4009,91504;18,24905
4007,86393;18,2466
4005,81282;18,28762
4003,76172;18,31521
4001,71061;18,33743
3999,6595;18,37775
3997,60839;18,41501
3995,55729;18,44757
3993,50618;18,46136
3991,45507;18,45916
3989,40396;18,4747
3987,35286;18,48258
3985,30175;18,44201
3983,25064;18,41166
3981,19953;18,4621
3979,14843;18,54992
3977,09732;18,58688
3975,04621;18,56031
3972,9951;18,51969
3970,944;18,49979
3968,89289;18,50615
3966,84178;18,51984
3964,79067;18,5298
3962,73957;18,54815
3960,68846;18,57664
3958,63735;18,61278
3956,58624;18,65327
3954,53514;18,68912
3952,48403;18,70046
3950,43292;18,6702
3948,38181;18,61805
3946,33071;18,56819
3944,2796;18,52998
3942,22849;18,52548
3940,17738;18,56004
3938,12628;18,59831
3936,07517;18,61075
3934,02406;18,57366
3931,97296;18,4655
3929,92185;18,34766
3927,87074;18,30294
3925,81963;18,28631
3923,76853;18,2318
3921,71742;18,17977
3919,66631;18,14491
3917,6152;18,07264
3915,5641;17,97937
3913,51299;17,92502
3911,46188;17,91742
3909,41077;17,93774
3907,35967;17,93809
3905,30856;17,87646
3903,25745;17,79564
3901,20634;17,75516
3899,15524;17,75258
3897,10413;17,77837
3895,05302;17,8114
3893,00191;17,80381
3890,95081;17,75384
3888,8997;17,721
3886,84859;17,70737
3884,79748;17,68346
3882,74638;17,66305
3880,69527;17,65821
3878,64416;17,69372
3876,59305;17,77535
3874,54195;17,84258
3872,49084;17,83692
3870,43973;17,7592
3868,38862;17,68292
3866,33752;17,65582
3864,28641;17,64104
3862,2353;17,6362
3860,18419;17,66285
3858,13309;17,68524
3856,08198;17,63388
3854,03087;17,5188
3851,97977;17,48915
3849,92866;17,57263
3847,87755;17,65846
3845,82644;17,70045
3843,77534;17,70795
3841,72423;17,6887
3839,67312;17,62879
3837,62201;17,5556
3835,57091;17,54379
3833,5198;17,58049
3831,46869;17,61981
3829,41758;17,65227
3827,36648;17,66245
3825,31537;17,65795
3823,26426;17,65845
3821,21315;17,64691
3819,16205;17,6359
3817,11094;17,65539
3815,05983;17,70698
3813,00872;17,78733
3810,95762;17,86121
3808,90651;17,89253
3806,8554;17,89552
3804,80429;17,91446
3802,75319;17,93259
3800,70208;17,92086
3798,65097;17,93234
3796,59986;17,98928
3794,54876;18,05571
3792,49765;18,0944
3790,44654;18,10405
3788,39543;18,11552
3786,34433;18,1373
3784,29322;18,16174
3782,24211;18,19738
3780,191;18,2453
3778,1399;18,30018
3776,08879;18,36164
3774,03768;18,42457
3771,98658;18,48527
3769,93547;18,53656
3767,88436;18,56665
3765,83325;18,56526
3763,78215;18,55342
3761,73104;18,56272
3759,67993;18,5963
3757,62882;18,67545
3755,57772;18,80455
3753,52661;18,91135
3751,4755;18,9227
3749,42439;18,90579
3747,37329;18,96057
3745,32218;19,03088
3743,27107;19,10824
3741,21996;19,26088
3739,16886;19,41183
3737,11775;19,48217
3735,06664;19,5702
3733,01553;19,73937
3730,96443;19,86654
3728,91332;19,93693
3726,86221;20,02144
3724,8111;20,11934
3722,76;20,23086
3720,70889;20,37345
3718,65778;20,51639
3716,60667;20,62892
3714,55557;20,72497
3712,50446;20,84575
3710,45335;21,01166
3708,40224;21,2044
3706,35114;21,43257
3704,30003;21,72598
3702,24892;22,10995
3700,19781;22,56084
3698,14671;22,99176
3696,0956;23,36251
3694,04449;23,6705
3691,99338;23,90135
3689,94228;24,0777
3687,89117;24,29962
3685,84006;24,61762
3683,78896;24,94725
3681,73785;25,20778
3679,68674;25,42684
3677,63563;25,72693
3675,58453;26,2397
3673,53342;26,91375
3671,48231;27,55408
3669,4312;28,17931
3667,3801;28,85949
3665,32899;29,56355
3663,27788;30,28517
3661,22677;31,0344
3659,17567;31,82672
3657,12456;32,72129
3655,07345;33,66349
3653,02234;34,44535
3650,97124;35,13499
3648,92013;36,09065
3646,86902;37,37136
3644,81791;38,57266
3642,76681;39,47768
3640,7157;40,20735
3638,66459;40,95613
3636,61348;41,79174
3634,56238;42,67176
3632,51127;43,57008
3630,46016;44,61826
3628,40905;45,90884
3626,35795;47,0631
3624,30684;47,90052
3622,25573;48,82039
3620,20462;49,9665
3618,15352;50,93821
3616,10241;51,76482
3614,0513;52,99148
3612,00019;54,57277
3609,94909;55,95971
3607,89798;57,06115
3605,84687;58,27101
3603,79577;59,7415
3601,74466;61,21087
3599,69355;62,36562
3597,64244;63,11775
3595,59134;63,81476
3593,54023;65,16358
3591,48912;67,31155
3589,43801;69,54041
3587,38691;70,99255
3585,3358;71,72363
3583,28469;72,64034
3581,23358;73,88353
3579,18248;74,97943
3577,13137;76,05225
3575,08026;77,62401
3573,02915;79,58195
3570,97805;81,32737
3568,92694;82,37003
3566,87583;82,91698
3564,82472;83,88725
3562,77362;85,53268
3560,72251;87,56382
3558,6714;89,75048
3556,62029;91,53738
3554,56919;92,51755
3552,51808;93,20757
3550,46697;94,58284
3548,41586;96,85994
3546,36476;99,06841
3544,31365;100,43087
3542,26254;101,21839
3540,21143;101,84363
3538,16033;102,60799
3536,10922;103,88499
3534,05811;105,74281
3532,007;107,70918
3529,9559;108,82851
3527,90479;108,76434
3525,85368;108,99966
3523,80258;110,90208
3521,75147;113,89103
3519,70036;116,04247
3517,64925;116,57173
3515,59815;116,98607
3513,54704;118,52911
3511,49593;120,69559
3509,44482;122,26582
3507,39372;122,52725
3505,34261;122,02566
3503,2915;122,1414
3501,24039;123,20529
3499,18929;124,2639
3497,13818;125,07584
3495,08707;125,79861
3493,03596;126,16647
3490,98486;126,77841
3488,93375;128,39241
3486,88264;130,69789
3484,83153;132,46129
3482,78043;132,73337
3480,72932;132,60954
3478,67821;133,25369
3476,6271;133,94446
3474,576;134,12685
3472,52489;134,83272
3470,47378;136,73526
3468,42267;138,44048
3466,37157;138,2999
3464,32046;138,14894
3462,26935;140,30669
3460,21824;142,88454
3458,16714;143,90102
3456,11603;144,0542
3454,06492;143,871
3452,01381;142,95753
3449,96271;141,83195
3447,9116;141,47546
3445,86049;141,99968
3443,80939;143,28557
3441,75828;144,8947
3439,70717;145,97729
3437,65606;146,29623
3435,60496;147,44548
3433,55385;150,44344
3431,50274;153,21686
3429,45163;153,90565
3427,40053;153,89156
3425,34942;154,20676
3423,29831;153,1434
3421,2472;151,45583
3419,1961;152,19005
3417,14499;154,50346
3415,09388;156,05446
3413,04277;156,22246
3410,99167;155,69553
3408,94056;156,18069
3406,88945;157,75589
3404,83834;158,11993
3402,78724;157,03932
3400,73613;157,11719
3398,68502;157,75983
3396,63391;156,91565
3394,58281;155,9626
3392,5317;157,17781
3390,48059;159,34123
3388,42948;158,92429
3386,37838;156,72929
3384,32727;156,61871
3382,27616;158,80954
3380,22505;159,85356
3378,17395;159,01654
3376,12284;159,45515
3374,07173;161,40312
3372,02062;162,12321
3369,96952;160,90341
3367,91841;159,0298
3365,8673;157,10959
3363,8162;155,47031
3361,76509;154,7791
3359,71398;154,33997
3357,66287;154,66518
3355,61177;157,11435
3353,56066;160,26851
3351,50955;162,06157
3349,45844;160,21573
3347,40734;155,53719
3345,35623;153,12585
3343,30512;154,02676
3341,25401;156,10088
3339,20291;158,26608
3337,1518;158,67198
3335,10069;156,72305
3333,04958;154,28741
3330,99848;153,07277
3328,94737;153,37744
3326,89626;153,75175
3324,84515;152,64775
3322,79405;151,33914
3320,74294;151,53972
3318,69183;151,60222
3316,64072;150,64418
3314,58962;150,22385
3312,53851;150,65955
3310,4874;151,77335
3308,43629;152,81966
3306,38519;152,20563
3304,33408;149,80736
3302,28297;148,24582
3300,23186;149,46408
3298,18076;150,75972
3296,12965;149,84872
3294,07854;148,10876
3292,02743;147,56253
3289,97633;148,78275
3287,92522;149,88109
3285,87411;150,13358
3283,82301;149,88722
3281,7719;148,48824
3279,72079;146,38893
3277,66968;144,97209
3275,61858;145,08609
3273,56747;145,91722
3271,51636;146,14375
3269,46525;145,80249
3267,41415;144,90379
3265,36304;144,12151
3263,31193;144,51703
3261,26082;144,33606
3259,20972;142,73189
3257,15861;141,74969
3255,1075;141,27797
3253,05639;140,10999
3251,00529;139,27397
3248,95418;139,47934
3246,90307;139,8214
3244,85196;139,34671
3242,80086;138,34326
3240,74975;137,27353
3238,69864;135,13988
3236,64753;133,02774
3234,59643;132,71629
3232,54532;132,70808
3230,49421;132,0963
3228,4431;131,39612
3226,392;130,34689
3224,34089;129,27414
3222,28978;128,81491
3220,23867;129,29204
3218,18757;130,3437
3216,13646;130,49359
3214,08535;129,1508
3212,03424;127,07493
3209,98314;125,43204
3207,93203;124,46133
3205,88092;123,24338
3203,82982;122,24426
3201,77871;122,14945
3199,7276;121,77606
3197,67649;121,16932
3195,62539;121,26747
3193,57428;120,93762
3191,52317;119,21663
3189,47206;117,55058
3187,42096;117,22623
3185,36985;117,21412
3183,31874;116,75837
3181,26763;116,26947
3179,21653;115,13296
3177,16542;113,06339
3175,11431;110,78259
3173,0632;109,05346
3171,0121;108,60582
3168,96099;108,99631
3166,90988;109,1591
3164,85877;108,65885
3162,80767;107,42926
3160,75656;106,10875
3158,70545;105,04655
3156,65434;103,81081
3154,60324;102,51309
3152,55213;101,82165
3150,50102;101,75057
3148,44991;101,20719
3146,39881;99,94257
3144,3477;98,92574
3142,29659;98,47443
3140,24548;97,89616
3138,19438;96,80315
3136,14327;95,70113
3134,09216;94,76912
3132,04105;93,95509
3129,98995;93,60709
3127,93884;93,08205
3125,88773;91,87865
3123,83663;91,30388
3121,78552;91,45101
3119,73441;91,20582
3117,6833;90,64043
3115,6322;90,05314
3113,58109;89,51892
3111,52998;88,70187
3109,47887;87,16566
3107,42777;85,36276
3105,37666;84,07205
3103,32555;83,62745
3101,27444;83,64233
3099,22334;83,4436
3097,17223;82,9078
3095,12112;82,31239
3093,07001;81,64223
3091,01891;80,83722
3088,9678;80,14505
3086,91669;79,58668
3084,86558;78,89977
3082,81448;78,08126
3080,76337;77,38599
3078,71226;77,0397
3076,66115;77,05409
3074,61005;76,7809
3072,55894;75,60804
3070,50783;74,30572
3068,45672;73,54591
3066,40562;72,78272
3064,35451;71,7579
3062,3034;70,89725
3060,25229;70,43905
3058,20119;70,34353
3056,15008;70,32116
3054,09897;70,13359
3052,04786;69,84386
3049,99676;69,31279
3047,94565;68,58269
3045,89454;67,98977
3043,84344;67,52577
3041,79233;67,10377
3039,74122;66,66853
3037,69011;66,07504
3035,63901;65,42503
3033,5879;65,05703
3031,53679;64,84155
3029,48568;64,34798
3027,43458;63,70968
3025,38347;63,30668
3023,33236;63,25081
3021,28125;63,29774
3019,23015;63,10986
3017,17904;62,70268
3015,12793;62,27796
3013,07682;62,07813
3011,02572;62,13106
3008,97461;62,14945
3006,9235;62,0102
3004,87239;61,68769
3002,82129;61,32231
3000,77018;61,2473
2998,71907;61,43888
2996,66796;61,63732
2994,61686;61,86405
2992,56575;62,19289
2990,51464;62,45371
2988,46353;62,6741
2986,41243;62,99818
2984,36132;63,37213
2982,31021;63,65728
2980,2591;63,80552
2978,208;64,01163
2976,15689;64,28709
2974,10578;64,54703
2972,05467;65,0639
2970,00357;65,84944
2967,95246;66,4705
2965,90135;66,70882
2963,85025;66,87297
2961,79914;67,42559
2959,74803;68,21391
2957,69692;69,02536
2955,64582;69,97769
2953,59471;70,96574
2951,5436;72,08544
2949,49249;73,17339
2947,44139;73,6701
2945,39028;74,0556
2943,33917;74,9146
2941,28806;75,53822
2939,23696;75,69051
2937,18585;76,07902
2935,13474;76,68874
2933,08363;77,35374
2931,03253;77,91577
2928,98142;77,7928
2926,93031;77,09399
2924,8792;76,24905
2922,8281;75,60493
2920,77699;75,62471
2918,72588;75,9218
2916,67477;75,69274
2914,62367;75,06568
2912,57256;74,56961
2910,52145;74,1646
2908,47034;73,50394
2906,41924;72,77319
2904,36813;72,52679
2902,31702;72,70035
2900,26591;72,73051
2898,21481;72,47774
2896,1637;72,09204
2894,11259;71,53838
2892,06148;71,0005
2890,01038;70,84489
2887,95927;71,10296
2885,90816;71,36502
2883,85706;71,00809
2881,80595;70,13746
2879,75484;69,3237
2877,70373;68,51199
2875,65263;67,78772
2873,60152;67,3832
2871,55041;66,85867
2869,4993;66,15688
2867,4482;65,72784
2865,39709;65,23021
2863,34598;64,25162
2861,29487;63,20902
2859,24377;62,51448
2857,19266;61,95894
2855,14155;61,25728
2853,09044;60,61768
2851,03934;60,05709
2848,98823;59,38295
2846,93712;58,81729
2844,88601;58,55455
2842,83491;58,30946
2840,7838;57,78095
2838,73269;57,10316
2836,68158;56,50316
2834,63048;56,03819
2832,57937;55,63388
2830,52826;55,2068
2828,47715;54,76935
2826,42605;54,28801
2824,37494;53,71258
2822,32383;53,15645
2820,27272;52,71651
2818,22162;52,46387
2816,17051;52,41539
2814,1194;52,20477
2812,06829;51,64015
2810,01719;51,13762
2807,96608;50,91991
2805,91497;50,71612
2803,86387;50,40437
2801,81276;50,1085
2799,76165;49,92838
2797,71054;49,84581
2795,65944;49,65253
2793,60833;49,35263
2791,55722;49,08025
2789,50611;48,82438
2787,45501;48,5845
2785,4039;48,36359
2783,35279;48,21955
2781,30168;48,13628
2779,25058;47,99952
2777,19947;47,74213
2775,14836;47,38984
2773,09725;47,13527
2771,04615;47,09126
2768,99504;47,09415
2766,94393;46,97413
2764,89282;46,78329
2762,84172;46,67444
2760,79061;46,64695
2758,7395;46,55035
2756,68839;46,32487
2754,63729;46,06075
2752,58618;45,93026
2750,53507;45,94759
2748,48396;45,89882
2746,43286;45,7476
2744,38175;45,55635
2742,33064;45,36485
2740,27953;45,3047
2738,22843;45,30556
2736,17732;45,27041
2734,12621;45,18609
2732,0751;44,92507
2730,024;44,679
2727,97289;44,66328
2725,92178;44,60808
2723,87068;44,45557
2721,81957;44,40171
2719,76846;44,33669
2717,71735;44,17574
2715,66625;44,0424
2713,61514;43,96018
2711,56403;43,87517
2709,51292;43,75917
2707,46182;43,57405
2705,41071;43,39646
2703,3596;43,37489
2701,30849;43,43106
2699,25739;43,29134
2697,20628;43,00179
2695,15517;42,85989
2693,10406;42,83852
2691,05296;42,77602
2689,00185;42,63241
2686,95074;42,44357
2684,89963;42,24022
2682,84853;42,02984
2680,79742;41,90275
2678,74631;41,87952
2676,6952;41,86165
2674,6441;41,73316
2672,59299;41,47446
2670,54188;41,19824
2668,49077;41,00694
2666,43967;40,89508
2664,38856;40,77908
2662,33745;40,62965
2660,28634;40,48042
2658,23524;40,34136
2656,18413;40,2055
2654,13302;40,07729
2652,08191;39,94216
2650,03081;39,77367
2647,9797;39,61452
2645,92859;39,5384
2643,87749;39,4688
2641,82638;39,30582
2639,77527;39,12689
2637,72416;38,99097
2635,67306;38,84274
2633,62195;38,68643
2631,57084;38,60374
2629,51973;38,61518
2627,46863;38,66652
2625,41752;38,71635
2623,36641;38,76743
2621,3153;38,76352
2619,2642;38,67553
2617,21309;38,57642
2615,16198;38,49073
2613,11087;38,45961
2611,05977;38,48944
2609,00866;38,4963
2606,95755;38,48769
2604,90644;38,48705
2602,85534;38,45936
2600,80423;38,45465
2598,75312;38,47692
2596,70201;38,43602
2594,65091;38,35462
2592,5998;38,28857
2590,54869;38,2502
2588,49758;38,24088
2586,44648;38,22797
2584,39537;38,19757
2582,34426;38,21101
2580,29315;38,21844
2578,24205;38,13373
2576,19094;38,08823
2574,13983;38,11885
2572,08872;38,10609
2570,03762;38,03698
2567,98651;37,97213
2565,9354;37,95392
2563,8843;37,9676
2561,83319;37,9944
2559,78208;38,03695
2557,73097;38,04087
2555,67987;37,95422
2553,62876;37,88473
2551,57765;37,94711
2549,52654;38,06783
2547,47544;38,15377
2545,42433;38,17783
2543,37322;38,14059
2541,32211;38,13129
2539,27101;38,20643
2537,2199;38,33485
2535,16879;38,48253
2533,11768;38,60288
2531,06658;38,73512
2529,01547;38,9444
2526,96436;39,14867
2524,91325;39,32144
2522,86215;39,52832
2520,81104;39,72449
2518,75993;39,86106
2516,70882;39,8981
2514,65772;39,8121
2512,60661;39,68082
2510,5555;39,54097
2508,50439;39,43482
2506,45329;39,41183
2504,40218;39,34706
2502,35107;39,08693
2500,29996;38,73791
2498,24886;38,49049
2496,19775;38,24779
2494,14664;37,90145
2492,09553;37,62487
2490,04443;37,4379
2487,99332;37,18272
2485,94221;36,89198
2483,89111;36,63708
2481,84;36,4173
2479,78889;36,17899
2477,73778;35,91043
2475,68668;35,72961
2473,63557;35,60614
2471,58446;35,42034
2469,53335;35,20832
2467,48225;34,9996
2465,43114;34,7894
2463,38003;34,63656
2461,32892;34,51854
2459,27782;34,37776
2457,22671;34,25477
2455,1756;34,13583
2453,12449;33,99343
2451,07339;33,8993
2449,02228;33,87091
2446,97117;33,8327
2444,92006;33,738
2442,86896;33,57626
2440,81785;33,40849
2438,76674;33,33081
2436,71563;33,28941
2434,66453;33,21402
2432,61342;33,1541
2430,56231;33,12839
2428,5112;33,11243
2426,4601;33,09281
2424,40899;33,05271
2422,35788;32,98772
2420,30677;32,88347
2418,25567;32,74856
2416,20456;32,64642
2414,15345;32,61511
2412,10234;32,65211
2410,05124;32,68859
2408,00013;32,6474
2405,94902;32,55278
2403,89792;32,46772
2401,84681;32,4136
2399,7957;32,39251
2397,74459;32,4045
2395,69349;32,43163
2393,64238;32,45655
2391,59127;32,45506
2389,54016;32,41415
2387,48906;32,38581
2385,43795;32,40961
2383,38684;32,47655
2381,33573;32,59894
2379,28463;32,74513
2377,23352;32,80637
2375,18241;32,78961
2373,1313;32,84959
2371,0802;33,03043
2369,02909;33,18757
2366,97798;33,20636
2364,92687;33,21477
2362,87577;33,41828
2360,82466;33,66202
2358,77355;33,59263
2356,72244;33,25487
2354,67134;33,03425
2352,62023;33,14842
2350,56912;33,40987
2348,51801;33,46646
2346,46691;33,27969
2344,4158;33,16937
2342,36469;33,24954
2340,31358;33,29825
2338,26248;33,23774
2336,21137;33,19306
2334,16026;33,25124
2332,10915;33,30851
2330,05805;33,28966
2328,00694;33,32605
2325,95583;33,45636
2323,90473;33,49277
2321,85362;33,39153
2319,80251;33,34037
2317,7514;33,38436
2315,7003;33,44142
2313,64919;33,49769
2311,59808;33,51789
2309,54697;33,46982
2307,49587;33,43493
2305,44476;33,47036
2303,39365;33,49109
2301,34254;33,44379
2299,29144;33,4342
2297,24033;33,52809
2295,18922;33,62275
2293,13811;33,60506
2291,08701;33,52014
2289,0359;33,48263
2286,98479;33,52309
2284,93368;33,61249
2282,88258;33,70003
2280,83147;33,75226
2278,78036;33,78225
2276,72925;33,8076
2274,67815;33,86274
2272,62704;33,96862
2270,57593;34,06366
2268,52482;34,09568
2266,47372;34,11578
2264,42261;34,1815
2262,3715;34,28246
2260,32039;34,39962
2258,26929;34,52591
2256,21818;34,65157
2254,16707;34,76226
2252,11596;34,84375
2250,06486;34,90325
2248,01375;34,9564
2245,96264;35,01445
2243,91154;35,10972
2241,86043;35,2258
2239,80932;35,28082
2237,75821;35,30968
2235,70711;35,42461
2233,656;35,61026
2231,60489;35,79878
2229,55378;35,92074
2227,50268;35,9505
2225,45157;35,95298
2223,40046;36,00016
2221,34935;36,10589
2219,29825;36,19166
2217,24714;36,25988
2215,19603;36,37693
2213,14492;36,48761
2211,09382;36,58792
2209,04271;36,74302
2206,9916;36,87267
2204,94049;36,91312
2202,88939;36,95987
2200,83828;37,03344
2198,78717;37,11026
2196,73606;37,20994
2194,68496;37,28296
2192,63385;37,34499
2190,58274;37,48508
2188,53163;37,65934
2186,48053;37,78777
2184,42942;37,86851
2182,37831;37,9226
2180,3272;37,98975
2178,2761;38,07206
2176,22499;38,17319
2174,17388;38,29185
2172,12277;38,38105
2170,07167;38,48598
2168,02056;38,6484
2165,96945;38,79359
2163,91835;38,8702
2161,86724;38,9406
2159,81613;39,09239
2157,76502;39,30147
2155,71392;39,43569
2153,66281;39,46589
2151,6117;39,49347
2149,56059;39,58918
2147,50949;39,77493
2145,45838;39,96641
2143,40727;40,05429
2141,35616;40,08788
2139,30506;40,18
2137,25395;40,29075
2135,20284;40,30476
2133,15173;40,25763
2131,10063;40,21581
2129,04952;40,1701
2126,99841;40,12939
2124,9473;40,06579
2122,8962;39,90354
2120,84509;39,70643
2118,79398;39,64188
2116,74287;39,69451
2114,69177;39,722
2112,64066;39,71424
2110,58955;39,71264
2108,53844;39,72017
2106,48734;39,73809
2104,43623;39,73663
2102,38512;39,69274
2100,33401;39,65365
2098,28291;39,64101
2096,2318;39,60504
2094,18069;39,55671
2092,12958;39,53646
2090,07848;39,556
2088,02737;39,63215
2085,97626;39,71405
2083,92516;39,68007
2081,87405;39,54092
2079,82294;39,44897
2077,77183;39,45703
2075,72073;39,51848
2073,66962;39,57298
2071,61851;39,57692
2069,5674;39,56108
2067,5163;39,55434
2065,46519;39,53907
2063,41408;39,54052
2061,36297;39,5565
2059,31187;39,59755
2057,26076;39,7126
2055,20965;39,812
2053,15854;39,80061
2051,10744;39,69372
2049,05633;39,58749
2047,00522;39,58576
2044,95411;39,63401
2042,90301;39,6072
2040,8519;39,52857
2038,80079;39,50159
2036,74968;39,5034
2034,69858;39,48334
2032,64747;39,47322
2030,59636;39,45705
2028,54525;39,41413
2026,49415;39,43143
2024,44304;39,50777
2022,39193;39,49468
2020,34082;39,39975
2018,28972;39,38884
2016,23861;39,43496
2014,1875;39,39469
2012,13639;39,31032
2010,08529;39,27867
2008,03418;39,29376
2005,98307;39,28333
2003,93197;39,2455
2001,88086;39,24129
1999,82975;39,24884
1997,77864;39,27475
1995,72754;39,35098
1993,67643;39,38987
1991,62532;39,36941
1989,57421;39,36968
1987,52311;39,3969
1985,472;39,44249
1983,42089;39,47259
1981,36978;39,43287
1979,31868;39,35963
1977,26757;39,32108
1975,21646;39,33036
1973,16535;39,37133
1971,11425;39,40308
1969,06314;39,38573
1967,01203;39,41057
1964,96092;39,59398
1962,90982;39,83244
1960,85871;39,94107
1958,8076;39,86942
1956,75649;39,7219
1954,70539;39,64498
1952,65428;39,66836
1950,60317;39,71665
1948,55206;39,75238
1946,50096;39,8046
1944,44985;39,83411
1942,39874;39,78575
1940,34763;39,76053
1938,29653;39,80214
1936,24542;39,79448
1934,19431;39,70662
1932,1432;39,64955
1930,0921;39,66969
1928,04099;39,7114
1925,98988;39,76853
1923,93878;39,84231
1921,88767;39,89188
1919,83656;39,92686
1917,78545;39,99866
1915,73435;40,10376
1913,68324;40,16774
1911,63213;40,18209
1909,58102;40,23419
1907,52992;40,34
1905,47881;40,41664
1903,4277;40,44493
1901,37659;40,47139
1899,32549;40,51759
1897,27438;40,58419
1895,22327;40,6495
1893,17216;40,7115
1891,12106;40,80536
1889,06995;40,93132
1887,01884;41,03651
1884,96773;41,069
1882,91663;41,10316
1880,86552;41,2506
1878,81441;41,45606
1876,7633;41,59762
1874,7122;41,65675
1872,66109;41,67561
1870,60998;41,64785
1868,55887;41,6143
1866,50777;41,70599
1864,45666;41,88108
1862,40555;42,01222
1860,35444;42,12212
1858,30334;42,28738
1856,25223;42,49227
1854,20112;42,65024
1852,15001;42,73332
1850,09891;42,8185
1848,0478;42,9641
1845,99669;43,13873
1843,94559;43,31297
1841,89448;43,4944
1839,84337;43,6594
1837,79226;43,80806
1835,74116;43,96204
1833,69005;44,07279
1831,63894;44,1267
1829,58783;44,23907
1827,53673;44,45189
1825,48562;44,68144
1823,43451;44,94617
1821,3834;45,27863
1819,3323;45,60471
1817,28119;45,87613
1815,23008;46,10139
1813,17897;46,31624
1811,12787;46,63607
1809,07676;47,14354
1807,02565;47,79416
1804,97454;48,60545
1802,92344;49,68116
1800,87233;50,93055
1798,82122;51,99008
1796,77011;52,65376
1794,71901;53,06786
1792,6679;53,31393
1790,61679;53,18488
1788,56568;52,65635
1786,51458;52,08266
1784,46347;51,73977
1782,41236;51,53949
1780,36125;51,29923
1778,31015;51,01017
1776,25904;50,73487
1774,20793;50,51402
1772,15682;50,35255
1770,10572;50,34132
1768,05461;50,58855
1766,0035;50,98315
1763,9524;51,28699
1761,90129;51,4372
1759,85018;51,58535
1757,79907;51,85629
1755,74797;52,2108
1753,69686;52,57124
1751,64575;53,0042
1749,59464;53,52765
1747,54354;54,01377
1745,49243;54,41967
1743,44132;54,74726
1741,39021;55,0626
1739,33911;55,47169
1737,288;55,85886
1735,23689;56,14433
1733,18578;56,68431
1731,13468;57,58597
1729,08357;58,35122
1727,03246;58,74693
1724,98135;59,06559
1722,93025;59,61729
1720,87914;60,28523
1718,82803;60,88482
1716,77692;61,65545
1714,72582;62,85646
1712,67471;64,22433
1710,6236;65,49804
1708,57249;66,74797
1706,52139;68,17413
1704,47028;69,7058
1702,41917;71,16335
1700,36806;72,86298
1698,31696;75,02843
1696,26585;77,29594
1694,21474;79,34879
1692,16363;81,11865
1690,11253;82,9258
1688,06142;84,93219
1686,01031;87,16418
1683,95921;89,85162
1681,9081;92,56146
1679,85699;94,91457
1677,80588;97,27638
1675,75478;99,74555
1673,70367;101,82573
1671,65256;103,46213
1669,60145;105,46213
1667,55035;108,005
1665,49924;110,539
1663,44813;113,13769
1661,39702;115,79671
1659,34592;117,78555
1657,29481;118,74934
1655,2437;119,70719
1653,19259;122,40903
1651,14149;125,68381
1649,09038;126,96949
1647,03927;127,11788
1644,98816;127,60949
1642,93706;128,32227
1640,88595;128,55148
1638,83484;128,29173
1636,78373;128,09203
1634,73263;128,33994
1632,68152;128,71657
1630,63041;128,66098
1628,5793;128,26707
1626,5282;128,26599
1624,47709;128,83775
1622,42598;129,58852
1620,37487;130,43352
1618,32377;131,44124
1616,27266;133,17776
1614,22155;135,91307
1612,17044;138,15495
1610,11934;139,05174
1608,06823;139,60294
1606,01712;140,40874
1603,96602;140,70396
1601,91491;139,87509
1599,8638;137,99611
1597,81269;135,38484
1595,76159;132,35905
1593,71048;129,19588
1591,65937;125,87635
1589,60826;121,9702
1587,55716;117,37479
1585,50605;112,55875
1583,45494;108,04178
1581,40383;104,05763
1579,35273;100,4427
1577,30162;96,63708
1575,25051;92,67024
1573,1994;89,50344
1571,1483;86,85622
1569,09719;84,13575
1567,04608;81,8138
1564,99497;80,10323
1562,94387;78,71038
1560,89276;77,05225
1558,84165;74,75124
1556,79054;72,93826
1554,73944;72,05698
1552,68833;71,48109
1550,63722;70,90041
1548,58611;70,37795
1546,53501;70,04961
1544,4839;69,69787
1542,43279;69,10849
1540,38168;68,84501
1538,33058;69,44824
1536,27947;70,05587
1534,22836;70,27962
1532,17725;70,41528
1530,12615;70,47397
1528,07504;70,52452
1526,02393;70,95423
1523,97283;71,75076
1521,92172;72,47234
1519,87061;72,92289
1517,8195;73,35032
1515,7684;73,88003
1513,71729;74,2755
1511,66618;74,57195
1509,61507;74,99947
1507,56397;75,85289
1505,51286;77,35154
1503,46175;78,74828
1501,41064;79,61795
1499,35954;80,43087
1497,30843;81,63275
1495,25732;82,7827
1493,20621;83,35534
1491,15511;84,03822
1489,104;85,77438
1487,05289;88,21815
1485,00178;90,48804
1482,95068;92,42118
1480,89957;94,24801
1478,84846;96,20893
1476,79735;98,58308
1474,74625;101,59416
1472,69514;105,14488
1470,64403;108,39423
1468,59292;110,87231
1466,54182;113,40928
1464,49071;116,36139
1462,4396;118,75938
1460,38849;120,15409
1458,33739;121,70651
1456,28628;124,28233
1454,23517;126,77543
1452,18406;128,80446
1450,13296;130,47382
1448,08185;131,68776
1446,03074;132,88516
1443,97964;134,23755
1441,92853;135,68306
1439,87742;137,11867
1437,82631;137,8954
1435,77521;138,17206
1433,7241;139,24586
1431,67299;140,99086
1429,62188;142,24182
1427,57078;142,91502
1425,51967;143,63364
1423,46856;144,08835
1421,41745;143,87933
1419,36635;143,62543
1417,31524;143,41652
1415,26413;142,58366
1413,21302;141,07735
1411,16192;139,11105
1409,11081;137,26419
1407,0597;136,24231
1405,00859;136,62032
1402,95749;137,98688
1400,90638;138,35797
1398,85527;137,20497
1396,80416;136,51376
1394,75306;137,4566
1392,70195;138,9857
1390,65084;139,95901
1388,59973;140,47273
1386,54863;141,04492
1384,49752;141,71031
1382,44641;142,04947
1380,3953;141,98206
1378,3442;141,83551
1376,29309;142,01109
1374,24198;142,98691
1372,19087;144,47514
1370,13977;145,36879
1368,08866;144,84698
1366,03755;143,30952
1363,98645;142,4906
1361,93534;143,09898
1359,88423;144,08492
1357,83312;144,75992
1355,78202;145,11525
1353,73091;145,02069
1351,6798;144,31902
1349,62869;143,21996
1347,57759;142,14049
1345,52648;141,65294
1343,47537;141,95067
1341,42426;142,3187
1339,37316;142,18819
1337,32205;141,65173
1335,27094;141,34459
1333,21983;141,49222
1331,16873;141,47266
1329,11762;141,44148
1327,06651;141,67291
1325,0154;141,46223
1322,9643;140,93642
1320,91319;141,21683
1318,86208;141,94209
1316,81097;141,85643
1314,75987;141,59723
1312,70876;142,25403
1310,65765;143,2713
1308,60654;143,89203
1306,55544;144,14645
1304,50433;144,05812
1302,45322;143,9398
1300,40211;144,11287
1298,35101;144,00862
1296,2999;143,92635
1294,24879;144,72812
1292,19768;145,1463
1290,14658;144,15463
1288,09547;143,23253
1286,04436;143,24274
1283,99326;143,33212
1281,94215;143,27699
1279,89104;143,69765
1277,83993;144,72852
1275,78883;145,30719
1273,73772;144,30115
1271,68661;142,67413
1269,6355;142,13846
1267,5844;142,9725
1265,53329;144,07004
1263,48218;144,03085
1261,43107;143,09843
1259,37997;142,78395
1257,32886;143,67746
1255,27775;144,9695
1253,22664;145,48691
1251,17554;145,14963
1249,12443;144,73863
1247,07332;144,62048
1245,02221;144,72803
1242,97111;145,13202
1240,92;146,01123
1238,86889;147,35011
1236,81778;149,12941
1234,76668;150,35863
1232,71557;149,91005
1230,66446;149,53003
1228,61335;150,34348
1226,56225;150,56561
1224,51114;149,85995
1222,46003;149,51587
1220,40892;149,4682
1218,35782;149,20514
1216,30671;148,38686
1214,2556;146,74927
1212,20449;144,87764
1210,15339;144,11562
1208,10228;145,1768
1206,05117;145,91699
1204,00006;144,38695
1201,94896;142,72549
1199,89785;142,95364
1197,84674;144,09828
1195,79564;144,51074
1193,74453;144,8308
1191,69342;146,6757
1189,64231;149,59108
1187,59121;152,64313
1185,5401;156,74251
1183,48899;161,69243
1181,43788;166,10045
1179,38678;169,86047
1177,33567;173,3737
1175,28456;178,62767
1173,23345;186,10268
1171,18235;193,03569
1169,13124;198,8942
1167,08013;202,8364
1165,02902;204,88736
1162,97792;209,6499
1160,92681;217,26682
1158,8757;222,75406
1156,82459;224,99899
1154,77349;228,8607
1152,72238;235,66447
1150,67127;238,66959
1148,62016;236,61934
1146,56906;236,64677
1144,51795;241,41731
1142,46684;244,76007
1140,41573;242,91756
1138,36463;242,9025
1136,31352;248,75417
1134,26241;255,0527
1132,2113;258,86877
1130,1602;261,72803
1128,10909;263,41446
1126,05798;265,0575
1124,00687;267,61328
1121,95577;271,53952
1119,90466;276,98068
1117,85355;280,23239
1115,80245;279,22809
1113,75134;276,88721
1111,70023;276,86362
1109,64912;281,90607
1107,59802;289,10278
1105,54691;293,11572
1103,4958;297,34482
1101,44469;304,63144
1099,39359;311,3287
1097,34248;314,22021
1095,29137;313,74368
1093,24026;313,8786
1091,18916;316,10886
1089,13805;317,76688
1087,08694;316,57886
1085,03583;313,93289
1082,98473;313,11588
1080,93362;312,27087
1078,88251;311,00464
1076,8314;314,0127
1074,7803;320,82629
1072,72919;325,31256
1070,67808;321,8989
1068,62697;311,90643
1066,57587;305,24908
1064,52476;300,11725
1062,47365;292,20816
1060,42254;289,98294
1058,37144;290,31665
1056,32033;283,56909
1054,26922;277,40341
1052,21811;280,4165
1050,16701;288,2226
1048,1159;293,64813
1046,06479;292,84885
1044,01368;286,34735
1041,96258;280,25034
1039,91147;279,27975
1037,86036;279,47592
1035,80926;274,0174
1033,75815;267,89612
1031,70704;268,1582
1029,65593;269,90735
1027,60483;267,30835
1025,55372;264,02399
1023,50261;264,52542
1021,4515;264,56451
1019,4004;257,5062
1017,34929;248,41696
1015,29818;245,46834
1013,24707;246,00644
1011,19597;244,89798
1009,14486;242,50063
1007,09375;238,40204
1005,04264;234,22832
1002,99154;232,05646
1000,94043;229,33662
998,88932;223,39758
996,83821;216,24792
994,78711;213,04283
992,736;214,74898
990,68489;217,0965
988,63378;216,83803
986,58268;215,58083
984,53157;216,85641
982,48046;220,34218
980,42935;220,67363
978,37825;217,17937
976,32714;215,35059
974,27603;214,75714
972,22492;212,69708
970,17382;211,5984
968,12271;212,01624
966,0716;211,30627
964,02049;208,27916
961,96939;202,96675
959,91828;197,34331
957,86717;193,43787
955,81607;191,96352
953,76496;192,433
951,71385;192,22031
949,66274;190,3154
947,61164;187,66443
945,56053;184,61705
943,50942;181,15744
941,45831;178,15477
939,40721;177,25368
937,3561;177,65425
935,30499;178,83795
933,25388;180,49101
931,20278;180,15028
929,15167;177,98955
927,10056;177,07693
925,04945;178,20857
922,99835;180,36604
920,94724;183,28375
918,89613;186,39757
916,84502;189,77264
914,79392;191,88223
912,74281;190,711
910,6917;188,90251
908,64059;187,99762
906,58949;187,34872
904,53838;189,72339
902,48727;195,29156
900,43616;200,14136
898,38506;202,81175
896,33395;203,36739
894,28284;203,52927
892,23173;201,68965
890,18063;194,02866
888,12952;187,0737
886,07841;188,33618
884,0273;194,59375
881,9762;199,43079
879,92509;199,27708
877,87398;190,46631
875,82288;176,84212
873,77177;166,90204
871,72066;165,4955
869,66955;173,0284
867,61845;185,1516
865,56734;195,52805
863,51623;203,85574
861,46512;212,27634
859,41402;220,21144
857,36291;224,28474
855,3118;221,74663
853,26069;220,26569
851,20959;224,14954
849,15848;226,14738
847,10737;224,74327
845,05626;228,30376
843,00516;240,32916
840,95405;251,65828
838,90294;252,1235
836,85183;246,39407
834,80073;245,28615
832,74962;249,31725
830,69851;255,17407
828,6474;263,37311
826,5963;268,98291
824,54519;271,93985
822,49408;277,1575
820,44297;275,46866
818,39187;269,23935
816,34076;271,60242
814,28965;277,96445
812,23854;281,67798
810,18744;287,50156
808,13633;295,11227
806,08522;302,32626
804,03411;308,02652
801,98301;311,67676
799,9319;313,17999
797,88079;312,00186
795,82969;312,16528
793,77858;316,1181
791,72747;321,30643
789,67636;323,71515
787,62526;324,84927
785,57415;327,93576
783,52304;331,79382
781,47193;340,17017
779,42083;345,84134
777,36972;335,49521
775,31861;330,52481
773,2675;346,3819
771,2164;354,6456
769,16529;344,55597
767,11418;348,57516
765,06307;369,54471
763,01197;387,83688
760,96086;396,91193
758,90975;395,90146
756,85864;386,0426
754,80754;380,89044
752,75643;380,65326
750,70532;378,75177
748,65421;378,08176
746,60311;373,22531
744,552;367,85791
742,50089;378,48019
740,44978;398,36536
738,39868;397,4368
736,34757;388,00342
734,29646;385,75443
732,24535;381,96063
730,19425;389,3237
728,14314;414,56979
726,09203;434,89346
724,04092;433,44757
721,98982;421,10062
719,93871;417,38229
717,8876;432,53885
715,8365;462,75699
713,78539;478,47986
711,73428;463,35663
709,68317;436,33057
707,63207;405,05786
705,58096;374,33981
703,52985;356,36768
701,47874;350,69943
699,42764;343,96091
697,37653;335,97006
695,32542;341,19885
693,27431;360,84308
691,22321;374,74765
689,1721;365,8028
687,12099;335,15341
685,06988;297,9855
683,01878;274,81949
680,96767;273,15164
678,91656;280,19946
676,86545;282,30667
674,81435;281,88629
672,76324;280,57925
670,71213;272,45569
668,66102;259,02109
666,60992;252,56319
664,55881;253,45441
662,5077;255,92725
660,45659;260,74936
658,40549;263,42349
656,35438;259,10065
654,30327;250,5827
652,25216;246,85718
650,20106;250,05104
648,14995;249,65901
646,09884;240,54311
644,04773;229,50941
641,99663;223,9463
639,94552;229,52699
637,89441;239,80748
635,84331;238,7363
633,7922;226,82013
631,74109;217,77956
629,68998;221,00729
627,63888;237,15656
625,58777;247,31007
623,53666;247,0005
621,48555;244,71069
619,43445;235,06366
617,38334;222,76752
615,33223;218,69386
613,28112;217,86542
611,23002;213,74579
609,17891;213,80547
607,1278;217,18831
605,07669;217,50433
603,02559;219,13278
600,97448;223,98453
598,92337;225,83006
596,87226;216,12875
594,82116;200,69829
592,77005;193,14932
590,71894;186,91246
588,66783;172,28281
586,61673;158,05957
584,56562;150,48137
582,51451;144,72194
580,4634;136,60716
578,4123;128,57468
576,36119;121,92303
574,31008;116,70033
572,25897;114,14091
570,20787;115,21669
568,15676;117,5776
566,10565;114,83897
564,05454;108,43351
562,00344;105,84063
559,95233;109,89977
557,90122;117,93613
555,85012;123,83573
553,79901;125,77951
551,7479;128,92538
549,69679;135,13013
547,64569;139,72574
545,59458;135,50624
543,54347;124,45937
541,49236;117,27835
539,44126;120,06132
537,39015;128,62997
535,33904;131,63254
533,28793;129,10986
531,23683;130,33257
529,18572;134,67867
527,13461;134,78032
525,0835;128,08632
523,0324;118,93146
520,98129;110,43036
518,93018;103,70893
516,87907;100,15099
514,82797;98,39778
512,77686;93,69804
510,72575;86,42194
508,67464;80,69837
506,62354;77,6644
504,57243;75,5061
502,52132;72,49718
500,47021;69,70321
498,41911;68,45786
496,368;67,59496
494,31689;65,61058
492,26578;62,67961
490,21468;60,26381
488,16357;59,40722
486,11246;59,621
484,06135;59,96487
482,01025;60,31937
479,95914;61,11977
477,90803;61,75697
475,85693;61,1409
473,80582;59,7315
471,75471;58,47209
469,7036;57,99729
467,6525;58,1936
465,60139;58,26397
463,55028;57,70442
461,49917;57,25417
459,44807;58,71245
457,39696;61,85107
455,34585;63,59723
453,29474;63,47843
451,24364;64,50938
449,19253;66,97589
447,14142;66,86591
445,09031;64,63306
443,03921;65,63084
440,9881;69,27741
438,93699;70,34634
436,88588;68,27451
434,83478;66,12795
432,78367;66,14763
430,73256;67,16977
428,68145;65,14752
426,63035;58,69116
424,57924;51,89886
422,52813;48,4223
420,47702;46,839
418,42592;44,63491
416,37481;43,14442
414,3237;43,20048
412,27259;43,96822
410,22149;45,29948
408,17038;47,83677
406,11927;51,30909
404,06816;53,77395
402,01706;53,98301
399,96595;52,71513
