5997,43814;10,20423
5995,38704;10,22856
5993,33593;10,27502
5991,28482;10,30783
5989,23371;10,33825
5987,18261;10,34783
5985,1315;10,33275
5983,08039;10,30548
5981,02928;10,27475
5978,97818;10,26803
5976,92707;10,27048
5974,87596;10,22782
5972,82485;10,16458
5970,77375;10,15485
5968,72264;10,19556
5966,67153;10,23877
5964,62042;10,29635
5962,56932;10,35335
5960,51821;10,34625
5958,4671;10,30271
5956,41599;10,27421
5954,36489;10,27139
5952,31378;10,28788
5950,26267;10,3122
5948,21156;10,37242
5946,16046;10,45584
5944,10935;10,49106
5942,05824;10,48167
5940,00713;10,46793
5937,95603;10,43763
5935,90492;10,38772
5933,85381;10,34533
5931,80271;10,34895
5929,7516;10,40111
5927,70049;10,41463
5925,64938;10,38883
5923,59828;10,40156
5921,54717;10,42173
5919,49606;10,44048
5917,44495;10,46954
5915,39385;10,45177
5913,34274;10,41099
5911,29163;10,4152
5909,24052;10,43087
5907,18942;10,41776
5905,13831;10,38757
5903,0872;10,35092
5901,03609;10,3295
5898,98499;10,38093
5896,93388;10,47327
5894,88277;10,46662
5892,83166;10,37211
5890,78056;10,33353
5888,72945;10,40226
5886,67834;10,46794
5884,62723;10,41014
5882,57613;10,30673
5880,52502;10,29341
5878,47391;10,37312
5876,4228;10,44822
5874,3717;10,4473
5872,32059;10,42778
5870,26948;10,44288
5868,21837;10,42988
5866,16727;10,3928
5864,11616;10,36952
5862,06505;10,34847
5860,01394;10,35695
5857,96284;10,39147
5855,91173;10,41564
5853,86062;10,44797
5851,80952;10,52972
5849,75841;10,59562
5847,7073;10,56496
5845,65619;10,48914
5843,60509;10,46975
5841,55398;10,54222
5839,50287;10,60359
5837,45176;10,57688
5835,40066;10,53557
5833,34955;10,53567
5831,29844;10,52588
5829,24733;10,46907
5827,19623;10,41898
5825,14512;10,39798
5823,09401;10,39467
5821,0429;10,42133
5818,9918;10,4709
5816,94069;10,48697
5814,88958;10,47489
5812,83847;10,52095
5810,78737;10,60781
5808,73626;10,62614
5806,68515;10,57485
5804,63404;10,55565
5802,58294;10,55592
5800,53183;10,49883
5798,48072;10,42291
5796,42961;10,38756
5794,37851;10,40247
5792,3274;10,44498
5790,27629;10,47779
5788,22518;10,49099
5786,17408;10,51498
5784,12297;10,53828
5782,07186;10,52473
5780,02075;10,50776
5777,96965;10,50661
5775,91854;10,49406
5773,86743;10,47225
5771,81633;10,48721
5769,76522;10,50434
5767,71411;10,46512
5765,663;10,44828
5763,6119;10,5284
5761,56079;10,653
5759,50968;10,68752
5757,45857;10,62452
5755,40747;10,61296
5753,35636;10,665
5751,30525;10,66456
5749,25414;10,61033
5747,20304;10,57688
5745,15193;10,56116
5743,10082;10,54208
5741,04971;10,55137
5738,99861;10,57587
5736,9475;10,5596
5734,89639;10,54066
5732,84528;10,58393
5730,79418;10,63177
5728,74307;10,60444
5726,69196;10,55815
5724,64085;10,56629
5722,58975;10,61209
5720,53864;10,67049
5718,48753;10,71975
5716,43642;10,74376
5714,38532;10,73817
5712,33421;10,70752
5710,2831;10,68528
5708,23199;10,67043
5706,18089;10,64875
5704,12978;10,63942
5702,07867;10,6354
5700,02756;10,61179
5697,97646;10,59528
5695,92535;10,60576
5693,87424;10,62987
5691,82314;10,64194
5689,77203;10,60328
5687,72092;10,56423
5685,66981;10,57356
5683,61871;10,55106
5681,5676;10,48264
5679,51649;10,47263
5677,46538;10,53958
5675,41428;10,58651
5673,36317;10,56733
5671,31206;10,54609
5669,26095;10,55365
5667,20985;10,53526
5665,15874;10,48205
5663,10763;10,45316
5661,05652;10,48017
5659,00542;10,56317
5656,95431;10,65878
5654,9032;10,66536
5652,85209;10,59111
5650,80099;10,58757
5648,74988;10,65112
5646,69877;10,65599
5644,64766;10,61067
5642,59656;10,56677
5640,54545;10,55006
5638,49434;10,55236
5636,44323;10,52353
5634,39213;10,46541
5632,34102;10,44162
5630,28991;10,49399
5628,2388;10,5709
5626,1877;10,63093
5624,13659;10,69292
5622,08548;10,71899
5620,03437;10,68253
5617,98327;10,64297
5615,93216;10,65253
5613,88105;10,69963
5611,82995;10,72454
5609,77884;10,73241
5607,72773;10,72727
5605,67662;10,65753
5603,62552;10,58428
5601,57441;10,54605
5599,5233;10,50335
5597,47219;10,50142
5595,42109;10,56486
5593,36998;10,62351
5591,31887;10,64715
5589,26776;10,67739
5587,21666;10,70089
5585,16555;10,70346
5583,11444;10,70343
5581,06333;10,67198
5579,01223;10,60165
5576,96112;10,5643
5574,91001;10,6127
5572,8589;10,67103
5570,8078;10,65563
5568,75669;10,6107
5566,70558;10,56955
5564,65447;10,51737
5562,60337;10,48886
5560,55226;10,52795
5558,50115;10,592
5556,45004;10,59616
5554,39894;10,57153
5552,34783;10,57941
5550,29672;10,57936
5548,24561;10,57224
5546,19451;10,61457
5544,1434;10,68832
5542,09229;10,73056
5540,04118;10,72111
5537,99008;10,69511
5535,93897;10,68852
5533,88786;10,69192
5531,83676;10,67774
5529,78565;10,65868
5527,73454;10,65755
5525,68343;10,65795
5523,63233;10,63349
5521,58122;10,5976
5519,53011;10,592
5517,479;10,63357
5515,4279;10,70366
5513,37679;10,74357
5511,32568;10,73013
5509,27457;10,7291
5507,22347;10,7603
5505,17236;10,76036
5503,12125;10,70296
5501,07014;10,63682
5499,01904;10,61802
5496,96793;10,64301
5494,91682;10,65905
5492,86571;10,64945
5490,81461;10,66952
5488,7635;10,70828
5486,71239;10,6856
5484,66128;10,62375
5482,61018;10,59751
5480,55907;10,64165
5478,50796;10,71319
5476,45685;10,70778
5474,40575;10,64464
5472,35464;10,63443
5470,30353;10,67181
5468,25242;10,71596
5466,20132;10,7473
5464,15021;10,73813
5462,0991;10,70606
5460,04799;10,6877
5457,99689;10,68445
5455,94578;10,69538
5453,89467;10,72969
5451,84357;10,76744
5449,79246;10,78412
5447,74135;10,81505
5445,69024;10,87736
5443,63914;10,89584
5441,58803;10,84465
5439,53692;10,79121
5437,48581;10,77018
5435,43471;10,75034
5433,3836;10,70887
5431,33249;10,67752
5429,28138;10,69519
5427,23028;10,76825
5425,17917;10,82813
5423,12806;10,79875
5421,07695;10,73061
5419,02585;10,72075
5416,97474;10,76251
5414,92363;10,76932
5412,87252;10,71255
5410,82142;10,66226
5408,77031;10,6575
5406,7192;10,67315
5404,66809;10,70037
5402,61699;10,73829
5400,56588;10,7591
5398,51477;10,76992
5396,46366;10,81223
5394,41256;10,86514
5392,36145;10,88696
5390,31034;10,89053
5388,25923;10,89809
5386,20813;10,90601
5384,15702;10,89483
5382,10591;10,87163
5380,0548;10,85242
5378,0037;10,82716
5375,95259;10,81625
5373,90148;10,83502
5371,85038;10,83122
5369,79927;10,79105
5367,74816;10,77089
5365,69705;10,81515
5363,64595;10,8932
5361,59484;10,93285
5359,54373;10,91535
5357,49262;10,88993
5355,44152;10,92071
5353,39041;10,98367
5351,3393;10,98273
5349,28819;10,93553
5347,23709;10,91747
5345,18598;10,92002
5343,13487;10,93433
5341,08376;10,95726
5339,03266;10,94562
5336,98155;10,91222
5334,93044;10,90227
5332,87933;10,90955
5330,82823;10,93093
5328,77712;10,98143
5326,72601;11,02009
5324,6749;11,01201
5322,6238;10,98686
5320,57269;10,96908
5318,52158;10,96542
5316,47047;10,95669
5314,41937;10,95616
5312,36826;11,00525
5310,31715;11,05774
5308,26604;11,06386
5306,21494;11,07941
5304,16383;11,14176
5302,11272;11,20232
5300,06161;11,22153
5298,01051;11,2103
5295,9594;11,20535
5293,90829;11,23764
5291,85719;11,30237
5289,80608;11,35496
5287,75497;11,36612
5285,70386;11,35167
5283,65276;11,34124
5281,60165;11,3368
5279,55054;11,32514
5277,49943;11,32267
5275,44833;11,32403
5273,39722;11,32384
5271,34611;11,36801
5269,295;11,45483
5267,2439;11,51321
5265,19279;11,52065
5263,14168;11,50059
5261,09057;11,47327
5259,03947;11,48189
5256,98836;11,5181
5254,93725;11,53423
5252,88614;11,57087
5250,83504;11,66763
5248,78393;11,75697
5246,73282;11,7768
5244,68171;11,75606
5242,63061;11,74998
5240,5795;11,78085
5238,52839;11,82125
5236,47728;11,83963
5234,42618;11,84109
5232,37507;11,83531
5230,32396;11,8651
5228,27285;11,95256
5226,22175;12,00765
5224,17064;11,98853
5222,11953;11,9635
5220,06842;11,96362
5218,01732;11,99379
5215,96621;12,04371
5213,9151;12,07939
5211,864;12,10037
5209,81289;12,10245
5207,76178;12,07272
5205,71067;12,05584
5203,65957;12,08646
5201,60846;12,12977
5199,55735;12,14389
5197,50624;12,12648
5195,45514;12,1216
5193,40403;12,14867
5191,35292;12,1716
5189,30181;12,16678
5187,25071;12,15687
5185,1996;12,16763
5183,14849;12,15983
5181,09738;12,09772
5179,04628;12,04841
5176,99517;12,07582
5174,94406;12,13544
5172,89295;12,17939
5170,84185;12,21799
5168,79074;12,23557
5166,73963;12,215
5164,68852;12,22353
5162,63742;12,30245
5160,58631;12,34553
5158,5352;12,29828
5156,48409;12,25451
5154,43299;12,2631
5152,38188;12,29998
5150,33077;12,33222
5148,27966;12,34003
5146,22856;12,32584
5144,17745;12,29143
5142,12634;12,23461
5140,07523;12,19282
5138,02413;12,19968
5135,97302;12,21792
5133,92191;12,24096
5131,87081;12,29476
5129,8197;12,324
5127,76859;12,27639
5125,71748;12,20602
5123,66638;12,19246
5121,61527;12,25498
5119,56416;12,32514
5117,51305;12,32227
5115,46195;12,27486
5113,41084;12,25707
5111,35973;12,28076
5109,30862;12,30064
5107,25752;12,29603
5105,20641;12,27118
5103,1553;12,22263
5101,10419;12,18517
5099,05309;12,18307
5097,00198;12,17551
5094,95087;12,14909
5092,89976;12,14115
5090,84866;12,14138
5088,79755;12,1398
5086,74644;12,16398
5084,69533;12,18816
5082,64423;12,17382
5080,59312;12,14325
5078,54201;12,13033
5076,4909;12,12033
5074,4398;12,11139
5072,38869;12,13953
5070,33758;12,17978
5068,28647;12,1726
5066,23537;12,13004
5064,18426;12,11239
5062,13315;12,13371
5060,08204;12,16396
5058,03094;12,18329
5055,97983;12,17326
5053,92872;12,13664
5051,87762;12,08999
5049,82651;12,05393
5047,7754;12,06605
5045,72429;12,09283
5043,67319;12,07889
5041,62208;12,06005
5039,57097;12,06386
5037,51986;12,07923
5035,46876;12,10532
5033,41765;12,11339
5031,36654;12,11444
5029,31543;12,15065
5027,26433;12,16966
5025,21322;12,12762
5023,16211;12,07368
5021,111;12,04008
5019,0599;12,01469
5017,00879;12,00124
5014,95768;12,01121
5012,90657;12,03343
5010,85547;12,04873
5008,80436;12,0516
5006,75325;12,05933
5004,70214;12,07304
5002,65104;12,07515
5000,59993;12,07461
4998,54882;12,07614
4996,49771;12,06412
4994,44661;12,04339
4992,3955;12,03378
4990,34439;12,03693
4988,29328;12,02221
4986,24218;11,99288
4984,19107;11,99322
4982,13996;12,01885
4980,08885;12,02897
4978,03775;12,02301
4975,98664;12,01248
4973,93553;11,97654
4971,88443;11,92987
4969,83332;11,90918
4967,78221;11,91183
4965,7311;11,92997
4963,68;11,95846
4961,62889;11,97511
4959,57778;11,97396
4957,52667;11,98822
4955,47557;12,02639
4953,42446;12,02833
4951,37335;11,97076
4949,32224;11,92181
4947,27114;11,9254
4945,22003;11,95606
4943,16892;11,96741
4941,11781;11,95311
4939,06671;11,95397
4937,0156;11,97376
4934,96449;11,97937
4932,91338;11,98028
4930,86228;12,01618
4928,81117;12,06721
4926,76006;12,07752
4924,70895;12,06133
4922,65785;12,03745
4920,60674;11,98204
4918,55563;11,93779
4916,50452;11,93813
4914,45342;11,94842
4912,40231;11,96792
4910,3512;11,99017
4908,30009;11,9954
4906,24899;12,01078
4904,19788;12,05558
4902,14677;12,09556
4900,09566;12,09459
4898,04456;12,07015
4895,99345;12,05932
4893,94234;12,07401
4891,89124;12,09394
4889,84013;12,08162
4887,78902;12,05927
4885,73791;12,07178
4883,68681;12,0896
4881,6357;12,09283
4879,58459;12,10144
4877,53348;12,10637
4875,48238;12,10581
4873,43127;12,11018
4871,38016;12,10494
4869,32905;12,09799
4867,27795;12,10715
4865,22684;12,12321
4863,17573;12,13131
4861,12462;12,12107
4859,07352;12,09291
4857,02241;12,05872
4854,9713;12,05114
4852,92019;12,06533
4850,86909;12,06744
4848,81798;12,06394
4846,76687;12,05992
4844,71576;12,06836
4842,66466;12,09657
4840,61355;12,10084
4838,56244;12,05809
4836,51133;12,00744
4834,46023;11,99126
4832,40912;11,99624
4830,35801;11,97564
4828,3069;11,94639
4826,2558;11,96003
4824,20469;11,98408
4822,15358;11,97266
4820,10247;11,95457
4818,05137;11,94945
4816,00026;11,94096
4813,94915;11,93721
4811,89805;11,95109
4809,84694;11,95569
4807,79583;11,93562
4805,74472;11,92203
4803,69362;11,9158
4801,64251;11,89901
4799,5914;11,89132
4797,54029;11,88188
4795,48919;11,85425
4793,43808;11,84565
4791,38697;11,84919
4789,33586;11,83691
4787,28476;11,84586
4785,23365;11,88484
4783,18254;11,91772
4781,13143;11,94393
4779,08033;11,95593
4777,02922;11,92142
4774,97811;11,87701
4772,927;11,88044
4770,8759;11,90943
4768,82479;11,92001
4766,77368;11,89695
4764,72257;11,85614
4762,67147;11,84229
4760,62036;11,87439
4758,56925;11,89983
4756,51814;11,87157
4754,46704;11,83891
4752,41593;11,84705
4750,36482;11,86187
4748,31371;11,86197
4746,26261;11,85861
4744,2115;11,86785
4742,16039;11,89932
4740,10928;11,91944
4738,05818;11,90629
4736,00707;11,87656
4733,95596;11,85214
4731,90486;11,8562
4729,85375;11,89263
4727,80264;11,93829
4725,75153;11,97278
4723,70043;11,98678
4721,64932;11,96555
4719,59821;11,93978
4717,5471;11,9452
4715,496;11,95624
4713,44489;11,96685
4711,39378;11,98002
4709,34267;11,96994
4707,29157;11,96117
4705,24046;11,97727
4703,18935;11,98277
4701,13824;11,97806
4699,08714;11,98125
4697,03603;11,97399
4694,98492;11,94863
4692,93381;11,93222
4690,88271;11,95644
4688,8316;11,9954
4686,78049;12,00181
4684,72938;11,99842
4682,67828;12,00483
4680,62717;12,00408
4678,57606;12,03325
4676,52495;12,09681
4674,47385;12,12444
4672,42274;12,11321
4670,37163;12,11892
4668,32052;12,1434
4666,26942;12,14387
4664,21831;12,10727
4662,1672;12,07144
4660,11609;12,06934
4658,06499;12,08072
4656,01388;12,09457
4653,96277;12,11881
4651,91167;12,13752
4649,86056;12,14916
4647,80945;12,1594
4645,75834;12,15739
4643,70724;12,13669
4641,65613;12,11314
4639,60502;12,11365
4637,55391;12,13603
4635,50281;12,16113
4633,4517;12,18413
4631,40059;12,20425
4629,34948;12,21626
4627,29838;12,21023
4625,24727;12,19599
4623,19616;12,20119
4621,14505;12,22963
4619,09395;12,25504
4617,04284;12,25164
4614,99173;12,23231
4612,94062;12,21603
4610,88952;12,20285
4608,83841;12,1975
4606,7873;12,21458
4604,73619;12,25456
4602,68509;12,27954
4600,63398;12,27482
4598,58287;12,2711
4596,53176;12,28
4594,48066;12,28401
4592,42955;12,28546
4590,37844;12,28956
4588,32733;12,26762
4586,27623;12,21743
4584,22512;12,18245
4582,17401;12,19044
4580,1229;12,23884
4578,0718;12,29674
4576,02069;12,29596
4573,96958;12,23512
4571,91848;12,20573
4569,86737;12,22657
4567,81626;12,22589
4565,76515;12,19605
4563,71405;12,18201
4561,66294;12,18124
4559,61183;12,18113
4557,56072;12,18123
4555,50962;12,19468
4553,45851;12,22459
4551,4074;12,24448
4549,35629;12,23375
4547,30519;12,1979
4545,25408;12,17377
4543,20297;12,16883
4541,15186;12,16188
4539,10076;12,16963
4537,04965;12,20192
4534,99854;12,22392
4532,94743;12,23638
4530,89633;12,25583
4528,84522;12,25606
4526,79411;12,23571
4524,743;12,21265
4522,6919;12,19467
4520,64079;12,17861
4518,58968;12,15653
4516,53857;12,14895
4514,48747;12,16768
4512,43636;12,19316
4510,38525;12,19607
4508,33414;12,16823
4506,28304;12,15014
4504,23193;12,1649
4502,18082;12,1831
4500,12971;12,17751
4498,07861;12,16112
4496,0275;12,16207
4493,97639;12,1851
4491,92529;12,21641
4489,87418;12,22555
4487,82307;12,20283
4485,77196;12,1691
4483,72086;12,15093
4481,66975;12,16128
4479,61864;12,17663
4477,56753;12,18295
4475,51643;12,17996
4473,46532;12,16758
4471,41421;12,17504
4469,3631;12,20872
4467,312;12,21927
4465,26089;12,20712
4463,20978;12,21188
4461,15867;12,22407
4459,10757;12,23694
4457,05646;12,25268
4455,00535;12,25525
4452,95424;12,24987
4450,90314;12,27641
4448,85203;12,33021
4446,80092;12,36303
4444,74981;12,37634
4442,69871;12,37076
4440,6476;12,34478
4438,59649;12,34994
4436,54538;12,39229
4434,49428;12,40937
4432,44317;12,39711
4430,39206;12,40745
4428,34095;12,44348
4426,28985;12,47443
4424,23874;12,48696
4422,18763;12,49231
4420,13652;12,51068
4418,08542;12,53588
4416,03431;12,55878
4413,9832;12,59053
4411,9321;12,62139
4409,88099;12,63544
4407,82988;12,65939
4405,77877;12,70816
4403,72767;12,73371
4401,67656;12,71875
4399,62545;12,69696
4397,57434;12,67119
4395,52324;12,66043
4393,47213;12,69624
4391,42102;12,74807
4389,36991;12,78072
4387,31881;12,79717
4385,2677;12,79946
4383,21659;12,79016
4381,16548;12,78862
4379,11438;12,79044
4377,06327;12,77666
4375,01216;12,77514
4372,96105;12,80678
4370,90995;12,83878
4368,85884;12,85494
4366,80773;12,8745
4364,75662;12,89629
4362,70552;12,90206
4360,65441;12,89628
4358,6033;12,90159
4356,55219;12,93032
4354,50109;12,95038
4352,44998;12,92855
4350,39887;12,91349
4348,34776;12,94996
4346,29666;12,99604
4344,24555;12,99487
4342,19444;12,95555
4340,14333;12,95732
4338,09223;13,02983
4336,04112;13,07904
4333,99001;13,0464
4331,93891;13,00902
4329,8878;13,02245
4327,83669;13,06403
4325,78558;13,09193
4323,73448;13,06134
4321,68337;13,00259
4319,63226;12,99402
4317,58115;13,03026
4315,53005;13,06416
4313,47894;13,10013
4311,42783;13,14431
4309,37672;13,17139
4307,32562;13,16357
4305,27451;13,12794
4303,2234;13,10717
4301,17229;13,13122
4299,12119;13,16833
4297,07008;13,18963
4295,01897;13,19853
4292,96786;13,19148
4290,91676;13,18507
4288,86565;13,20434
4286,81454;13,22872
4284,76343;13,22566
4282,71233;13,2063
4280,66122;13,22036
4278,61011;13,2755
4276,559;13,30916
4274,5079;13,2978
4272,45679;13,27846
4270,40568;13,25393
4268,35457;13,22132
4266,30347;13,22227
4264,25236;13,24763
4262,20125;13,24133
4260,15014;13,21684
4258,09904;13,20276
4256,04793;13,19551
4253,99682;13,19752
4251,94572;13,20553
4249,89461;13,21172
4247,8435;13,20486
4245,79239;13,18111
4243,74129;13,15435
4241,69018;13,13215
4239,63907;13,11481
4237,58796;13,10303
4235,53686;13,08763
4233,48575;13,07281
4231,43464;13,07457
4229,38353;13,08101
4227,33243;13,07836
4225,28132;13,07292
4223,23021;13,0782
4221,1791;13,08773
4219,128;13,09142
4217,07689;13,10806
4215,02578;13,12417
4212,97467;13,11523
4210,92357;13,10253
4208,87246;13,0997
4206,82135;13,1039
4204,77024;13,12154
4202,71914;13,15512
4200,66803;13,18497
4198,61692;13,1839
4196,56581;13,16228
4194,51471;13,14225
4192,4636;13,11359
4190,41249;13,09734
4188,36138;13,12456
4186,31028;13,16045
4184,25917;13,17277
4182,20806;13,16993
4180,15695;13,17214
4178,10585;13,1861
4176,05474;13,19364
4174,00363;13,18764
4171,95253;13,19207
4169,90142;13,21474
4167,85031;13,21883
4165,7992;13,19183
4163,7481;13,15876
4161,69699;13,15053
4159,64588;13,18208
4157,59477;13,22482
4155,54367;13,2375
4153,49256;13,21922
4151,44145;13,20282
4149,39034;13,19653
4147,33924;13,19241
4145,28813;13,18932
4143,23702;13,20086
4141,18591;13,22436
4139,13481;13,22033
4137,0837;13,20262
4135,03259;13,21345
4132,98148;13,23705
4130,93038;13,25085
4128,87927;13,26624
4126,82816;13,28364
4124,77705;13,2898
4122,72595;13,28655
4120,67484;13,29503
4118,62373;13,31885
4116,57262;13,32829
4114,52152;13,32266
4112,47041;13,32822
4110,4193;13,3398
4108,36819;13,33613
4106,31709;13,32766
4104,26598;13,33395
4102,21487;13,36797
4100,16376;13,42072
4098,11266;13,44167
4096,06155;13,43051
4094,01044;13,44564
4091,95934;13,49967
4089,90823;13,54236
4087,85712;13,53611
4085,80601;13,51575
4083,75491;13,51833
4081,7038;13,53586
4079,65269;13,56394
4077,60158;13,602
4075,55048;13,65392
4073,49937;13,70807
4071,44826;13,72913
4069,39715;13,72644
4067,34605;13,72565
4065,29494;13,73302
4063,24383;13,76081
4061,19272;13,79775
4059,14162;13,81363
4057,09051;13,80701
4055,0394;13,7976
4052,98829;13,80189
4050,93719;13,8134
4048,88608;13,81877
4046,83497;13,8418
4044,78386;13,89033
4042,73276;13,93351
4040,68165;13,95895
4038,63054;13,96515
4036,57943;13,95921
4034,52833;13,96337
4032,47722;13,98292
4030,42611;14,00233
4028,375;14,02264
4026,3239;14,04266
4024,27279;14,03792
4022,22168;14,02575
4020,17057;14,03908
4018,11947;14,06549
4016,06836;14,09501
4014,01725;14,12995
4011,96615;14,14712
4009,91504;14,14181
4007,86393;14,13274
4005,81282;14,12333
4003,76172;14,13146
4001,71061;14,16305
3999,6595;14,19776
3997,60839;14,23442
3995,55729;14,26997
3993,50618;14,28849
3991,45507;14,30368
3989,40396;14,33176
3987,35286;14,35673
3985,30175;14,36816
3983,25064;14,3709
3981,19953;14,37605
3979,14843;14,39253
3977,09732;14,41654
3975,04621;14,43622
3972,9951;14,43463
3970,944;14,40621
3968,89289;14,37653
3966,84178;14,38131
3964,79067;14,42301
3962,73957;14,46449
3960,68846;14,47753
3958,63735;14,47943
3956,58624;14,49911
3954,53514;14,53716
3952,48403;14,57089
3950,43292;14,58131
3948,38181;14,57711
3946,33071;14,58272
3944,2796;14,58488
3942,22849;14,56564
3940,17738;14,5692
3938,12628;14,61043
3936,07517;14,6337
3934,02406;14,60764
3931,97296;14,54791
3929,92185;14,49372
3927,87074;14,47594
3925,81963;14,47931
3923,76853;14,47931
3921,71742;14,4718
3919,66631;14,43888
3917,6152;14,37125
3915,5641;14,31221
3913,51299;14,29937
3911,46188;14,3173
3909,41077;14,33529
3907,35967;14,32568
3905,30856;14,2645
3903,25745;14,16838
3901,20634;14,09415
3899,15524;14,07743
3897,10413;14,1124
3895,05302;14,15895
3893,00191;14,1813
3890,95081;14,18269
3888,8997;14,18287
3886,84859;14,16795
3884,79748;14,14064
3882,74638;14,13523
3880,69527;14,13506
3878,64416;14,14704
3876,59305;14,17888
3874,54195;14,17829
3872,49084;14,15042
3870,43973;14,13425
3868,38862;14,13463
3866,33752;14,14021
3864,28641;14,12561
3862,2353;14,11426
3860,18419;14,13324
3858,13309;14,1449
3856,08198;14,09412
3854,03087;13,97527
3851,97977;13,91978
3849,92866;14,00728
3847,87755;14,11089
3845,82644;14,14139
3843,77534;14,11886
3841,72423;14,08294
3839,67312;14,04003
3837,62201;14,00669
3835,57091;14,02318
3833,5198;14,06255
3831,46869;14,08078
3829,41758;14,08584
3827,36648;14,0873
3825,31537;14,08828
3823,26426;14,08503
3821,21315;14,06864
3819,16205;14,07487
3817,11094;14,09507
3815,05983;14,09906
3813,00872;14,14754
3810,95762;14,24289
3808,90651;14,29009
3806,8554;14,25559
3804,80429;14,21611
3802,75319;14,18699
3800,70208;14,14206
3798,65097;14,13428
3796,59986;14,17419
3794,54876;14,22842
3792,49765;14,26987
3790,44654;14,28539
3788,39543;14,28358
3786,34433;14,2717
3784,29322;14,26655
3782,24211;14,29291
3780,191;14,34039
3778,1399;14,39158
3776,08879;14,45524
3774,03768;14,52223
3771,98658;14,55316
3769,93547;14,53552
3767,88436;14,50998
3765,83325;14,50747
3763,78215;14,53635
3761,73104;14,57887
3759,67993;14,60567
3757,62882;14,64207
3755,57772;14,70125
3753,52661;14,72017
3751,4755;14,66402
3749,42439;14,63487
3747,37329;14,71696
3745,32218;14,81553
3743,27107;14,87074
3741,21996;14,95887
3739,16886;15,07958
3737,11775;15,15464
3735,06664;15,16038
3733,01553;15,16153
3730,96443;15,21681
3728,91332;15,28383
3726,86221;15,30556
3724,8111;15,3187
3722,76;15,38786
3720,70889;15,50102
3718,65778;15,62633
3716,60667;15,74324
3714,55557;15,81903
3712,50446;15,84239
3710,45335;15,88091
3708,40224;15,99513
3706,35114;16,15507
3704,30003;16,33925
3702,24892;16,5562
3700,19781;16,82311
3698,14671;17,1249
3696,0956;17,41912
3694,04449;17,67001
3691,99338;17,82995
3689,94228;17,88936
3687,89117;17,9578
3685,84006;18,1139
3683,78896;18,30614
3681,73785;18,50857
3679,68674;18,73337
3677,63563;18,94895
3675,58453;19,14153
3673,53342;19,41775
3671,48231;19,83439
3669,4312;20,30264
3667,3801;20,71849
3665,32899;21,08869
3663,27788;21,47131
3661,22677;21,89552
3659,17567;22,35332
3657,12456;22,80942
3655,07345;23,25877
3653,02234;23,75427
3650,97124;24,37235
3648,92013;25,13711
3646,86902;25,89604
3644,81791;26,50214
3642,76681;26,97072
3640,7157;27,35414
3638,66459;27,66368
3636,61348;27,90682
3634,56238;28,15058
3632,51127;28,43147
3630,46016;28,73546
3628,40905;29,12867
3626,35795;29,63256
3624,30684;30,12611
3622,25573;30,54412
3620,20462;30,90838
3618,15352;31,28818
3616,10241;31,75555
3614,0513;32,27454
3612,00019;32,75124
3609,94909;33,20128
3607,89798;33,71701
3605,84687;34,30053
3603,79577;34,86965
3601,74466;35,37417
3599,69355;35,81856
3597,64244;36,23496
3595,59134;36,68992
3593,54023;37,2673
3591,48912;37,95743
3589,43801;38,67538
3587,38691;39,33958
3585,3358;39,92683
3583,28469;40,4454
3581,23358;40,90901
3579,18248;41,39964
3577,13137;41,9421
3575,08026;42,53132
3573,02915;43,188
3570,97805;43,81477
3568,92694;44,24221
3566,87583;44,51511
3564,82472;44,95916
3562,77362;45,66626
3560,72251;46,35447
3558,6714;46,87578
3556,62029;47,38044
3554,56919;47,96807
3552,51808;48,6082
3550,46697;49,28105
3548,41586;49,94956
3546,36476;50,51302
3544,31365;50,91283
3542,26254;51,27076
3540,21143;51,77584
3538,16033;52,42218
3536,10922;52,97757
3534,05811;53,36689
3532,007;53,87071
3529,9559;54,62147
3527,90479;55,25806
3525,85368;55,37622
3523,80258;55,12449
3521,75147;54,99848
3519,70036;55,1978
3517,64925;55,6306
3515,59815;56,20224
3513,54704;56,81987
3511,49593;57,32565
3509,44482;57,52279
3507,39372;57,42598
3505,34261;57,40826
3503,2915;57,8749
3501,24039;58,77029
3499,18929;59,51778
3497,13818;59,70636
3495,08707;59,67267
3493,03596;59,86904
3490,98486;60,13881
3488,93375;60,24421
3486,88264;60,32166
3484,83153;60,45414
3482,78043;60,62328
3480,72932;61,07352
3478,67821;61,82377
3476,6271;62,53875
3474,576;63,11087
3472,52489;63,51405
3470,47378;63,5899
3468,42267;63,51314
3466,37157;63,63328
3464,32046;64,02335
3462,26935;64,62485
3460,21824;65,09388
3458,16714;65,25175
3456,11603;65,4105
3454,06492;65,57401
3452,01381;65,66669
3449,96271;65,97041
3447,9116;66,56889
3445,86049;67,11371
3443,80939;67,30863
3441,75828;67,39097
3439,70717;67,60328
3437,65606;67,72233
3435,60496;67,66079
3433,55385;67,66219
3431,50274;67,8004
3429,45163;68,08073
3427,40053;68,5293
3425,34942;68,95349
3423,29831;69,33785
3421,2472;69,5293
3419,1961;69,23519
3417,14499;68,97076
3415,09388;69,20632
3413,04277;69,87349
3410,99167;70,58785
3408,94056;70,72286
3406,88945;70,42872
3404,83834;70,54438
3402,78724;71,4029
3400,73613;72,38348
3398,68502;72,73328
3396,63391;72,59402
3394,58281;72,466
3392,5317;72,69844
3390,48059;73,2118
3388,42948;73,22342
3386,37838;72,82158
3384,32727;72,89231
3382,27616;73,27758
3380,22505;73,52081
3378,17395;73,6919
3376,12284;73,98498
3374,07173;74,38768
3372,02062;74,45791
3369,96952;74,35199
3367,91841;74,73805
3365,8673;75,2757
3363,8162;75,54319
3361,76509;76,04177
3359,71398;76,67225
3357,66287;76,89879
3355,61177;76,99023
3353,56066;77,38074
3351,50955;77,93627
3349,45844;78,15566
3347,40734;78,09431
3345,35623;78,05437
3343,30512;77,94695
3341,25401;77,94578
3339,20291;78,19326
3337,1518;78,65836
3335,10069;79,27213
3333,04958;79,81246
3330,99848;80,1328
3328,94737;79,99277
3326,89626;79,89889
3324,84515;80,59975
3322,79405;81,71047
3320,74294;82,50367
3318,69183;82,73969
3316,64072;82,93906
3314,58962;83,37247
3312,53851;83,7747
3310,4874;84,2626
3308,43629;84,62677
3306,38519;84,59259
3304,33408;84,36606
3302,28297;84,18434
3300,23186;84,37288
3298,18076;84,79524
3296,12965;84,92569
3294,07854;84,70829
3292,02743;84,39263
3289,97633;84,16348
3287,92522;83,9932
3285,87411;83,87285
3283,82301;83,90461
3281,7719;83,66117
3279,72079;82,83109
3277,66968;81,95486
3275,61858;81,37826
3273,56747;80,78778
3271,51636;80,3517
3269,46525;80,4343
3267,41415;80,532
3265,36304;80,11887
3263,31193;79,05785
3261,26082;77,53599
3259,20972;76,37301
3257,15861;76,02264
3255,1075;76,00025
3253,05639;75,74059
3251,00529;75,38378
3248,95418;75,36111
3246,90307;75,15467
3244,85196;74,07616
3242,80086;72,7131
3240,74975;71,93584
3238,69864;71,83317
3236,64753;71,80736
3234,59643;71,32475
3232,54532;70,53788
3230,49421;69,95448
3228,4431;69,51088
3226,392;68,78989
3224,34089;68,05264
3222,28978;67,6283
3220,23867;67,40148
3218,18757;67,32448
3216,13646;67,34346
3214,08535;67,33471
3212,03424;67,19034
3209,98314;66,79253
3207,93203;66,46488
3205,88092;66,40276
3203,82982;66,3001
3201,77871;66,09625
3199,7276;65,65802
3197,67649;64,83708
3195,62539;63,93821
3193,57428;63,35695
3191,52317;63,10532
3189,47206;62,79015
3187,42096;62,29277
3185,36985;61,93282
3183,31874;61,59737
3181,26763;61,00166
3179,21653;60,41345
3177,16542;59,97641
3175,11431;59,64147
3173,0632;59,47564
3171,0121;59,25334
3168,96099;58,78396
3166,90988;58,31522
3164,85877;58,01565
3162,80767;57,82287
3160,75656;57,57351
3158,70545;57,05487
3156,65434;56,38612
3154,60324;55,87436
3152,55213;55,51152
3150,50102;55,11003
3148,44991;54,77144
3146,39881;54,68837
3144,3477;54,7066
3142,29659;54,49969
3140,24548;54,06399
3138,19438;53,68039
3136,14327;53,37677
3134,09216;53,09299
3132,04105;52,9199
3129,98995;52,7066
3127,93884;52,35519
3125,88773;52,11139
3123,83663;52,00785
3121,78552;51,92685
3119,73441;51,96952
3117,6833;52,16957
3115,6322;52,25132
3113,58109;52,08092
3111,52998;51,78985
3109,47887;51,40469
3107,42777;51,0682
3105,37666;50,98533
3103,32555;51,09952
3101,27444;51,29171
3099,22334;51,52882
3097,17223;51,61777
3095,12112;51,43474
3093,07001;51,24924
3091,01891;51,2853
3088,9678;51,42013
3086,91669;51,3929
3084,86558;51,27947
3082,81448;51,22232
3080,76337;51,13066
3078,71226;51,05563
3076,66115;51,06725
3074,61005;51,05446
3072,55894;50,94896
3070,50783;50,88274
3068,45672;50,82238
3066,40562;50,59641
3064,35451;50,39096
3062,3034;50,36943
3060,25229;50,29991
3058,20119;49,99354
3056,15008;49,5779
3054,09897;49,22987
3052,04786;48,93246
3049,99676;48,6125
3047,94565;48,33035
3045,89454;48,02881
3043,84344;47,57544
3041,79233;47,17898
3039,74122;47,01126
3037,69011;46,90438
3035,63901;46,72018
3033,5879;46,45507
3031,53679;46,12073
3029,48568;45,74142
3027,43458;45,34751
3025,38347;45,01017
3023,33236;44,78437
3021,28125;44,62589
3019,23015;44,46565
3017,17904;44,1992
3015,12793;43,79811
3013,07682;43,429
3011,02572;43,20796
3008,97461;43,08466
3006,9235;42,99278
3004,87239;42,93252
3002,82129;42,95394
3000,77018;43,14424
2998,71907;43,4155
2996,66796;43,51632
2994,61686;43,52527
2992,56575;43,74031
2990,51464;44,18058
2988,46353;44,64896
2986,41243;45,04765
2984,36132;45,48443
2982,31021;46,09297
2980,2591;46,79679
2978,208;47,4332
2976,15689;48,07939
2974,10578;48,78935
2972,05467;49,42662
2970,00357;49,99183
2967,95246;50,61903
2965,90135;51,30392
2963,85025;51,76026
2961,79914;51,73586
2959,74803;51,36977
2957,69692;50,90081
2955,64582;50,38934
2953,59471;49,87221
2951,5436;49,40568
2949,49249;48,92385
2947,44139;48,45958
2945,39028;48,21567
2943,33917;48,09621
2941,28806;47,98397
2939,23696;48,10388
2937,18585;48,4216
2935,13474;48,68079
2933,08363;48,82401
2931,03253;48,68952
2928,98142;48,2259
2926,93031;47,67917
2924,8792;47,10648
2922,8281;46,52197
2920,77699;46,03203
2918,72588;45,70287
2916,67477;45,54063
2914,62367;45,29856
2912,57256;44,74181
2910,52145;44,07436
2908,47034;43,56517
2906,41924;43,11965
2904,36813;42,65023
2902,31702;42,23963
2900,26591;41,89323
2898,21481;41,63411
2896,1637;41,48629
2894,11259;41,3917
2892,06148;41,28841
2890,01038;41,17042
2887,95927;41,11089
2885,90816;41,16754
2883,85706;41,38629
2881,80595;41,76456
2879,75484;42,13455
2877,70373;42,32579
2875,65263;42,31411
2873,60152;42,10385
2871,55041;41,70189
2869,4993;41,21926
2867,4482;40,72906
2865,39709;40,22113
2863,34598;39,66163
2861,29487;39,00002
2859,24377;38,36395
2857,19266;37,89431
2855,14155;37,55261
2853,09044;37,23274
2851,03934;36,84558
2848,98823;36,4893
2846,93712;36,25726
2844,88601;36,06324
2842,83491;35,8854
2840,7838;35,72423
2838,73269;35,51507
2836,68158;35,26194
2834,63048;34,96715
2832,57937;34,62815
2830,52826;34,34569
2828,47715;34,12487
2826,42605;33,89861
2824,37494;33,73825
2822,32383;33,65108
2820,27272;33,52759
2818,22162;33,35578
2816,17051;33,18948
2814,1194;33,02354
2812,06829;32,86931
2810,01719;32,76235
2807,96608;32,67311
2805,91497;32,60101
2803,86387;32,52569
2801,81276;32,36944
2799,76165;32,17452
2797,71054;32,00755
2795,65944;31,83376
2793,60833;31,71345
2791,55722;31,74388
2789,50611;31,75128
2787,45501;31,53784
2785,4039;31,22312
2783,35279;31,01253
2781,30168;30,93813
2779,25058;30,89322
2777,19947;30,83129
2775,14836;30,76686
2773,09725;30,66326
2771,04615;30,52479
2768,99504;30,38455
2766,94393;30,24335
2764,89282;30,14963
2762,84172;30,10392
2760,79061;30,00562
2758,7395;29,8528
2756,68839;29,68622
2754,63729;29,51414
2752,58618;29,39329
2750,53507;29,31454
2748,48396;29,22046
2746,43286;29,14539
2744,38175;29,12317
2742,33064;29,08667
2740,27953;29,02285
2738,22843;28,98269
2736,17732;28,92374
2734,12621;28,8124
2732,0751;28,68814
2730,024;28,57947
2727,97289;28,50531
2725,92178;28,44258
2723,87068;28,35056
2721,81957;28,26375
2719,76846;28,17
2717,71735;28,05172
2715,66625;27,98799
2713,61514;27,95963
2711,56403;27,883
2709,51292;27,75844
2707,46182;27,61004
2705,41071;27,47694
2703,3596;27,42251
2701,30849;27,41187
2699,25739;27,37577
2697,20628;27,35281
2695,15517;27,35629
2693,10406;27,30957
2691,05296;27,20809
2689,00185;27,1409
2686,95074;27,11458
2684,89963;27,07647
2682,84853;27,03906
2680,79742;27,02056
2678,74631;26,98588
2676,6952;26,90369
2674,6441;26,81027
2672,59299;26,75013
2670,54188;26,68624
2668,49077;26,58842
2666,43967;26,51669
2664,38856;26,49468
2662,33745;26,48208
2660,28634;26,45931
2658,23524;26,42511
2656,18413;26,38262
2654,13302;26,31959
2652,08191;26,23849
2650,03081;26,18797
2647,9797;26,18536
2645,92859;26,18869
2643,87749;26,16467
2641,82638;26,11633
2639,77527;26,07605
2637,72416;26,08019
2635,67306;26,0933
2633,62195;26,07276
2631,57084;26,09066
2629,51973;26,16649
2627,46863;26,20015
2625,41752;26,17642
2623,36641;26,16196
2621,3153;26,18077
2619,2642;26,1981
2617,21309;26,18783
2615,16198;26,1869
2613,11087;26,22087
2611,05977;26,25979
2609,00866;26,28816
2606,95755;26,32233
2604,90644;26,34236
2602,85534;26,31982
2600,80423;26,2874
2598,75312;26,28238
2596,70201;26,2824
2594,65091;26,23416
2592,5998;26,15394
2590,54869;26,11148
2588,49758;26,10313
2586,44648;26,08287
2584,39537;26,05452
2582,34426;26,04292
2580,29315;26,04169
2578,24205;26,02662
2576,19094;25,98519
2574,13983;25,94324
2572,08872;25,92282
2570,03762;25,9057
2567,98651;25,89672
2565,9354;25,89277
2563,8843;25,87078
2561,83319;25,87461
2559,78208;25,93083
2557,73097;25,97283
2555,67987;25,96856
2553,62876;25,95864
2551,57765;25,95621
2549,52654;25,93138
2547,47544;25,8809
2545,42433;25,85503
2543,37322;25,88942
2541,32211;25,9435
2539,27101;25,9681
2537,2199;25,98538
2535,16879;26,02275
2533,11768;26,0744
2531,06658;26,13928
2529,01547;26,21064
2526,96436;26,28239
2524,91325;26,34174
2522,86215;26,38572
2520,81104;26,45186
2518,75993;26,52874
2516,70882;26,57556
2514,65772;26,60938
2512,60661;26,62136
2510,5555;26,58546
2508,50439;26,55152
2506,45329;26,52511
2504,40218;26,44099
2502,35107;26,32652
2500,29996;26,2315
2498,24886;26,14387
2496,19775;26,05725
2494,14664;25,966
2492,09553;25,86946
2490,04443;25,78379
2487,99332;25,69746
2485,94221;25,59234
2483,89111;25,49212
2481,84;25,40487
2479,78889;25,29969
2477,73778;25,17966
2475,68668;25,07644
2473,63557;24,98788
2471,58446;24,89254
2469,53335;24,78918
2467,48225;24,69386
2465,43114;24,62327
2463,38003;24,57402
2461,32892;24,53389
2459,27782;24,50655
2457,22671;24,48043
2455,1756;24,43068
2453,12449;24,37684
2451,07339;24,33868
2449,02228;24,28346
2446,97117;24,20653
2444,92006;24,15535
2442,86896;24,13348
2440,81785;24,12082
2438,76674;24,12302
2436,71563;24,10916
2434,66453;24,06519
2432,61342;24,04456
2430,56231;24,04216
2428,5112;24,00361
2426,4601;23,95171
2424,40899;23,90849
2422,35788;23,85635
2420,30677;23,82769
2418,25567;23,84417
2416,20456;23,85047
2414,15345;23,82336
2412,10234;23,80866
2410,05124;23,79721
2408,00013;23,77243
2405,94902;23,77128
2403,89792;23,7845
2401,84681;23,76977
2399,7957;23,74901
2397,74459;23,74381
2395,69349;23,73802
2393,64238;23,72469
2391,59127;23,72123
2389,54016;23,73743
2387,48906;23,77599
2385,43795;23,82551
2383,38684;23,85663
2381,33573;23,85799
2379,28463;23,85736
2377,23352;23,8763
2375,18241;23,9046
2373,1313;23,9378
2371,0802;23,97799
2369,02909;24,0383
2366,97798;24,14477
2364,92687;24,25753
2362,87577;24,28658
2360,82466;24,18254
2358,77355;23,9801
2356,72244;23,82029
2354,67134;23,81305
2352,62023;23,9362
2350,56912;24,10082
2348,51801;24,21753
2346,46691;24,24018
2344,4158;24,24623
2342,36469;24,31111
2340,31358;24,35192
2338,26248;24,35425
2336,21137;24,3743
2334,16026;24,37298
2332,10915;24,33281
2330,05805;24,31674
2328,00694;24,36693
2325,95583;24,44648
2323,90473;24,47646
2321,85362;24,43741
2319,80251;24,37995
2317,7514;24,34385
2315,7003;24,33413
2313,64919;24,33323
2311,59808;24,32951
2309,54697;24,32818
2307,49587;24,34837
2305,44476;24,37585
2303,39365;24,37057
2301,34254;24,36111
2299,29144;24,37363
2297,24033;24,37088
2295,18922;24,34879
2293,13811;24,33422
2291,08701;24,33293
2289,0359;24,34254
2286,98479;24,35954
2284,93368;24,39529
2282,88258;24,45802
2280,83147;24,5002
2278,78036;24,48934
2276,72925;24,48924
2274,67815;24,55143
2272,62704;24,62671
2270,57593;24,6698
2268,52482;24,70301
2266,47372;24,73595
2264,42261;24,76228
2262,3715;24,79384
2260,32039;24,82319
2258,26929;24,83748
2256,21818;24,85922
2254,16707;24,90981
2252,11596;24,96477
2250,06486;24,99065
2248,01375;24,99045
2245,96264;24,97503
2243,91154;24,97462
2241,86043;25,05073
2239,80932;25,17619
2237,75821;25,24457
2235,70711;25,23242
2233,656;25,22515
2231,60489;25,26103
2229,55378;25,3118
2227,50268;25,38264
2225,45157;25,45659
2223,40046;25,49339
2221,34935;25,50812
2219,29825;25,53648
2217,24714;25,564
2215,19603;25,57752
2213,14492;25,63274
2211,09382;25,72759
2209,04271;25,80465
2206,9916;25,86918
2204,94049;25,91936
2202,88939;25,93886
2200,83828;25,93417
2198,78717;25,92352
2196,73606;25,96606
2194,68496;26,06208
2192,63385;26,11933
2190,58274;26,14218
2188,53163;26,1898
2186,48053;26,23632
2184,42942;26,27157
2182,37831;26,32194
2180,3272;26,35846
2178,2761;26,36209
2176,22499;26,38169
2174,17388;26,41525
2172,12277;26,42807
2170,07167;26,44134
2168,02056;26,46335
2165,96945;26,50163
2163,91835;26,57997
2161,86724;26,6797
2159,81613;26,76293
2157,76502;26,80333
2155,71392;26,808
2153,66281;26,85192
2151,6117;26,96416
2149,56059;27,06007
2147,50949;27,12217
2145,45838;27,18278
2143,40727;27,21206
2141,35616;27,22144
2139,30506;27,24138
2137,25395;27,27036
2135,20284;27,29615
2133,15173;27,29776
2131,10063;27,28073
2129,04952;27,27167
2126,99841;27,28464
2124,9473;27,29094
2122,8962;27,24872
2120,84509;27,17333
2118,79398;27,13968
2116,74287;27,14357
2114,69177;27,08798
2112,64066;26,98934
2110,58955;26,94911
2108,53844;26,95365
2106,48734;26,92824
2104,43623;26,9146
2102,38512;26,95164
2100,33401;26,98048
2098,28291;26,98697
2096,2318;26,99138
2094,18069;27,00871
2092,12958;27,04171
2090,07848;27,04672
2088,02737;27,02126
2085,97626;27,02233
2083,92516;27,04149
2081,87405;27,04955
2079,82294;27,05087
2077,77183;27,04352
2075,72073;27,04435
2073,66962;27,05771
2071,61851;27,07625
2069,5674;27,09266
2067,5163;27,07982
2065,46519;27,05983
2063,41408;27,07997
2061,36297;27,11293
2059,31187;27,10973
2057,26076;27,09637
2055,20965;27,12049
2053,15854;27,14989
2051,10744;27,13517
2049,05633;27,10793
2047,00522;27,1103
2044,95411;27,13017
2042,90301;27,15066
2040,8519;27,16258
2038,80079;27,1525
2036,74968;27,1221
2034,69858;27,10137
2032,64747;27,12992
2030,59636;27,20066
2028,54525;27,2516
2026,49415;27,24371
2024,44304;27,21305
2022,39193;27,20212
2020,34082;27,21567
2018,28972;27,23511
2016,23861;27,23923
2014,1875;27,24281
2012,13639;27,2485
2010,08529;27,24231
2008,03418;27,24659
2005,98307;27,25767
2003,93197;27,2543
2001,88086;27,26536
1999,82975;27,27632
1997,77864;27,25154
1995,72754;27,24138
1993,67643;27,27591
1991,62532;27,31148
1989,57421;27,32965
1987,52311;27,3594
1985,472;27,40091
1983,42089;27,43841
1981,36978;27,46945
1979,31868;27,49254
1977,26757;27,51674
1975,21646;27,54549
1973,16535;27,57657
1971,11425;27,60945
1969,06314;27,63515
1967,01203;27,66689
1964,96092;27,7345
1962,90982;27,81238
1960,85871;27,86189
1958,8076;27,88099
1956,75649;27,87372
1954,70539;27,86618
1952,65428;27,89537
1950,60317;27,93946
1948,55206;27,95721
1946,50096;27,95694
1944,44985;27,95822
1942,39874;27,97913
1940,34763;28,01189
1938,29653;28,02395
1936,24542;28,03241
1934,19431;28,06407
1932,1432;28,0911
1930,0921;28,0876
1928,04099;28,08339
1925,98988;28,11503
1923,93878;28,17198
1921,88767;28,2236
1919,83656;28,27374
1917,78545;28,34752
1915,73435;28,43649
1913,68324;28,49426
1911,63213;28,51202
1909,58102;28,51167
1907,52992;28,51453
1905,47881;28,55149
1903,4277;28,62853
1901,37659;28,73971
1899,32549;28,85
1897,27438;28,90574
1895,22327;28,92724
1893,17216;28,97964
1891,12106;29,05582
1889,06995;29,11811
1887,01884;29,179
1884,96773;29,23066
1882,91663;29,26355
1880,86552;29,30718
1878,81441;29,38176
1876,7633;29,47801
1874,7122;29,56499
1872,66109;29,62413
1870,60998;29,6555
1868,55887;29,67165
1866,50777;29,71044
1864,45666;29,78823
1862,40555;29,8687
1860,35444;29,93734
1858,30334;30,02843
1856,25223;30,1421
1854,20112;30,23942
1852,15001;30,33125
1850,09891;30,44562
1848,0478;30,56426
1845,99669;30,65755
1843,94559;30,73818
1841,89448;30,85009
1839,84337;30,97145
1837,79226;31,07124
1835,74116;31,19014
1833,69005;31,33836
1831,63894;31,44765
1829,58783;31,51206
1827,53673;31,61848
1825,48562;31,77464
1823,43451;31,95007
1821,3834;32,15898
1819,3323;32,38948
1817,28119;32,60758
1815,23008;32,79003
1813,17897;32,95577
1811,12787;33,19255
1809,07676;33,5194
1807,02565;33,83675
1804,97454;34,14777
1802,92344;34,55189
1800,87233;35,05252
1798,82122;35,54949
1796,77011;35,94901
1794,71901;36,16498
1792,6679;36,15616
1790,61679;36,06867
1788,56568;36,03667
1786,51458;35,98321
1784,46347;35,91388
1782,41236;35,9171
1780,36125;35,96248
1778,31015;36,03043
1776,25904;36,12053
1774,20793;36,17289
1772,15682;36,22345
1770,10572;36,41008
1768,05461;36,71198
1766,0035;37,00185
1763,9524;37,20653
1761,90129;37,40805
1759,85018;37,79609
1757,79907;38,30909
1755,74797;38,73162
1753,69686;39,05798
1751,64575;39,38916
1749,59464;39,78004
1747,54354;40,24446
1745,49243;40,73265
1743,44132;41,19724
1741,39021;41,6233
1739,33911;42,06176
1737,288;42,5867
1735,23689;43,18062
1733,18578;43,84097
1731,13468;44,59846
1729,08357;45,39413
1727,03246;46,0749
1724,98135;46,68806
1722,93025;47,48235
1720,87914;48,48425
1718,82803;49,68937
1716,77692;51,3187
1714,72582;53,33714
1712,67471;55,47876
1710,6236;57,69367
1708,57249;60,25671
1706,52139;63,71224
1704,47028;68,03519
1702,41917;72,79913
1700,36806;78,96901
1698,31696;87,029
1696,26585;95,77068
1694,21474;104,01955
1692,16363;110,49472
1690,11253;116,1982
1688,06142;122,31887
1686,01031;129,04059
1683,95921;136,18863
1681,9081;141,66899
1679,85699;145,3448
1677,80588;149,04524
1675,75478;153,18643
1673,70367;156,71515
1671,65256;159,06203
1669,60145;161,2583
1667,55035;164,32478
1665,49924;167,66631
1663,44813;170,44843
1661,39702;172,65308
1659,34592;174,64778
1657,29481;175,9369
1655,2437;175,56265
1653,19259;174,07806
1651,14149;173,66325
1649,09038;173,54442
1647,03927;172,4798
1644,98816;171,54655
1642,93706;169,98206
1640,88595;166,93098
1638,83484;163,67604
1636,78373;160,39917
1634,73263;155,93913
1632,68152;151,41991
1630,63041;148,09978
1628,5793;145,4295
1626,5282;142,36006
1624,47709;138,14258
1622,42598;132,8997
1620,37487;127,22099
1618,32377;121,017
1616,27266;115,2159
1614,22155;111,6063
1612,17044;109,36952
1610,11934;107,07898
1608,06823;104,79611
1606,01712;103,18483
1603,96602;102,15919
1601,91491;101,2978
1599,8638;100,78291
1597,81269;100,77303
1595,76159;101,00198
1593,71048;101,31516
1591,65937;101,83661
1589,60826;102,8013
1587,55716;104,38735
1585,50605;106,41983
1583,45494;108,25376
1581,40383;109,32718
1579,35273;110,10049
1577,30162;111,83345
1575,25051;114,67914
1573,1994;117,21758
1571,1483;119,36232
1569,09719;121,65799
1567,04608;123,65427
1564,99497;125,36329
1562,94387;126,90932
1560,89276;128,01208
1558,84165;128,97173
1556,79054;129,40205
1554,73944;128,57689
1552,68833;127,14778
1550,63722;125,73347
1548,58611;124,23242
1546,53501;122,17201
1544,4839;119,40165
1542,43279;116,19794
1540,38168;112,31594
1538,33058;108,27814
1536,27947;105,68416
1534,22836;104,09711
1532,17725;102,36868
1530,12615;100,11261
1528,07504;97,57578
1526,02393;95,23961
1523,97283;93,41942
1521,92172;91,81445
1519,87061;90,26138
1517,8195;88,96966
1515,7684;87,97674
1513,71729;86,92273
1511,66618;85,4678
1509,61507;83,6558
1507,56397;81,50694
1505,51286;79,54768
1503,46175;78,33659
1501,41064;77,33942
1499,35954;76,16592
1497,30843;74,72682
1495,25732;73,45486
1493,20621;72,81902
1491,15511;72,23583
1489,104;71,21565
1487,05289;70,41772
1485,00178;70,22375
1482,95068;70,37999
1480,89957;70,94492
1478,84846;71,94232
1476,79735;73,11437
1474,74625;74,55147
1472,69514;76,49815
1470,64403;78,345
1468,59292;79,39845
1466,54182;79,94487
1464,49071;80,57516
1462,4396;81,39937
1460,38849;82,12832
1458,33739;82,91946
1456,28628;84,05258
1454,23517;85,09248
1452,18406;85,81055
1450,13296;86,31741
1448,08185;86,69166
1446,03074;86,92404
1443,97964;86,91416
1441,92853;86,74623
1439,87742;86,56744
1437,82631;86,31698
1435,77521;85,88515
1433,7241;85,29396
1431,67299;84,76826
1429,62188;84,48121
1427,57078;84,40855
1425,51967;84,37254
1423,46856;84,00062
1421,41745;83,02059
1419,36635;81,64363
1417,31524;80,59106
1415,26413;80,28023
1413,21302;80,11948
1411,16192;79,45035
1409,11081;78,48506
1407,0597;77,86677
1405,00859;77,87727
1402,95749;78,40672
1400,90638;79,05649
1398,85527;79,53794
1396,80416;79,92439
1394,75306;80,29715
1392,70195;80,56017
1390,65084;80,70879
1388,59973;80,9483
1386,54863;81,35664
1384,49752;81,63155
1382,44641;81,55494
1380,3953;81,2879
1378,3442;81,08273
1376,29309;80,95235
1374,24198;80,85592
1372,19087;80,86191
1370,13977;80,90576
1368,08866;80,84528
1366,03755;80,64195
1363,98645;80,33905
1361,93534;80,02259
1359,88423;79,8846
1357,83312;79,97484
1355,78202;80,01257
1353,73091;79,88557
1351,6798;79,79868
1349,62869;79,77856
1347,57759;79,72504
1345,52648;79,63599
1343,47537;79,46784
1341,42426;79,24908
1339,37316;79,23438
1337,32205;79,43001
1335,27094;79,48999
1333,21983;79,42373
1331,16873;79,48818
1329,11762;79,73827
1327,06651;80,07951
1325,0154;80,53028
1322,9643;81,12589
1320,91319;81,50937
1318,86208;81,4791
1316,81097;81,4076
1314,75987;81,47085
1312,70876;81,68504
1310,65765;81,97029
1308,60654;81,95457
1306,55544;81,52557
1304,50433;80,90965
1302,45322;80,4962
1300,40211;80,43541
1298,35101;80,36314
1296,2999;80,22095
1294,24879;80,30489
1292,19768;80,50473
1290,14658;80,68066
1288,09547;80,95609
1286,04436;81,28951
1283,99326;81,39309
1281,94215;81,31853
1279,89104;81,45948
1277,83993;81,71925
1275,78883;81,89458
1273,73772;82,0873
1271,68661;82,37737
1269,6355;82,84907
1267,5844;83,45173
1265,53329;83,96877
1263,48218;84,40286
1261,43107;85,06559
1259,37997;85,94454
1257,32886;86,72755
1255,27775;87,2839
1253,22664;87,53046
1251,17554;87,64095
1249,12443;88,10777
1247,07332;88,90833
1245,02221;89,357
1242,97111;89,18026
1240,92;88,87515
1238,86889;88,95257
1236,81778;89,31931
1234,76668;89,6012
1232,71557;89,57243
1230,66446;89,27969
1228,61335;89,05404
1226,56225;89,07132
1224,51114;89,10619
1222,46003;88,65002
1220,40892;87,63769
1218,35782;86,7351
1216,30671;86,21275
1214,2556;85,78548
1212,20449;85,40995
1210,15339;85,20356
1208,10228;85,12112
1206,05117;85,00748
1204,00006;84,77905
1201,94896;84,69666
1199,89785;85,05563
1197,84674;85,56221
1195,79564;85,73601
1193,74453;85,61569
1191,69342;85,48409
1189,64231;85,43842
1187,59121;85,45439
1185,5401;85,88209
1183,48899;86,97464
1181,43788;88,17831
1179,38678;89,0912
1177,33567;90,17314
1175,28456;91,35661
1173,23345;91,97971
1171,18235;92,64265
1169,13124;94,01018
1167,08013;95,20608
1165,02902;95,49547
1162,97792;95,45097
1160,92681;95,82609
1158,8757;96,35977
1156,82459;96,28078
1154,77349;95,63168
1152,72238;95,28864
1150,67127;95,54749
1148,62016;96,04743
1146,56906;96,83286
1144,51795;97,54239
1142,46684;97,62901
1140,41573;97,70491
1138,36463;98,44318
1136,31352;99,7619
1134,26241;101,30494
1132,2113;102,49863
1130,1602;103,01395
1128,10909;102,90957
1126,05798;102,40427
1124,00687;102,45178
1121,95577;103,55885
1119,90466;105,14489
1117,85355;106,7123
1115,80245;107,13891
1113,75134;106,37604
1111,70023;106,07978
1109,64912;106,46019
1107,59802;107,04623
1105,54691;107,69024
1103,4958;108,23103
1101,44469;109,00623
1099,39359;109,78274
1097,34248;109,85787
1095,29137;109,74394
1093,24026;110,2044
1091,18916;110,87399
1089,13805;111,34211
1087,08694;112,18988
1085,03583;114,24084
1082,98473;115,85774
1080,93362;114,79947
1078,88251;113,31802
1076,8314;113,87471
1074,7803;114,93172
1072,72919;114,77298
1070,67808;114,09945
1068,62697;113,88995
1066,57587;113,58099
1064,52476;112,62572
1062,47365;112,62097
1060,42254;113,96998
1058,37144;114,63837
1056,32033;114,12399
1054,26922;113,52544
1052,21811;113,68128
1050,16701;114,57566
1048,1159;115,34822
1046,06479;115,55251
1044,01368;115,32648
1041,96258;114,59512
1039,91147;113,86926
1037,86036;114,22119
1035,80926;115,44065
1033,75815;116,5822
1031,70704;116,41823
1029,65593;115,03694
1027,60483;114,53266
1025,55372;114,99036
1023,50261;115,0647
1021,4515;114,60737
1019,4004;113,82242
1017,34929;113,3466
1015,29818;113,60756
1013,24707;113,6918
1011,19597;113,72331
1009,14486;114,18619
1007,09375;113,85173
1005,04264;113,25237
1002,99154;113,34563
1000,94043;112,8559
998,88932;112,08204
996,83821;112,58366
994,78711;113,90181
992,736;114,62497
990,68489;114,75819
988,63378;115,22693
986,58268;116,12051
984,53157;116,54902
982,48046;116,4327
980,42935;116,73679
978,37825;117,38522
976,32714;117,09055
974,27603;116,12678
972,22492;115,7109
970,17382;116,271
968,12271;117,33739
966,0716;117,89002
964,02049;118,53944
961,96939;120,01376
959,91828;120,83375
957,86717;120,62428
955,81607;121,24706
953,76496;122,7359
951,71385;123,62278
949,66274;124,22881
947,61164;125,67078
945,56053;127,65298
943,50942;128,90881
941,45831;129,35646
939,40721;129,48938
937,3561;128,6566
935,30499;127,40313
933,25388;127,25395
931,20278;127,51622
929,15167;128,21832
927,10056;130,09775
925,04945;130,98553
922,99835;130,39456
920,94724;130,87428
918,89613;131,98785
916,84502;131,22641
914,79392;129,27794
912,74281;128,75978
910,6917;130,73813
908,64059;133,70175
906,58949;136,0162
904,53838;138,32645
902,48727;139,71332
900,43616;138,93524
898,38506;138,20058
896,33395;137,89925
894,28284;137,74562
892,23173;138,68317
890,18063;139,34032
888,12952;140,65767
886,07841;144,69659
884,0273;148,40189
881,9762;146,11905
879,92509;134,83107
877,87398;118,67558
875,82288;104,15625
873,77177;93,56601
871,72066;88,84818
869,66955;92,88631
867,61845;104,79006
865,56734;118,38055
863,51623;128,48633
861,46512;133,88721
859,41402;135,88841
857,36291;137,73306
855,3118;139,61617
853,26069;141,64305
851,20959;147,5085
849,15848;155,00217
847,10737;157,11961
845,05626;156,01219
843,00516;155,47697
840,95405;153,89381
838,90294;152,51561
836,85183;155,14995
834,80073;160,86374
832,74962;164,8851
830,69851;165,70964
828,6474;165,16071
826,5963;165,78932
824,54519;169,29012
822,49408;174,40486
820,44297;177,57745
818,39187;177,7684
816,34076;177,53993
814,28965;179,48341
812,23854;183,63571
810,18744;185,24136
808,13633;182,33928
806,08522;180,81473
804,03411;184,51497
801,98301;192,66542
799,9319;200,96777
797,88079;206,58586
795,82969;210,67848
793,77858;212,52608
791,72747;213,87706
789,67636;215,64374
787,62526;212,63844
785,57415;209,04898
783,52304;211,60626
781,47193;214,53195
779,42083;212,60916
777,36972;212,50627
775,31861;214,03772
773,2675;213,05408
771,2164;215,5948
769,16529;221,55415
767,11418;225,03586
765,06307;226,50124
763,01197;224,73708
760,96086;225,22873
758,90975;233,09683
756,85864;244,25624
754,80754;259,09348
752,75643;274,53061
750,70532;275,52097
748,65421;263,62604
746,60311;261,86969
744,552;266,46133
742,50089;255,62396
740,44978;248,90518
738,39868;265,48795
736,34757;291,02563
734,29646;300,81082
732,24535;296,07324
730,19425;288,36429
728,14314;281,20029
726,09203;282,8663
724,04092;295,86096
721,98982;308,36707
719,93871;312,64813
717,8876;310,03537
715,8365;296,58017
713,78539;276,4314
711,73428;264,24649
709,68317;266,48486
707,63207;276,91879
705,58096;284,87683
703,52985;285,49289
701,47874;279,82681
699,42764;275,39813
697,37653;278,91721
695,32542;283,17862
693,27431;273,93729
691,22321;254,09802
689,1721;240,69379
687,12099;240,62675
685,06988;243,28531
683,01878;234,99133
680,96767;220,19803
678,91656;210,69038
676,86545;207,2755
674,81435;205,49767
672,76324;203,63713
670,71213;199,62827
668,66102;194,20433
666,60992;193,37184
664,55881;197,32843
662,5077;200,26277
660,45659;197,11934
658,40549;188,31816
656,35438;179,47951
654,30327;175,86533
652,25216;177,39098
650,20106;179,00226
648,14995;177,78535
646,09884;175,20284
644,04773;170,06474
641,99663;163,04897
639,94552;159,93483
637,89441;158,96547
635,84331;156,42323
633,7922;157,38382
631,74109;161,14685
629,68998;161,429
627,63888;160,34438
625,58777;160,78917
623,53666;159,87509
621,48555;160,52791
619,43445;165,71616
617,38334;171,64252
615,33223;173,91765
613,28112;170,46068
611,23002;163,76221
609,17891;161,96301
607,1278;166,77466
605,07669;170,8326
603,02559;171,81213
600,97448;171,35471
598,92337;165,70728
596,87226;156,18747
594,82116;148,04529
592,77005;136,05405
590,71894;119,62038
588,66783;107,83341
586,61673;100,58192
584,56562;94,05887
582,51451;88,28217
580,4634;84,2782
578,4123;81,51851
576,36119;77,59737
574,31008;72,71424
572,25897;70,03126
570,20787;69,62427
568,15676;68,65627
566,10565;66,6254
564,05454;65,71499
562,00344;66,47031
559,95233;68,18093
557,90122;70,47342
555,85012;72,46245
553,79901;73,65941
551,7479;75,23934
549,69679;77,28315
547,64569;78,01714
545,59458;78,4972
543,54347;79,70503
541,49236;79,57091
539,44126;78,88324
537,39015;78,97632
535,33904;78,73676
533,28793;78,68206
531,23683;78,85257
529,18572;78,118
527,13461;77,26325
525,0835;76,37794
523,0324;73,69586
520,98129;69,77805
518,93018;66,16521
516,87907;62,84471
514,82797;59,39032
512,77686;55,70843
510,72575;52,46678
508,67464;49,6741
506,62354;46,64399
504,57243;43,8588
502,52132;41,57803
500,47021;39,8355
498,41911;39,00566
496,368;38,3671
494,31689;37,07663
492,26578;35,63969
490,21468;34,67375
488,16357;34,1753
486,11246;33,94209
484,06135;33,60057
482,01025;33,03802
479,95914;32,71258
477,90803;32,73989
475,85693;32,76037
473,80582;32,72427
471,75471;32,63557
469,7036;32,45598
467,6525;32,64246
465,60139;33,27959
463,55028;33,83585
461,49917;34,35492
459,44807;35,52169
457,39696;37,17649
455,34585;37,82495
453,29474;37,50417
451,24364;37,65393
449,19253;38,18733
447,14142;38,47933
445,09031;38,68383
443,03921;38,52155
440,9881;38,08811
438,93699;38,34188
436,88588;39,03006
434,83478;39,02879
432,78367;38,2973
430,73256;37,36242
428,68145;36,11164
426,63035;34,65726
424,57924;33,25013
422,52813;31,45553
420,47702;28,69618
418,42592;25,78131
416,37481;24,56653
414,3237;25,03454
412,27259;25,99774
410,22149;26,73377
408,17038;27,3292
406,11927;28,14889
404,06816;29,5611
402,01706;31,56396
399,96595;33,50365
