5997,43814;10,54836
5995,38704;10,59876
5993,33593;10,64849
5991,28482;10,7421
5989,23371;10,77974
5987,18261;10,69154
5985,1315;10,60629
5983,08039;10,59753
5981,02928;10,59351
5978,97818;10,60701
5976,92707;10,69098
5974,87596;10,7689
5972,82485;10,76491
5970,77375;10,68289
5968,72264;10,59669
5966,67153;10,59314
5964,62042;10,66006
5962,56932;10,76449
5960,51821;10,85634
5958,4671;10,86353
5956,41599;10,82549
5954,36489;10,78893
5952,31378;10,74662
5950,26267;10,73974
5948,21156;10,75
5946,16046;10,76122
5944,10935;10,83618
5942,05824;10,91183
5940,00713;10,89765
5937,95603;10,85244
5935,90492;10,81333
5933,85381;10,7931
5931,80271;10,82319
5929,7516;10,874
5927,70049;10,90275
5925,64938;10,88607
5923,59828;10,88344
5921,54717;10,95702
5919,49606;11,02035
5917,44495;11,0202
5915,39385;10,99379
5913,34274;10,93777
5911,29163;10,89435
5909,24052;10,91632
5907,18942;10,97297
5905,13831;11,03609
5903,0872;11,03014
5901,03609;10,92904
5898,98499;10,84992
5896,93388;10,85206
5894,88277;10,89721
5892,83166;10,92391
5890,78056;10,89997
5888,72945;10,87944
5886,67834;10,89801
5884,62723;10,9065
5882,57613;10,91029
5880,52502;10,94629
5878,47391;10,97886
5876,4228;10,96028
5874,3717;10,92362
5872,32059;10,92073
5870,26948;10,9155
5868,21837;10,8666
5866,16727;10,821
5864,11616;10,8613
5862,06505;10,96223
5860,01394;10,99766
5857,96284;10,95166
5855,91173;10,92859
5853,86062;10,96019
5851,80952;11,02797
5849,75841;11,11452
5847,7073;11,13187
5845,65619;11,05603
5843,60509;10,95011
5841,55398;10,87545
5839,50287;10,88592
5837,45176;10,96982
5835,40066;11,06884
5833,34955;11,06934
5831,29844;10,93897
5829,24733;10,85293
5827,19623;10,88945
5825,14512;10,94654
5823,09401;10,96836
5821,0429;10,953
5818,9918;10,91367
5816,94069;10,89227
5814,88958;10,92502
5812,83847;11,01433
5810,78737;11,13541
5808,73626;11,19955
5806,68515;11,16588
5804,63404;11,13377
5802,58294;11,12513
5800,53183;11,10418
5798,48072;11,06507
5796,42961;10,99043
5794,37851;10,96268
5792,3274;11,03917
5790,27629;11,08807
5788,22518;11,07275
5786,17408;11,11173
5784,12297;11,18223
5782,07186;11,1744
5780,02075;11,1037
5777,96965;11,06013
5775,91854;11,09191
5773,86743;11,15553
5771,81633;11,17358
5769,76522;11,13898
5767,71411;11,09825
5765,663;11,10739
5763,6119;11,13064
5761,56079;11,15863
5759,50968;11,23513
5757,45857;11,23602
5755,40747;11,15329
5753,35636;11,16798
5751,30525;11,22921
5749,25414;11,16607
5747,20304;11,06461
5745,15193;11,07926
5743,10082;11,12558
5741,04971;11,09639
5738,99861;11,08313
5736,9475;11,10112
5734,89639;11,07778
5732,84528;11,08199
5730,79418;11,14625
5728,74307;11,20985
5726,69196;11,21237
5724,64085;11,14598
5722,58975;11,10326
5720,53864;11,14396
5718,48753;11,209
5716,43642;11,22201
5714,38532;11,19166
5712,33421;11,21388
5710,2831;11,30056
5708,23199;11,29702
5706,18089;11,18684
5704,12978;11,08428
5702,07867;11,02782
5700,02756;11,03881
5697,97646;11,06681
5695,92535;11,05193
5693,87424;11,03895
5691,82314;11,05402
5689,77203;11,07157
5687,72092;11,06343
5685,66981;11,02033
5683,61871;11,01893
5681,5676;11,08902
5679,51649;11,13746
5677,46538;11,148
5675,41428;11,18576
5673,36317;11,24011
5671,31206;11,23458
5669,26095;11,17006
5667,20985;11,13213
5665,15874;11,12284
5663,10763;11,07527
5661,05652;11,0143
5659,00542;11,02504
5656,95431;11,11692
5654,9032;11,19767
5652,85209;11,16749
5650,80099;11,04631
5648,74988;10,99448
5646,69877;11,07158
5644,64766;11,16448
5642,59656;11,19873
5640,54545;11,16965
5638,49434;11,13964
5636,44323;11,14814
5634,39213;11,13347
5632,34102;11,07634
5630,28991;11,03422
5628,2388;11,01407
5626,1877;11,01909
5624,13659;11,10356
5622,08548;11,19824
5620,03437;11,19074
5617,98327;11,09715
5615,93216;11,01952
5613,88105;11,04881
5611,82995;11,14232
5609,77884;11,1989
5607,72773;11,20329
5605,67662;11,1912
5603,62552;11,18546
5601,57441;11,16662
5599,5233;11,1467
5597,47219;11,15827
5595,42109;11,1426
5593,36998;11,09057
5591,31887;11,08451
5589,26776;11,12039
5587,21666;11,10071
5585,16555;11,02533
5583,11444;11,02812
5581,06333;11,11081
5579,01223;11,15717
5576,96112;11,17716
5574,91001;11,20009
5572,8589;11,17197
5570,8078;11,12265
5568,75669;11,1179
5566,70558;11,1127
5564,65447;11,09574
5562,60337;11,13869
5560,55226;11,21207
5558,50115;11,22278
5556,45004;11,17811
5554,39894;11,15467
5552,34783;11,16372
5550,29672;11,16277
5548,24561;11,16938
5546,19451;11,17348
5544,1434;11,15737
5542,09229;11,18283
5540,04118;11,24263
5537,99008;11,26651
5535,93897;11,23673
5533,88786;11,19052
5531,83676;11,15959
5529,78565;11,15736
5527,73454;11,22337
5525,68343;11,32855
5523,63233;11,34767
5521,58122;11,25524
5519,53011;11,1666
5517,479;11,16631
5515,4279;11,19848
5513,37679;11,19836
5511,32568;11,22368
5509,27457;11,26057
5507,22347;11,22651
5505,17236;11,19475
5503,12125;11,22167
5501,07014;11,23638
5499,01904;11,2209
5496,96793;11,21433
5494,91682;11,244
5492,86571;11,26127
5490,81461;11,2014
5488,7635;11,12643
5486,71239;11,12816
5484,66128;11,21285
5482,61018;11,30514
5480,55907;11,31586
5478,50796;11,24743
5476,45685;11,20788
5474,40575;11,23429
5472,35464;11,26457
5470,30353;11,27633
5468,25242;11,28544
5466,20132;11,31236
5464,15021;11,34396
5462,0991;11,358
5460,04799;11,36404
5457,99689;11,3712
5455,94578;11,37301
5453,89467;11,36639
5451,84357;11,37537
5449,79246;11,40324
5447,74135;11,43574
5445,69024;11,46669
5443,63914;11,4499
5441,58803;11,35295
5439,53692;11,22193
5437,48581;11,15188
5435,43471;11,17317
5433,3836;11,23884
5431,33249;11,31112
5429,28138;11,35209
5427,23028;11,33459
5425,17917;11,29657
5423,12806;11,28581
5421,07695;11,31715
5419,02585;11,36948
5416,97474;11,42004
5414,92363;11,45679
5412,87252;11,46047
5410,82142;11,46199
5408,77031;11,46152
5406,7192;11,42186
5404,66809;11,36814
5402,61699;11,32151
5400,56588;11,28786
5398,51477;11,29537
5396,46366;11,34539
5394,41256;11,39015
5392,36145;11,38853
5390,31034;11,35383
5388,25923;11,34095
5386,20813;11,35903
5384,15702;11,37485
5382,10591;11,43112
5380,0548;11,52505
5378,0037;11,53987
5375,95259;11,4615
5373,90148;11,42759
5371,85038;11,47083
5369,79927;11,49805
5367,74816;11,49395
5365,69705;11,48843
5363,64595;11,46033
5361,59484;11,42299
5359,54373;11,42202
5357,49262;11,46609
5355,44152;11,5457
5353,39041;11,59073
5351,3393;11,55432
5349,28819;11,52365
5347,23709;11,56903
5345,18598;11,64531
5343,13487;11,68225
5341,08376;11,71992
5339,03266;11,77324
5336,98155;11,79316
5334,93044;11,78498
5332,87933;11,77887
5330,82823;11,79609
5328,77712;11,82811
5326,72601;11,83417
5324,6749;11,81147
5322,6238;11,78667
5320,57269;11,77024
5318,52158;11,79679
5316,47047;11,87804
5314,41937;11,96269
5312,36826;12,01278
5310,31715;12,06232
5308,26604;12,11986
5306,21494;12,12254
5304,16383;12,09147
5302,11272;12,10971
5300,06161;12,18574
5298,01051;12,24752
5295,9594;12,23394
5293,90829;12,19749
5291,85719;12,22966
5289,80608;12,32362
5287,75497;12,43102
5285,70386;12,53204
5283,65276;12,59368
5281,60165;12,61931
5279,55054;12,63744
5277,49943;12,65363
5275,44833;12,66087
5273,39722;12,67102
5271,34611;12,71581
5269,295;12,77845
5267,2439;12,84365
5265,19279;12,93883
5263,14168;13,00971
5261,09057;12,99577
5259,03947;12,96746
5256,98836;13,01588
5254,93725;13,10999
5252,88614;13,17353
5250,83504;13,25622
5248,78393;13,35429
5246,73282;13,37696
5244,68171;13,35038
5242,63061;13,32996
5240,5795;13,35892
5238,52839;13,43864
5236,47728;13,4867
5234,42618;13,49146
5232,37507;13,52854
5230,32396;13,62225
5228,27285;13,72411
5226,22175;13,79893
5224,17064;13,87746
5222,11953;13,97726
5220,06842;14,03586
5218,01732;14,03553
5215,96621;14,02015
5213,9151;14,02696
5211,864;14,06031
5209,81289;14,09074
5207,76178;14,12321
5205,71067;14,17553
5203,65957;14,22797
5201,60846;14,25943
5199,55735;14,25537
5197,50624;14,22811
5195,45514;14,21127
5193,40403;14,22982
5191,35292;14,26513
5189,30181;14,29057
5187,25071;14,308
5185,1996;14,33162
5183,14849;14,37875
5181,09738;14,42811
5179,04628;14,41659
5176,99517;14,34432
5174,94406;14,30622
5172,89295;14,37595
5170,84185;14,50716
5168,79074;14,62157
5166,73963;14,70422
5164,68852;14,72235
5162,63742;14,65669
5160,58631;14,59383
5158,5352;14,5808
5156,48409;14,57799
5154,43299;14,56878
5152,38188;14,54278
5150,33077;14,50465
5148,27966;14,52019
5146,22856;14,59013
5144,17745;14,6375
5142,12634;14,65942
5140,07523;14,66577
5138,02413;14,60259
5135,97302;14,50806
5133,92191;14,51163
5131,87081;14,57869
5129,8197;14,60645
5127,76859;14,6254
5125,71748;14,65826
5123,66638;14,69223
5121,61527;14,69783
5119,56416;14,61779
5117,51305;14,50704
5115,46195;14,47367
5113,41084;14,50558
5111,35973;14,52296
5109,30862;14,51089
5107,25752;14,51633
5105,20641;14,52115
5103,1553;14,46565
5101,10419;14,38662
5099,05309;14,34783
5097,00198;14,33644
5094,95087;14,33384
5092,89976;14,34419
5090,84866;14,33699
5088,79755;14,31977
5086,74644;14,32005
5084,69533;14,32201
5082,64423;14,33907
5080,59312;14,33523
5078,54201;14,27539
5076,4909;14,23916
5074,4398;14,25725
5072,38869;14,31348
5070,33758;14,38499
5068,28647;14,37272
5066,23537;14,28568
5064,18426;14,25377
5062,13315;14,27792
5060,08204;14,29047
5058,03094;14,27549
5055,97983;14,23125
5053,92872;14,17245
5051,87762;14,14096
5049,82651;14,15151
5047,7754;14,1579
5045,72429;14,15828
5043,67319;14,17874
5041,62208;14,17588
5039,57097;14,14909
5037,51986;14,15761
5035,46876;14,17332
5033,41765;14,1538
5031,36654;14,14166
5029,31543;14,13245
5027,26433;14,09105
5025,21322;14,03886
5023,16211;13,9981
5021,111;13,99308
5019,0599;14,01147
5017,00879;14,00377
5014,95768;13,99272
5012,90657;14,01742
5010,85547;14,05132
5008,80436;14,05389
5006,75325;14,00096
5004,70214;13,92373
5002,65104;13,89713
5000,59993;13,90884
4998,54882;13,88684
4996,49771;13,84394
4994,44661;13,84341
4992,3955;13,87742
4990,34439;13,90668
4988,29328;13,9297
4986,24218;13,9449
4984,19107;13,93363
4982,13996;13,9124
4980,08885;13,90055
4978,03775;13,89076
4975,98664;13,84857
4973,93553;13,79164
4971,88443;13,7817
4969,83332;13,79161
4967,78221;13,79014
4965,7311;13,78693
4963,68;13,76586
4961,62889;13,75008
4959,57778;13,78494
4957,52667;13,82386
4955,47557;13,80348
4953,42446;13,74172
4951,37335;13,70146
4949,32224;13,71171
4947,27114;13,74058
4945,22003;13,77362
4943,16892;13,78556
4941,11781;13,75266
4939,06671;13,74642
4937,0156;13,80876
4934,96449;13,85813
4932,91338;13,8452
4930,86228;13,81864
4928,81117;13,80162
4926,76006;13,79023
4924,70895;13,79601
4922,65785;13,81157
4920,60674;13,81817
4918,55563;13,832
4916,50452;13,89204
4914,45342;13,96276
4912,40231;13,93989
4910,3512;13,82651
4908,30009;13,73482
4906,24899;13,75879
4904,19788;13,87235
4902,14677;13,90955
4900,09566;13,82992
4898,04456;13,7827
4895,99345;13,81541
4893,94234;13,85403
4891,89124;13,85699
4889,84013;13,832
4887,78902;13,84071
4885,73791;13,88906
4883,68681;13,86893
4881,6357;13,81595
4879,58459;13,8431
4877,53348;13,89857
4875,48238;13,94668
4873,43127;14,00462
4871,38016;14,03328
4869,32905;14,04736
4867,27795;14,06346
4865,22684;14,0362
4863,17573;13,98324
4861,12462;13,96004
4859,07352;13,97222
4857,02241;13,99847
4854,9713;14,00305
4852,92019;13,96465
4850,86909;13,90191
4848,81798;13,84321
4846,76687;13,80952
4844,71576;13,79987
4842,66466;13,78204
4840,61355;13,74085
4838,56244;13,72108
4836,51133;13,74068
4834,46023;13,76147
4832,40912;13,78833
4830,35801;13,81056
4828,3069;13,76447
4826,2558;13,68746
4824,20469;13,65963
4822,15358;13,66765
4820,10247;13,67604
4818,05137;13,66189
4816,00026;13,63306
4813,94915;13,62107
4811,89805;13,60876
4809,84694;13,58947
4807,79583;13,60091
4805,74472;13,61657
4803,69362;13,58757
4801,64251;13,5615
4799,5914;13,58388
4797,54029;13,6034
4795,48919;13,57015
4793,43808;13,51664
4791,38697;13,48903
4789,33586;13,48516
4787,28476;13,48104
4785,23365;13,47305
4783,18254;13,45961
4781,13143;13,44631
4779,08033;13,46404
4777,02922;13,49288
4774,97811;13,50026
4772,927;13,51238
4770,8759;13,54135
4768,82479;13,56024
4766,77368;13,56139
4764,72257;13,54314
4762,67147;13,48584
4760,62036;13,43277
4758,56925;13,43157
4756,51814;13,464
4754,46704;13,52392
4752,41593;13,57423
4750,36482;13,57578
4748,31371;13,56088
4746,26261;13,53724
4744,2115;13,49757
4742,16039;13,48145
4740,10928;13,51145
4738,05818;13,55391
4736,00707;13,5758
4733,95596;13,57857
4731,90486;13,58527
4729,85375;13,59727
4727,80264;13,59336
4725,75153;13,59053
4723,70043;13,59965
4721,64932;13,61889
4719,59821;13,63805
4717,5471;13,61803
4715,496;13,59413
4713,44489;13,60721
4711,39378;13,60749
4709,34267;13,593
4707,29157;13,6095
4705,24046;13,6338
4703,18935;13,6275
4701,13824;13,61739
4699,08714;13,6491
4697,03603;13,70454
4694,98492;13,7335
4692,93381;13,73674
4690,88271;13,7283
4688,8316;13,7067
4686,78049;13,69983
4684,72938;13,75345
4682,67828;13,82395
4680,62717;13,82305
4678,57606;13,79254
4676,52495;13,78388
4674,47385;13,78132
4672,42274;13,80434
4670,37163;13,84838
4668,32052;13,88941
4666,26942;13,93318
4664,21831;13,96407
4662,1672;13,97211
4660,11609;13,98957
4658,06499;14,02211
4656,01388;14,03755
4653,96277;14,03376
4651,91167;14,01635
4649,86056;13,99324
4647,80945;13,99518
4645,75834;14,00617
4643,70724;14,00064
4641,65613;14,01514
4639,60502;14,07323
4637,55391;14,14317
4635,50281;14,18373
4633,4517;14,19022
4631,40059;14,19229
4629,34948;14,19852
4627,29838;14,19172
4625,24727;14,1784
4623,19616;14,18431
4621,14505;14,20051
4619,09395;14,19668
4617,04284;14,19909
4614,99173;14,224
4612,94062;14,2227
4610,88952;14,20044
4608,83841;14,20746
4606,7873;14,25555
4604,73619;14,32089
4602,68509;14,36378
4600,63398;14,35073
4598,58287;14,29116
4596,53176;14,24205
4594,48066;14,23273
4592,42955;14,23041
4590,37844;14,2169
4588,32733;14,22976
4586,27623;14,26531
4584,22512;14,2705
4582,17401;14,25594
4580,1229;14,26083
4578,0718;14,26793
4576,02069;14,25487
4573,96958;14,22962
4571,91848;14,2036
4569,86737;14,20851
4567,81626;14,24338
4565,76515;14,26433
4563,71405;14,27273
4561,66294;14,27583
4559,61183;14,25663
4557,56072;14,22867
4555,50962;14,21588
4553,45851;14,21742
4551,4074;14,22463
4549,35629;14,22596
4547,30519;14,21665
4545,25408;14,20863
4543,20297;14,19604
4541,15186;14,17102
4539,10076;14,14907
4537,04965;14,1208
4534,99854;14,08357
4532,94743;14,08046
4530,89633;14,11555
4528,84522;14,15255
4526,79411;14,19163
4524,743;14,21972
4522,6919;14,20478
4520,64079;14,16263
4518,58968;14,10621
4516,53857;14,06325
4514,48747;14,07804
4512,43636;14,11096
4510,38525;14,11688
4508,33414;14,11992
4506,28304;14,10284
4504,23193;14,05265
4502,18082;14,02247
4500,12971;14,00962
4498,07861;14,01323
4496,0275;14,05061
4493,97639;14,06742
4491,92529;14,05085
4489,87418;14,05015
4487,82307;14,07055
4485,77196;14,09872
4483,72086;14,12098
4481,66975;14,10003
4479,61864;14,07
4477,56753;14,09459
4475,51643;14,139
4473,46532;14,15849
4471,41421;14,17508
4469,3631;14,20967
4467,312;14,22854
4465,26089;14,20887
4463,20978;14,17924
4461,15867;14,17651
4459,10757;14,21337
4457,05646;14,25115
4455,00535;14,25782
4452,95424;14,26251
4450,90314;14,30053
4448,85203;14,3649
4446,80092;14,41116
4444,74981;14,42515
4442,69871;14,43991
4440,6476;14,47826
4438,59649;14,53536
4436,54538;14,59064
4434,49428;14,64229
4432,44317;14,70314
4430,39206;14,76019
4428,34095;14,77314
4426,28985;14,76077
4424,23874;14,79447
4422,18763;14,86444
4420,13652;14,91365
4418,08542;14,93243
4416,03431;14,95146
4413,9832;15,00052
4411,9321;15,06734
4409,88099;15,11948
4407,82988;15,16499
4405,77877;15,18808
4403,72767;15,15317
4401,67656;15,12181
4399,62545;15,14928
4397,57434;15,21439
4395,52324;15,28505
4393,47213;15,32993
4391,42102;15,33088
4389,36991;15,31475
4387,31881;15,32526
4385,2677;15,3557
4383,21659;15,39287
4381,16548;15,44266
4379,11438;15,49116
4377,06327;15,53557
4375,01216;15,5659
4372,96105;15,56578
4370,90995;15,57861
4368,85884;15,62193
4366,80773;15,6488
4364,75662;15,66126
4362,70552;15,67347
4360,65441;15,6497
4358,6033;15,61249
4356,55219;15,63727
4354,50109;15,70154
4352,44998;15,74228
4350,39887;15,77004
4348,34776;15,803
4346,29666;15,83875
4344,24555;15,86252
4342,19444;15,87411
4340,14333;15,90456
4338,09223;15,93658
4336,04112;15,9491
4333,99001;15,94509
4331,93891;15,91152
4329,8878;15,89335
4327,83669;15,93439
4325,78558;15,97945
4323,73448;15,98336
4321,68337;15,98261
4319,63226;16,00539
4317,58115;16,02244
4315,53005;16,01049
4313,47894;16,0084
4311,42783;16,02515
4309,37672;16,02876
4307,32562;16,02178
4305,27451;16,02545
4303,2234;16,07748
4301,17229;16,14722
4299,12119;16,17805
4297,07008;16,17693
4295,01897;16,16723
4292,96786;16,19601
4290,91676;16,2622
4288,86565;16,29328
4286,81454;16,26971
4284,76343;16,27527
4282,71233;16,35587
4280,66122;16,43621
4278,61011;16,45805
4276,559;16,45553
4274,5079;16,4757
4272,45679;16,51155
4270,40568;16,50827
4268,35457;16,43294
4266,30347;16,35831
4264,25236;16,36374
4262,20125;16,4136
4260,15014;16,46131
4258,09904;16,50109
4256,04793;16,50771
4253,99682;16,4715
4251,94572;16,43017
4249,89461;16,40922
4247,8435;16,39523
4245,79239;16,36502
4243,74129;16,3006
4241,69018;16,23957
4239,63907;16,20904
4237,58796;16,16771
4235,53686;16,13918
4233,48575;16,1562
4231,43464;16,17608
4229,38353;16,172
4227,33243;16,15474
4225,28132;16,14524
4223,23021;16,13499
4221,1791;16,0959
4219,128;16,06154
4217,07689;16,07335
4215,02578;16,08442
4212,97467;16,04951
4210,92357;15,99944
4208,87246;15,97508
4206,82135;15,98026
4204,77024;16,01242
4202,71914;16,07444
4200,66803;16,12482
4198,61692;16,11793
4196,56581;16,08678
4194,51471;16,0946
4192,4636;16,13912
4190,41249;16,16482
4188,36138;16,16016
4186,31028;16,14837
4184,25917;16,14124
4182,20806;16,14838
4180,15695;16,13956
4178,10585;16,12317
4176,05474;16,14113
4174,00363;16,16164
4171,95253;16,19362
4169,90142;16,24559
4167,85031;16,26624
4165,7992;16,26008
4163,7481;16,23081
4161,69699;16,19781
4159,64588;16,21434
4157,59477;16,25252
4155,54367;16,27217
4153,49256;16,28292
4151,44145;16,28418
4149,39034;16,27953
4147,33924;16,27622
4145,28813;16,26559
4143,23702;16,26706
4141,18591;16,30148
4139,13481;16,3498
4137,0837;16,37902
4135,03259;16,37804
4132,98148;16,38564
4130,93038;16,39676
4128,87927;16,38076
4126,82816;16,37745
4124,77705;16,38239
4122,72595;16,37184
4120,67484;16,38087
4118,62373;16,40419
4116,57262;16,42724
4114,52152;16,47041
4112,47041;16,50488
4110,4193;16,49964
4108,36819;16,50777
4106,31709;16,54636
4104,26598;16,56641
4102,21487;16,59014
4100,16376;16,63719
4098,11266;16,67607
4096,06155;16,71396
4094,01044;16,76598
4091,95934;16,82014
4089,90823;16,85294
4087,85712;16,87613
4085,80601;16,92317
4083,75491;17,00166
4081,7038;17,09088
4079,65269;17,12836
4077,60158;17,10897
4075,55048;17,11351
4073,49937;17,16778
4071,44826;17,23832
4069,39715;17,29824
4067,34605;17,34482
4065,29494;17,40336
4063,24383;17,47261
4061,19272;17,52192
4059,14162;17,5503
4057,09051;17,58231
4055,0394;17,63351
4052,98829;17,6778
4050,93719;17,68515
4048,88608;17,69059
4046,83497;17,72812
4044,78386;17,77473
4042,73276;17,82282
4040,68165;17,88232
4038,63054;17,93773
4036,57943;17,98318
4034,52833;18,00719
4032,47722;17,98456
4030,42611;17,95166
4028,375;17,96322
4026,3239;18,00458
4024,27279;18,04592
4022,22168;18,09673
4020,17057;18,13708
4018,11947;18,12941
4016,06836;18,12934
4014,01725;18,18549
4011,96615;18,26674
4009,91504;18,35205
4007,86393;18,41207
4005,81282;18,43216
4003,76172;18,44687
4001,71061;18,47575
3999,6595;18,52716
3997,60839;18,59318
3995,55729;18,65437
3993,50618;18,71003
3991,45507;18,76914
3989,40396;18,82558
3987,35286;18,87903
3985,30175;18,91086
3983,25064;18,90435
3981,19953;18,89934
3979,14843;18,93534
3977,09732;19,00052
3975,04621;19,04529
3972,9951;19,03887
3970,944;19,01975
3968,89289;19,03594
3966,84178;19,06743
3964,79067;19,08885
3962,73957;19,12255
3960,68846;19,17904
3958,63735;19,25219
3956,58624;19,33267
3954,53514;19,39183
3952,48403;19,42812
3950,43292;19,47473
3948,38181;19,51575
3946,33071;19,5176
3944,2796;19,49029
3942,22849;19,43734
3940,17738;19,41294
3938,12628;19,46049
3936,07517;19,51118
3934,02406;19,50545
3931,97296;19,43182
3929,92185;19,31418
3927,87074;19,20018
3925,81963;19,1063
3923,76853;19,03288
3921,71742;18,98829
3919,66631;18,92584
3917,6152;18,80884
3915,5641;18,69385
3913,51299;18,63806
3911,46188;18,61869
3909,41077;18,5952
3907,35967;18,58798
3905,30856;18,58005
3903,25745;18,50869
3901,20634;18,43163
3899,15524;18,40931
3897,10413;18,40178
3895,05302;18,41562
3893,00191;18,43217
3890,95081;18,37959
3888,8997;18,32298
3886,84859;18,35577
3884,79748;18,38098
3882,74638;18,37325
3880,69527;18,36101
3878,64416;18,33214
3876,59305;18,38467
3874,54195;18,45473
3872,49084;18,41686
3870,43973;18,3559
3868,38862;18,32803
3866,33752;18,31878
3864,28641;18,25172
3862,2353;18,14859
3860,18419;18,11468
3858,13309;18,10559
3856,08198;18,06703
3854,03087;17,97532
3851,97977;17,86329
3849,92866;17,88156
3847,87755;17,97647
3845,82644;18,02314
3843,77534;18,00205
3841,72423;17,96028
3839,67312;17,93553
3837,62201;17,90052
3835,57091;17,88379
3833,5198;17,91927
3831,46869;17,95664
3829,41758;17,99803
3827,36648;18,06427
3825,31537;18,11527
3823,26426;18,15953
3821,21315;18,13721
3819,16205;18,04917
3817,11094;18,04913
3815,05983;18,0367
3813,00872;18,01783
3810,95762;18,10691
3808,90651;18,22838
3806,8554;18,24919
3804,80429;18,19402
3802,75319;18,18903
3800,70208;18,16552
3798,65097;18,17062
3796,59986;18,27997
3794,54876;18,37607
3792,49765;18,44604
3790,44654;18,51145
3788,39543;18,55351
3786,34433;18,58665
3784,29322;18,63324
3782,24211;18,71753
3780,191;18,80384
3778,1399;18,79847
3776,08879;18,76157
3774,03768;18,79828
3771,98658;18,90604
3769,93547;19,00555
3767,88436;19,04368
3765,83325;19,06484
3763,78215;19,09029
3761,73104;19,13687
3759,67993;19,17149
3757,62882;19,1902
3755,57772;19,26621
3753,52661;19,3734
3751,4755;19,42961
3749,42439;19,4745
3747,37329;19,64038
3745,32218;19,90429
3743,27107;20,05573
3741,21996;20,12835
3739,16886;20,26069
3737,11775;20,4243
3735,06664;20,56648
3733,01553;20,69236
3730,96443;20,82971
3728,91332;20,98049
3726,86221;21,14324
3724,8111;21,31012
3722,76;21,5029
3720,70889;21,66946
3718,65778;21,78808
3716,60667;21,92408
3714,55557;22,11615
3712,50446;22,32961
3710,45335;22,54951
3708,40224;22,85905
3706,35114;23,2835
3704,30003;23,83874
3702,24892;24,57303
3700,19781;25,41909
3698,14671;26,25014
3696,0956;26,95709
3694,04449;27,45698
3691,99338;27,82945
3689,94228;28,19556
3687,89117;28,55501
3685,84006;28,9518
3683,78896;29,47485
3681,73785;30,09838
3679,68674;30,76952
3677,63563;31,53132
3675,58453;32,41797
3673,53342;33,35491
3671,48231;34,43669
3669,4312;35,60627
3667,3801;36,75008
3665,32899;38,02279
3663,27788;39,42092
3661,22677;40,74197
3659,17567;41,93913
3657,12456;43,22572
3655,07345;44,60916
3653,02234;46,11874
3650,97124;48,30354
3648,92013;51,37969
3646,86902;54,38522
3644,81791;56,45486
3642,76681;57,56465
3640,7157;57,9432
3638,66459;58,17936
3636,61348;58,86921
3634,56238;60,08947
3632,51127;61,34739
3630,46016;62,24529
3628,40905;63,04511
3626,35795;64,23622
3624,30684;65,80241
3622,25573;67,60445
3620,20462;69,58743
3618,15352;71,24706
3616,10241;72,49462
3614,0513;74,03758
3612,00019;76,25668
3609,94909;78,85587
3607,89798;81,01806
3605,84687;82,33439
3603,79577;83,32703
3601,74466;84,57504
3599,69355;86,24166
3597,64244;88,13137
3595,59134;90,14176
3593,54023;92,04733
3591,48912;93,26721
3589,43801;94,08123
3587,38691;95,39217
3585,3358;97,34689
3583,28469;99,34134
3581,23358;101,22391
3579,18248;103,46173
3577,13137;106,1319
3575,08026;108,80794
3573,02915;110,62122
3570,97805;111,23304
3568,92694;112,4323
3566,87583;115,6165
3564,82472;118,52062
3562,77362;119,35636
3560,72251;119,86821
3558,6714;121,65559
3556,62029;124,34319
3554,56919;126,61451
3552,51808;127,56915
3550,46697;127,91511
3548,41586;129,6487
3546,36476;133,10164
3544,31365;136,51025
3542,26254;138,75243
3540,21143;139,76082
3538,16033;139,93221
3536,10922;140,24352
3534,05811;141,10382
3532,007;141,90961
3529,9559;142,8311
3527,90479;144,9716
3525,85368;147,73714
3523,80258;149,44672
3521,75147;149,61154
3519,70036;148,70047
3517,64925;148,47177
3515,59815;149,91367
3513,54704;151,63115
3511,49593;153,29837
3509,44482;156,35114
3507,39372;159,03284
3505,34261;159,06865
3503,2915;158,66765
3501,24039;159,6615
3499,18929;161,63806
3497,13818;163,65559
3495,08707;164,45699
3493,03596;163,55043
3490,98486;162,52919
3488,93375;164,45348
3486,88264;168,10423
3484,83153;168,65569
3482,78043;167,3264
3480,72932;167,65071
3478,67821;168,67192
3476,6271;169,35994
3474,576;170,32439
3472,52489;172,07715
3470,47378;174,43135
3468,42267;176,58104
3466,37157;178,04257
3464,32046;178,8605
3462,26935;179,55383
3460,21824;180,5462
3458,16714;182,1246
3456,11603;184,04468
3454,06492;184,12906
3452,01381;182,59796
3449,96271;180,95796
3447,9116;179,14185
3445,86049;178,69099
3443,80939;180,09854
3441,75828;182,8288
3439,70717;186,59253
3437,65606;188,78279
3435,60496;188,65625
3433,55385;189,29355
3431,50274;190,85158
3429,45163;190,47597
3427,40053;188,12599
3425,34942;186,48349
3423,29831;188,00395
3421,2472;193,78465
3419,1961;201,44995
3417,14499;205,84859
3415,09388;205,22868
3413,04277;201,03778
3410,99167;196,9436
3408,94056;195,38077
3406,88945;195,13159
3404,83834;196,77408
3402,78724;199,3235
3400,73613;198,74396
3398,68502;197,17323
3396,63391;197,96211
3394,58281;199,93921
3392,5317;201,6265
3390,48059;202,71646
3388,42948;202,73212
3386,37838;201,78821
3384,32727;200,74794
3382,27616;200,4908
3380,22505;200,21535
3378,17395;200,29701
3376,12284;202,09105
3374,07173;204,04794
3372,02062;204,9216
3369,96952;204,52562
3367,91841;203,23743
3365,8673;204,19275
3363,8162;207,24828
3361,76509;208,48083
3359,71398;208,83427
3357,66287;211,19116
3355,61177;212,6833
3353,56066;211,36298
3351,50955;209,46176
3349,45844;208,74896
3347,40734;209,76799
3345,35623;211,1792
3343,30512;213,63354
3341,25401;218,96658
3339,20291;223,44331
3337,1518;221,78284
3335,10069;217,65005
3333,04958;218,04085
3330,99848;220,80208
3328,94737;220,54082
3326,89626;220,76588
3324,84515;225,67647
3322,79405;229,99509
3320,74294;230,61617
3318,69183;230,85854
3316,64072;230,33844
3314,58962;229,08624
3312,53851;228,69679
3310,4874;228,74599
3308,43629;229,60199
3306,38519;230,76244
3304,33408;231,36533
3302,28297;231,09238
3300,23186;229,79027
3298,18076;230,5206
3296,12965;232,95932
3294,07854;233,64716
3292,02743;232,17503
3289,97633;228,08063
3287,92522;224,32016
3285,87411;224,2886
3283,82301;226,25385
3281,7719;227,36987
3279,72079;226,20131
3277,66968;223,90173
3275,61858;223,45486
3273,56747;225,95178
3271,51636;228,23282
3269,46525;227,01836
3267,41415;223,90208
3265,36304;221,26614
3263,31193;221,04361
3261,26082;221,96567
3259,20972;219,79521
3257,15861;216,63179
3255,1075;215,28453
3253,05639;212,97844
3251,00529;209,17241
3248,95418;206,82515
3246,90307;207,07254
3244,85196;208,7357
3242,80086;209,30818
3240,74975;208,1524
3238,69864;206,11731
3236,64753;202,96425
3234,59643;201,59007
3232,54532;202,74251
3230,49421;202,20947
3228,4431;199,71745
3226,392;197,29129
3224,34089;195,81291
3222,28978;195,44305
3220,23867;196,03101
3218,18757;196,84068
3216,13646;195,30412
3214,08535;192,32761
3212,03424;193,43144
3209,98314;197,52916
3207,93203;196,81926
3205,88092;192,66359
3203,82982;191,74799
3201,77871;191,43066
3199,7276;188,20631
3197,67649;185,94135
3195,62539;185,94629
3193,57428;185,60117
3191,52317;184,81631
3189,47206;185,20422
3187,42096;186,18422
3185,36985;184,35573
3183,31874;179,99078
3181,26763;177,03546
3179,21653;175,34279
3177,16542;173,94156
3175,11431;174,09412
3173,0632;174,77345
3171,0121;174,95633
3168,96099;175,07961
3166,90988;173,72552
3164,85877;170,67891
3162,80767;168,33527
3160,75656;167,48572
3158,70545;166,2766
3156,65434;163,36179
3154,60324;160,09215
3152,55213;158,1694
3150,50102;158,23576
3148,44991;159,22025
3146,39881;158,83591
3144,3477;157,07367
3142,29659;155,70856
3140,24548;155,75673
3138,19438;156,4568
3136,14327;156,18723
3134,09216;155,01263
3132,04105;152,9115
3129,98995;149,49103
3127,93884;146,63405
3125,88773;145,5591
3123,83663;145,19589
3121,78552;144,86856
3119,73441;144,5246
3117,6833;144,22308
3115,6322;144,34436
3113,58109;145,09102
3111,52998;146,59183
3109,47887;147,49989
3107,42777;146,39268
3105,37666;145,45941
3103,32555;146,15515
3101,27444;147,46773
3099,22334;148,57341
3097,17223;148,20059
3095,12112;146,79607
3093,07001;146,47446
3091,01891;147,53276
3088,9678;148,84329
3086,91669;149,42368
3084,86558;148,65834
3082,81448;147,02284
3080,76337;146,22821
3078,71226;147,64326
3076,66115;149,593
3074,61005;148,94025
3072,55894;146,82457
3070,50783;145,94698
3068,45672;145,94354
3066,40562;144,83408
3064,35451;142,99069
3062,3034;142,71147
3060,25229;143,07076
3058,20119;141,96123
3056,15008;140,91252
3054,09897;141,68059
3052,04786;142,19093
3049,99676;140,49216
3047,94565;138,54187
3045,89454;137,52646
3043,84344;135,69545
3041,79233;133,40707
3039,74122;132,58011
3037,69011;132,72768
3035,63901;132,98082
3033,5879;132,80309
3031,53679;131,21567
3029,48568;128,9212
3027,43458;127,53313
3025,38347;126,98294
3023,33236;126,06962
3021,28125;124,71367
3019,23015;124,23354
3017,17904;124,83003
3015,12793;125,31838
3013,07682;124,84277
3011,02572;123,08953
3008,97461;121,16608
3006,9235;120,54755
3004,87239;121,13919
3002,82129;121,72449
3000,77018;121,69888
2998,71907;121,7886
2996,66796;122,41782
2994,61686;122,97416
2992,56575;123,22369
2990,51464;123,68702
2988,46353;125,34925
2986,41243;128,43626
2984,36132;131,9304
2982,31021;135,1055
2980,2591;138,12167
2978,208;140,61931
2976,15689;142,53284
2974,10578;145,30852
2972,05467;148,32907
2970,00357;148,95175
2967,95246;148,60722
2965,90135;149,76125
2963,85025;151,87189
2961,79914;154,28879
2959,74803;156,09839
2957,69692;154,97043
2955,64582;151,20856
2953,59471;147,70467
2951,5436;144,44038
2949,49249;141,09029
2947,44139;140,15892
2945,39028;141,26678
2943,33917;141,44629
2941,28806;140,79648
2939,23696;140,75107
2937,18585;141,2209
2935,13474;141,16783
2933,08363;140,46266
2931,03253;140,1586
2928,98142;139,92998
2926,93031;139,10323
2924,8792;138,0616
2922,8281;136,50272
2920,77699;134,16739
2918,72588;132,06442
2916,67477;130,29689
2914,62367;127,76159
2912,57256;124,76267
2910,52145;122,61637
2908,47034;121,85891
2906,41924;121,52595
2904,36813;119,72219
2902,31702;117,35197
2900,26591;115,56783
2898,21481;113,81077
2896,1637;112,70573
2894,11259;112,63338
2892,06148;112,54221
2890,01038;111,73939
2887,95927;111,02438
2885,90816;111,47881
2883,85706;112,88171
2881,80595;114,23504
2879,75484;115,19809
2877,70373;115,9219
2875,65263;116,55163
2873,60152;116,90948
2871,55041;116,07388
2869,4993;114,2267
2867,4482;112,19769
2865,39709;109,87417
2863,34598;107,10488
2861,29487;104,56644
2859,24377;102,94984
2857,19266;101,9894
2855,14155;100,70381
2853,09044;98,79611
2851,03934;97,45961
2848,98823;96,61964
2846,93712;95,01488
2844,88601;92,93951
2842,83491;91,07642
2840,7838;89,49334
2838,73269;88,34081
2836,68158;87,32452
2834,63048;85,88667
2832,57937;84,60132
2830,52826;84,30659
2828,47715;84,70639
2826,42605;84,62016
2824,37494;83,31322
2822,32383;81,61429
2820,27272;80,55594
2818,22162;80,04285
2816,17051;79,94167
2814,1194;80,04656
2812,06829;79,68861
2810,01719;78,89179
2807,96608;78,08875
2805,91497;77,4967
2803,86387;77,09566
2801,81276;76,75191
2799,76165;76,50516
2797,71054;76,37617
2795,65944;75,99451
2793,60833;75,16769
2791,55722;74,55541
2789,50611;74,37807
2787,45501;73,89059
2785,4039;73,03075
2783,35279;72,41825
2781,30168;72,01771
2779,25058;71,72907
2777,19947;71,58534
2775,14836;71,33696
2773,09725;71,00765
2771,04615;70,57849
2768,99504;70,07465
2766,94393;69,89923
2764,89282;69,76884
2762,84172;69,16483
2760,79061;68,48431
2758,7395;68,02604
2756,68839;67,6301
2754,63729;67,25552
2752,58618;67,00006
2750,53507;66,79298
2748,48396;66,39629
2746,43286;65,83527
2744,38175;65,26478
2742,33064;64,83759
2740,27953;64,65437
2738,22843;64,57187
2736,17732;64,38755
2734,12621;64,14724
2732,0751;63,81434
2730,024;63,24783
2727,97289;62,65327
2725,92178;62,15901
2723,87068;61,89475
2721,81957;61,94786
2719,76846;61,74035
2717,71735;61,17707
2715,66625;60,86072
2713,61514;60,71483
2711,56403;60,58092
2709,51292;60,47919
2707,46182;60,17183
2705,41071;59,77766
2703,3596;59,61713
2701,30849;59,62428
2699,25739;59,47106
2697,20628;59,19342
2695,15517;59,10484
2693,10406;59,20204
2691,05296;59,19395
2689,00185;58,84986
2686,95074;58,44188
2684,89963;58,38774
2682,84853;58,48604
2680,79742;58,32391
2678,74631;58,03696
2676,6952;57,95578
2674,6441;57,96365
2672,59299;57,81476
2670,54188;57,60598
2668,49077;57,4385
2666,43967;57,28684
2664,38856;57,1293
2662,33745;56,9586
2660,28634;56,90384
2658,23524;56,97852
2656,18413;56,95163
2654,13302;56,81213
2652,08191;56,69688
2650,03081;56,6404
2647,9797;56,66211
2645,92859;56,59073
2643,87749;56,43617
2641,82638;56,48978
2639,77527;56,68626
2637,72416;56,75482
2635,67306;56,74891
2633,62195;56,90666
2631,57084;57,11322
2629,51973;57,19093
2627,46863;57,23408
2625,41752;57,3175
2623,36641;57,43132
2621,3153;57,51323
2619,2642;57,7174
2617,21309;58,23186
2615,16198;58,69544
2613,11087;58,70302
2611,05977;58,43483
2609,00866;58,3603
2606,95755;58,74409
2604,90644;59,27341
2602,85534;59,48104
2600,80423;59,50779
2598,75312;59,54538
2596,70201;59,45847
2594,65091;59,29458
2592,5998;59,18911
2590,54869;59,10504
2588,49758;58,93847
2586,44648;58,87134
2584,39537;59,11275
2582,34426;59,31607
2580,29315;59,17034
2578,24205;58,86698
2576,19094;58,57287
2574,13983;58,3754
2572,08872;58,40894
2570,03762;58,58234
2567,98651;58,67295
2565,9354;58,61879
2563,8843;58,52688
2561,83319;58,50283
2559,78208;58,48103
2557,73097;58,49615
2555,67987;58,70353
2553,62876;58,90119
2551,57765;58,89187
2549,52654;58,94311
2547,47544;59,13291
2545,42433;59,18572
2543,37322;59,19409
2541,32211;59,38768
2539,27101;59,60268
2537,2199;59,91352
2535,16879;60,58947
2533,11768;61,37343
2531,06658;61,96497
2529,01547;62,48647
2526,96436;63,058
2524,91325;63,57297
2522,86215;63,94965
2520,81104;64,33657
2518,75993;64,82864
2516,70882;65,18991
2514,65772;65,37073
2512,60661;65,59248
2510,5555;65,73382
2508,50439;65,55939
2506,45329;65,06425
2504,40218;64,28031
2502,35107;63,5022
2500,29996;62,96882
2498,24886;62,21305
2496,19775;61,09707
2494,14664;60,10963
2492,09553;59,30721
2490,04443;58,45735
2487,99332;57,56192
2485,94221;56,69123
2483,89111;55,90672
2481,84;55,21513
2479,78889;54,4594
2477,73778;53,73899
2475,68668;53,20477
2473,63557;52,72578
2471,58446;52,17834
2469,53335;51,50573
2467,48225;50,84615
2465,43114;50,3851
2463,38003;50,00606
2461,32892;49,62321
2459,27782;49,36975
2457,22671;49,22185
2455,1756;48,99046
2453,12449;48,60349
2451,07339;48,22966
2449,02228;48,01992
2446,97117;47,81324
2444,92006;47,45542
2442,86896;47,10584
2440,81785;46,90904
2438,76674;46,79757
2436,71563;46,71824
2434,66453;46,59833
2432,61342;46,35357
2430,56231;46,11811
2428,5112;46,01155
2426,4601;45,95902
2424,40899;45,90784
2422,35788;45,7951
2420,30677;45,61599
2418,25567;45,47376
2416,20456;45,4008
2414,15345;45,39863
2412,10234;45,39416
2410,05124;45,30918
2408,00013;45,16409
2405,94902;45,03869
2403,89792;45,00115
2401,84681;44,94147
2399,7957;44,80852
2397,74459;44,65389
2395,69349;44,47863
2393,64238;44,33526
2391,59127;44,31069
2389,54016;44,38312
2387,48906;44,48795
2385,43795;44,56751
2383,38684;44,56722
2381,33573;44,52955
2379,28463;44,6119
2377,23352;44,79665
2375,18241;44,87115
2373,1313;44,94244
2371,0802;45,24205
2369,02909;45,52738
2366,97798;45,53017
2364,92687;45,33055
2362,87577;45,03027
2360,82466;44,86938
2358,77355;44,93061
2356,72244;44,89595
2354,67134;44,73798
2352,62023;44,84338
2350,56912;45,25887
2348,51801;45,49298
2346,46691;45,31546
2344,4158;45,18739
2342,36469;45,50992
2340,31358;45,92399
2338,26248;45,85384
2336,21137;45,36197
2334,16026;45,06688
2332,10915;45,17394
2330,05805;45,33731
2328,00694;45,37922
2325,95583;45,41183
2323,90473;45,50663
2321,85362;45,5905
2319,80251;45,61255
2317,7514;45,59899
2315,7003;45,48787
2313,64919;45,29893
2311,59808;45,22969
2309,54697;45,32067
2307,49587;45,41887
2305,44476;45,43265
2303,39365;45,40237
2301,34254;45,37508
2299,29144;45,32269
2297,24033;45,23126
2295,18922;45,1777
2293,13811;45,24617
2291,08701;45,36276
2289,0359;45,39276
2286,98479;45,39112
2284,93368;45,4807
2282,88258;45,62968
2280,83147;45,76015
2278,78036;45,8599
2276,72925;45,90723
2274,67815;45,88799
2272,62704;45,8781
2270,57593;45,93758
2268,52482;45,99987
2266,47372;46,01896
2264,42261;46,03928
2262,3715;46,07833
2260,32039;46,1374
2258,26929;46,26449
2256,21818;46,46722
2254,16707;46,64615
2252,11596;46,73338
2250,06486;46,82507
2248,01375;47,02428
2245,96264;47,20727
2243,91154;47,28893
2241,86043;47,4558
2239,80932;47,62484
2237,75821;47,62627
2235,70711;47,68786
2233,656;47,88023
2231,60489;48,02556
2229,55378;48,12691
2227,50268;48,19651
2225,45157;48,2693
2223,40046;48,41591
2221,34935;48,61005
2219,29825;48,76931
2217,24714;48,86941
2215,19603;48,95257
2213,14492;49,01054
2211,09382;49,07321
2209,04271;49,18338
2206,9916;49,3104
2204,94049;49,47769
2202,88939;49,66918
2200,83828;49,77516
2198,78717;49,85616
2196,73606;49,98771
2194,68496;50,12048
2192,63385;50,2749
2190,58274;50,44768
2188,53163;50,55215
2186,48053;50,58736
2184,42942;50,6605
2182,37831;50,72831
2180,3272;50,72221
2178,2761;50,84437
2176,22499;51,1242
2174,17388;51,35782
2172,12277;51,58051
2170,07167;51,77887
2168,02056;51,87636
2165,96945;52,0147
2163,91835;52,20352
2161,86724;52,35188
2159,81613;52,55491
2157,76502;52,90823
2155,71392;53,28339
2153,66281;53,50397
2151,6117;53,67158
2149,56059;53,98858
2147,50949;54,35963
2145,45838;54,60713
2143,40727;54,741
2141,35616;54,87576
2139,30506;55,08614
2137,25395;55,2077
2135,20284;55,13422
2133,15173;55,07948
2131,10063;55,13344
2129,04952;55,06157
2126,99841;54,90225
2124,9473;54,8741
2122,8962;54,73078
2120,84509;54,37206
2118,79398;54,0603
2116,74287;53,89666
2114,69177;53,87093
2112,64066;53,85349
2110,58955;53,788
2108,53844;53,81565
2106,48734;53,88642
2104,43623;53,83218
2102,38512;53,709
2100,33401;53,7021
2098,28291;53,81184
2096,2318;53,81184
2094,18069;53,67609
2092,12958;53,62422
2090,07848;53,6903
2088,02737;53,78066
2085,97626;53,85122
2083,92516;53,82352
2081,87405;53,68741
2079,82294;53,5442
2077,77183;53,48577
2075,72073;53,51409
2073,66962;53,60043
2071,61851;53,69778
2069,5674;53,72094
2067,5163;53,73409
2065,46519;53,8209
2063,41408;53,88969
2061,36297;53,95259
2059,31187;54,06349
2057,26076;54,05914
2055,20965;53,86022
2053,15854;53,71567
2051,10744;53,83752
2049,05633;54,07837
2047,00522;54,19723
2044,95411;54,20508
2042,90301;54,19793
2040,8519;54,11586
2038,80079;53,94411
2036,74968;53,87756
2034,69858;54,0224
2032,64747;54,197
2030,59636;54,24404
2028,54525;54,22743
2026,49415;54,20935
2024,44304;54,18177
2022,39193;54,1593
2020,34082;54,14903
2018,28972;54,14385
2016,23861;54,11701
2014,1875;54,12399
2012,13639;54,26802
2010,08529;54,40185
2008,03418;54,35941
2005,98307;54,27568
2003,93197;54,3125
2001,88086;54,49809
1999,82975;54,74992
1997,77864;54,84609
1995,72754;54,74259
1993,67643;54,64014
1991,62532;54,63758
1989,57421;54,8194
1987,52311;55,15188
1985,472;55,30515
1983,42089;55,21743
1981,36978;55,15382
1979,31868;55,13028
1977,26757;55,03689
1975,21646;54,98323
1973,16535;55,05688
1971,11425;55,26027
1969,06314;55,57764
1967,01203;55,91494
1964,96092;56,18736
1962,90982;56,35231
1960,85871;56,44845
1958,8076;56,55958
1956,75649;56,53829
1954,70539;56,27425
1952,65428;56,05073
1950,60317;56,0777
1948,55206;56,1395
1946,50096;56,02061
1944,44985;55,96904
1942,39874;56,19711
1940,34763;56,43781
1938,29653;56,55173
1936,24542;56,56335
1934,19431;56,51014
1932,1432;56,4664
1930,0921;56,47244
1928,04099;56,59354
1925,98988;56,78967
1923,93878;57,00544
1921,88767;57,24685
1919,83656;57,50131
1917,78545;57,62124
1915,73435;57,59474
1913,68324;57,64827
1911,63213;57,74775
1909,58102;57,87947
1907,52992;58,11
1905,47881;58,3904
1903,4277;58,65792
1901,37659;58,84455
1899,32549;58,9879
1897,27438;59,16716
1895,22327;59,32685
1893,17216;59,50311
1891,12106;59,82696
1889,06995;60,12579
1887,01884;60,20297
1884,96773;60,21854
1882,91663;60,30856
1880,86552;60,4062
1878,81441;60,38824
1876,7633;60,33513
1874,7122;60,49157
1872,66109;60,87948
1870,60998;61,33913
1868,55887;61,73359
1866,50777;62,04659
1864,45666;62,33153
1862,40555;62,52039
1860,35444;62,62381
1858,30334;62,77407
1856,25223;63,02871
1854,20112;63,33757
1852,15001;63,68294
1850,09891;64,04228
1848,0478;64,33869
1845,99669;64,63329
1843,94559;64,99229
1841,89448;65,34969
1839,84337;65,70233
1837,79226;66,01569
1835,74116;66,29786
1833,69005;66,62157
1831,63894;67,07774
1829,58783;67,66051
1827,53673;68,28214
1825,48562;68,98067
1823,43451;69,68488
1821,3834;70,42811
1819,3323;71,30139
1817,28119;72,16391
1815,23008;72,96915
1813,17897;73,88042
1811,12787;75,05441
1809,07676;76,64208
1807,02565;78,72195
1804,97454;81,23108
1802,92344;84,11385
1800,87233;87,17426
1798,82122;89,93951
1796,77011;92,12743
1794,71901;93,68372
1792,6679;94,32735
1790,61679;93,55156
1788,56568;91,81788
1786,51458;90,16946
1784,46347;88,84376
1782,41236;87,76372
1780,36125;87,06102
1778,31015;86,53207
1776,25904;85,8694
1774,20793;85,39048
1772,15682;85,53609
1770,10572;86,03415
1768,05461;86,54918
1766,0035;87,13179
1763,9524;88,11132
1761,90129;89,40266
1759,85018;90,49628
1757,79907;91,54949
1755,74797;92,79272
1753,69686;94,30768
1751,64575;96,36424
1749,59464;98,69683
1747,54354;100,63592
1745,49243;102,03346
1743,44132;103,20535
1741,39021;104,62928
1739,33911;106,46658
1737,288;108,17927
1735,23689;109,80196
1733,18578;111,41861
1731,13468;112,93781
1729,08357;114,67105
1727,03246;116,49734
1724,98135;118,4341
1722,93025;120,53606
1720,87914;122,59041
1718,82803;125,22805
1716,77692;129,84535
1714,72582;136,46092
1712,67471;143,52094
1710,6236;150,63617
1708,57249;159,05243
1706,52139;170,23415
1704,47028;182,4998
1702,41917;193,67767
1700,36806;207,71439
1698,31696;228,0513
1696,26585;254,64397
1694,21474;283,95529
1692,16363;307,63956
1690,11253;324,90103
1688,06142;338,99854
1686,01031;357,3678
1683,95921;385,77869
1681,9081;404,46582
1679,85699;399,82697
1677,80588;389,85632
1675,75478;388,83591
1673,70367;391,39313
1671,65256;389,01071
1669,60145;385,20316
1667,55035;388,09836
1665,49924;397,15958
1663,44813;403,82126
1661,39702;401,76443
1659,34592;396,64218
1657,29481;394,6019
1655,2437;397,52521
1653,19259;396,24445
1651,14149;379,32993
1649,09038;365,94733
1647,03927;361,66431
1644,98816;357,49719
1642,93706;351,07425
1640,88595;344,56049
1638,83484;341,1561
1636,78373;339,37695
1634,73263;333,36856
1632,68152;328,44846
1630,63041;329,2243
1628,5793;327,17868
1626,5282;318,50272
1624,47709;312,22433
1622,42598;308,9841
1620,37487;303,0101
1618,32377;295,65396
1616,27266;288,91782
1614,22155;284,27271
1612,17044;280,40515
1610,11934;274,81824
1608,06823;269,45163
1606,01712;265,65085
1603,96602;261,77048
1601,91491;257,98325
1599,8638;255,39842
1597,81269;252,09848
1595,76159;247,7149
1593,71048;245,93806
1591,65937;248,52715
1589,60826;253,20981
1587,55716;256,47974
1585,50605;257,40286
1583,45494;258,8718
1581,40383;262,54297
1579,35273;266,70248
1577,30162;271,59787
1575,25051;278,26663
1573,1994;285,00632
1571,1483;290,92847
1569,09719;293,76508
1567,04608;294,71002
1564,99497;298,91971
1562,94387;305,08044
1560,89276;311,13135
1558,84165;315,20145
1556,79054;312,00378
1554,73944;306,97812
1552,68833;304,62939
1550,63722;304,81595
1548,58611;305,06415
1546,53501;303,86377
1544,4839;300,90039
1542,43279;295,15775
1540,38168;289,79816
1538,33058;287,96359
1536,27947;285,19632
1534,22836;277,88159
1532,17725;271,09717
1530,12615;271,6741
1528,07504;274,28262
1526,02393;271,04977
1523,97283;264,06934
1521,92172;258,29666
1519,87061;255,64153
1517,8195;254,84004
1515,7684;251,83473
1513,71729;247,01331
1511,66618;241,44601
1509,61507;232,24683
1507,56397;219,89917
1505,51286;211,24016
1503,46175;208,23738
1501,41064;205,52269
1499,35954;200,10487
1497,30843;192,80974
1495,25732;186,06444
1493,20621;180,9659
1491,15511;175,86896
1489,104;170,4572
1487,05289;168,19206
1485,00178;170,22495
1482,95068;173,71643
1480,89957;176,20865
1478,84846;179,00459
1476,79735;184,71844
1474,74625;192,83112
1472,69514;200,76382
1470,64403;206,70126
1468,59292;210,92398
1466,54182;214,58124
1464,49071;217,74358
1462,4396;219,47636
1460,38849;220,69423
1458,33739;224,90498
1456,28628;232,50679
1454,23517;237,05449
1452,18406;237,10318
1450,13296;236,75673
1448,08185;238,45625
1446,03074;240,70007
1443,97964;240,90454
1441,92853;238,83737
1439,87742;235,88005
1437,82631;232,11967
1435,77521;227,50569
1433,7241;224,6221
1431,67299;224,57669
1429,62188;225,28804
1427,57078;224,92909
1425,51967;222,53473
1423,46856;217,45064
1421,41745;212,96472
1419,36635;213,89003
1417,31524;219,02475
1415,26413;222,75185
1413,21302;223,55106
1411,16192;223,78198
1409,11081;225,5475
1407,0597;228,49606
1405,00859;231,79073
1402,95749;235,61858
1400,90638;238,31238
1398,85527;237,26169
1396,80416;235,05681
1394,75306;237,01093
1392,70195;242,1386
1390,65084;245,2095
1388,59973;243,69322
1386,54863;238,96788
1384,49752;233,77832
1382,44641;229,18599
1380,3953;226,36317
1378,3442;226,68918
1376,29309;228,38896
1374,24198;228,58449
1372,19087;227,39502
1370,13977;227,0545
1368,08866;227,11803
1366,03755;224,58324
1363,98645;219,60861
1361,93534;216,74269
1359,88423;217,71022
1357,83312;217,99702
1355,78202;215,59392
1353,73091;213,6562
1351,6798;213,09825
1349,62869;212,14119
1347,57759;210,54044
1345,52648;208,61357
1343,47537;206,86638
1341,42426;207,46799
1339,37316;211,12698
1337,32205;214,32899
1335,27094;214,18527
1333,21983;212,49411
1331,16873;211,69617
1329,11762;212,05231
1327,06651;212,97124
1325,0154;213,82953
1322,9643;214,8737
1320,91319;217,61708
1318,86208;221,81833
1316,81097;224,45003
1314,75987;224,87338
1312,70876;223,53775
1310,65765;219,92979
1308,60654;217,33626
1306,55544;217,44392
1304,50433;216,85593
1302,45322;214,8642
1300,40211;213,90443
1298,35101;214,59315
1296,2999;215,48647
1294,24879;215,04405
1292,19768;214,57111
1290,14658;215,73654
1288,09547;217,34209
1286,04436;218,02737
1283,99326;218,05357
1281,94215;218,09441
1279,89104;218,64919
1277,83993;219,61859
1275,78883;220,66208
1273,73772;221,8457
1271,68661;222,98048
1269,6355;223,76073
1267,5844;224,53882
1265,53329;225,55917
1263,48218;226,79207
1261,43107;228,81418
1259,37997;231,21881
1257,32886;232,40103
1255,27775;233,78264
1253,22664;237,37706
1251,17554;240,05899
1249,12443;240,31473
1247,07332;242,05331
1245,02221;244,61942
1242,97111;244,5658
1240,92;243,77788
1238,86889;244,1011
1236,81778;243,87897
1234,76668;241,22665
1232,71557;236,63864
1230,66446;233,86029
1228,61335;234,31116
1226,56225;233,28015
1224,51114;227,61946
1222,46003;220,5162
1220,40892;216,80658
1218,35782;217,11652
1216,30671;217,18227
1214,2556;214,58965
1212,20449;213,22316
1210,15339;215,3737
1208,10228;216,93419
1206,05117;216,73128
1204,00006;217,93755
1201,94896;219,94357
1199,89785;220,31424
1197,84674;219,51717
1195,79564;217,70755
1193,74453;214,29335
1191,69342;212,80568
1189,64231;217,15576
1187,59121;223,83696
1185,5401;225,89163
1183,48899;225,00641
1181,43788;225,83771
1179,38678;228,2191
1177,33567;230,41762
1175,28456;230,94279
1173,23345;230,35178
1171,18235;230,56566
1169,13124;231,37949
1167,08013;233,84775
1165,02902;238,91571
1162,97792;241,13974
1160,92681;239,66817
1158,8757;239,75934
1156,82459;239,58974
1154,77349;238,70576
1152,72238;240,84575
1150,67127;241,12292
1148,62016;235,35645
1146,56906;231,23386
1144,51795;233,50475
1142,46684;237,43112
1140,41573;237,66577
1138,36463;236,58955
1136,31352;236,27473
1134,26241;235,87862
1132,2113;238,62289
1130,1602;243,94357
1128,10909;246,19081
1126,05798;245,57263
1124,00687;246,32288
1121,95577;248,05099
1119,90466;248,01579
1117,85355;246,25232
1115,80245;244,30611
1113,75134;243,72647
1111,70023;245,80156
1109,64912;250,5327
1107,59802;253,85483
1105,54691;251,34073
1103,4958;246,81815
1101,44469;245,24994
1099,39359;247,01785
1097,34248;250,06473
1095,29137;253,80971
1093,24026;258,52847
1091,18916;262,43668
1089,13805;263,3812
1087,08694;264,05685
1085,03583;265,58588
1082,98473;262,41821
1080,93362;255,04805
1078,88251;249,78148
1076,8314;247,66037
1074,7803;246,5677
1072,72919;244,76624
1070,67808;243,76228
1068,62697;244,07196
1066,57587;240,4707
1064,52476;234,4442
1062,47365;231,7484
1060,42254;231,02144
1058,37144;230,27579
1056,32033;229,49034
1054,26922;229,83598
1052,21811;231,75793
1050,16701;232,2672
1048,1159;230,85498
1046,06479;230,99504
1044,01368;233,31274
1041,96258;233,10789
1039,91147;231,02394
1037,86036;232,30957
1035,80926;236,50948
1033,75815;237,87312
1031,70704;233,40814
1029,65593;227,10336
1027,60483;223,52357
1025,55372;224,36426
1023,50261;225,34648
1021,4515;222,02214
1019,4004;220,29774
1017,34929;222,33235
1015,29818;222,96928
1013,24707;222,93155
1011,19597;226,10146
1009,14486;231,73604
1007,09375;235,22957
1005,04264;236,10509
1002,99154;237,88809
1000,94043;238,2527
998,88932;236,05852
996,83821;237,84641
994,78711;244,10777
992,736;248,61682
990,68489;247,60777
988,63378;242,06322
986,58268;237,98537
984,53157;238,02832
982,48046;238,50569
980,42935;236,16557
978,37825;232,32808
976,32714;230,55878
974,27603;230,34355
972,22492;228,80786
970,17382;227,19133
968,12271;226,62889
966,0716;225,02769
964,02049;222,96777
961,96939;222,47272
959,91828;223,636
957,86717;225,22215
955,81607;225,13556
953,76496;225,21094
951,71385;227,71135
949,66274;230,23741
947,61164;231,29247
945,56053;231,14835
943,50942;230,06996
941,45831;228,42386
939,40721;228,01208
937,3561;231,7041
935,30499;237,94609
933,25388;243,38837
931,20278;245,32524
929,15167;243,80481
927,10056;240,92618
925,04945;238,0006
922,99835;235,62025
920,94724;232,13947
918,89613;230,88034
916,84502;233,23694
914,79392;232,6886
912,74281;229,1799
910,6917;227,75876
908,64059;231,62216
906,58949;240,13844
904,53838;241,21902
902,48727;231,60173
900,43616;225,47676
898,38506;227,60994
896,33395;233,29886
894,28284;236,64525
892,23173;230,93417
890,18063;217,85704
888,12952;211,37491
886,07841;220,52136
884,0273;234,25148
881,9762;229,82115
879,92509;211,06447
877,87398;193,77399
875,82288;180,17001
873,77177;169,42366
871,72066;169,26067
869,66955;188,56932
867,61845;220,90381
865,56734;247,95012
863,51623;263,26007
861,46512;263,84314
859,41402;260,10056
857,36291;263,57718
855,3118;270,26337
853,26069;281,89883
851,20959;302,19287
849,15848;317,66849
847,10737;315,44211
845,05626;302,98859
843,00516;290,19376
840,95405;283,16415
838,90294;288,6936
836,85183;301,95926
834,80073;305,64658
832,74962;301,6799
830,69851;303,91586
828,6474;316,4343
826,5963;332,04501
824,54519;333,44366
822,49408;319,17926
820,44297;305,66425
818,39187;301,23584
816,34076;306,2468
814,28965;315,59729
812,23854;321,75623
810,18744;326,81668
808,13633;336,55215
806,08522;351,56131
804,03411;367,81012
801,98301;360,85324
799,9319;331,99704
797,88079;315,11469
795,82969;320,01071
793,77858;334,76385
791,72747;345,38153
789,67636;349,35712
787,62526;359,61542
785,57415;379,65295
783,52304;384,51993
781,47193;375,82983
779,42083;384,53442
777,36972;400,73523
775,31861;402,43643
773,2675;402,70059
771,2164;405,10504
769,16529;399,72882
767,11418;389,46124
765,06307;396,2662
763,01197;414,02939
760,96086;413,51233
758,90975;416,76743
756,85864;436,13986
754,80754;427,17181
752,75643;392,42474
750,70532;371,54749
748,65421;377,23471
746,60311;406,88177
744,552;427,31073
742,50089;428,54279
740,44978;432,87466
738,39868;423,06412
736,34757;401,048
734,29646;398,94116
732,24535;408,24084
730,19425;403,85901
728,14314;400,74472
726,09203;411,57422
724,04092;429,46371
721,98982;447,83844
719,93871;462,06335
717,8876;476,81351
715,8365;496,19803
713,78539;500,7377
711,73428;493,04391
709,68317;484,18979
707,63207;463,55728
705,58096;435,04282
703,52985;412,61655
701,47874;400,47437
699,42764;395,65607
697,37653;387,74509
695,32542;378,34891
693,27431;376,10431
691,22321;376,93185
689,1721;371,90527
687,12099;366,74823
685,06988;367,06754
683,01878;358,93478
680,96767;334,65543
678,91656;316,36407
676,86545;312,10651
674,81435;305,34503
672,76324;294,77225
670,71213;285,05688
668,66102;275,12271
666,60992;273,11356
664,55881;283,42236
662,5077;299,69638
660,45659;305,63376
658,40549;292,84357
656,35438;277,96588
654,30327;269,87057
652,25216;261,61334
650,20106;250,05066
648,14995;240,09282
646,09884;240,70677
644,04773;253,08345
641,99663;263,33835
639,94552;263,31644
637,89441;260,30182
635,84331;257,79645
633,7922;255,00449
631,74109;253,43184
629,68998;254,83177
627,63888;256,62164
625,58777;248,72075
623,53666;236,74146
621,48555;236,91023
619,43445;245,69209
617,38334;248,72397
615,33223;243,50941
613,28112;241,13745
611,23002;246,87584
609,17891;253,32068
607,1278;252,90521
605,07669;249,423
603,02559;255,74132
600,97448;264,55063
598,92337;259,81097
596,87226;254,43932
594,82116;250,32576
592,77005;242,99374
590,71894;236,01297
588,66783;227,02579
586,61673;206,55067
584,56562;178,39143
582,51451;158,02982
580,4634;150,77498
578,4123;148,90767
576,36119;144,89003
574,31008;138,12627
572,25897;133,0179
570,20787;131,59753
568,15676;129,82654
566,10565;126,83596
564,05454;126,09172
562,00344;128,59628
559,95233;133,11786
557,90122;135,23018
555,85012;134,04085
553,79901;133,76773
551,7479;134,64246
549,69679;136,29448
547,64569;139,04591
545,59458;139,98322
543,54347;139,9137
541,49236;144,05602
539,44126;148,24568
537,39015;147,10799
535,33904;147,71028
533,28793;150,15327
531,23683;148,70543
529,18572;145,59906
527,13461;141,20363
525,0835;133,77443
523,0324;125,57664
520,98129;118,15085
518,93018;110,57729
516,87907;104,09616
514,82797;99,89983
512,77686;96,65836
510,72575;93,42593
508,67464;90,9468
506,62354;88,83376
504,57243;85,58252
502,52132;81,2897
500,47021;76,53102
498,41911;72,51873
496,368;70,45979
494,31689;69,43803
492,26578;68,03653
490,21468;66,80672
488,16357;65,95637
486,11246;64,80423
484,06135;63,91327
482,01025;63,43278
479,95914;62,77052
477,90803;62,47669
475,85693;62,85199
473,80582;62,79831
471,75471;61,71188
469,7036;60,55137
467,6525;59,93576
465,60139;60,33334
463,55028;62,42482
461,49917;64,87601
459,44807;65,75697
457,39696;65,75473
455,34585;66,49181
453,29474;67,84438
451,24364;68,86279
449,19253;69,52889
447,14142;69,45956
445,09031;69,10667
443,03921;69,91582
440,9881;69,93764
438,93699;67,71365
436,88588;65,32914
434,83478;64,16568
432,78367;64,43547
430,73256;66,1378
428,68145;67,43365
426,63035;65,31392
424,57924;59,89567
422,52813;54,06673
420,47702;49,92513
418,42592;48,79435
416,37481;49,98733
414,3237;50,80566
412,27259;51,02512
410,22149;51,8698
408,17038;52,77285
406,11927;52,98675
404,06816;54,36877
402,01706;58,92567
399,96595;66,07892
