5997,43814;10,29084
5995,38704;10,23616
5993,33593;10,17375
5991,28482;10,10025
5989,23371;10,04072
5987,18261;10,09534
5985,1315;10,19942
5983,08039;10,25331
5981,02928;10,27501
5978,97818;10,24665
5976,92707;10,18971
5974,87596;10,18705
5972,82485;10,2466
5970,77375;10,29191
5968,72264;10,2393
5966,67153;10,14013
5964,62042;10,1251
5962,56932;10,20641
5960,51821;10,30336
5958,4671;10,32333
5956,41599;10,23918
5954,36489;10,1616
5952,31378;10,20846
5950,26267;10,34714
5948,21156;10,43134
5946,16046;10,4105
5944,10935;10,38118
5942,05824;10,40536
5940,00713;10,43447
5937,95603;10,43029
5935,90492;10,41117
5933,85381;10,35028
5931,80271;10,28337
5929,7516;10,28896
5927,70049;10,36705
5925,64938;10,50457
5923,59828;10,55571
5921,54717;10,47002
5919,49606;10,46556
5917,44495;10,57505
5915,39385;10,64607
5913,34274;10,61984
5911,29163;10,60712
5909,24052;10,70325
5907,18942;10,80666
5905,13831;10,83497
5903,0872;10,82633
5901,03609;10,81925
5898,98499;10,8413
5896,93388;10,86537
5894,88277;10,82613
5892,83166;10,73483
5890,78056;10,68948
5888,72945;10,69961
5886,67834;10,69938
5884,62723;10,72187
5882,57613;10,80451
5880,52502;10,91501
5878,47391;10,98567
5876,4228;10,97664
5874,3717;10,96402
5872,32059;11,00166
5870,26948;11,04048
5868,21837;11,05474
5866,16727;11,03232
5864,11616;10,96856
5862,06505;10,95987
5860,01394;11,02575
5857,96284;11,07496
5855,91173;11,14097
5853,86062;11,25235
5851,80952;11,29413
5849,75841;11,26411
5847,7073;11,27916
5845,65619;11,30994
5843,60509;11,30362
5841,55398;11,31954
5839,50287;11,38386
5837,45176;11,45142
5835,40066;11,44664
5833,34955;11,39166
5831,29844;11,42905
5829,24733;11,54458
5827,19623;11,56367
5825,14512;11,47086
5823,09401;11,39515
5821,0429;11,37128
5818,9918;11,37301
5816,94069;11,45273
5814,88958;11,61212
5812,83847;11,69475
5810,78737;11,6169
5808,73626;11,54835
5806,68515;11,61192
5804,63404;11,69176
5802,58294;11,70051
5800,53183;11,65019
5798,48072;11,59623
5796,42961;11,59561
5794,37851;11,59363
5792,3274;11,55312
5790,27629;11,5325
5788,22518;11,57201
5786,17408;11,66706
5784,12297;11,76266
5782,07186;11,78164
5780,02075;11,76687
5777,96965;11,75727
5775,91854;11,6439
5773,86743;11,47146
5771,81633;11,3854
5769,76522;11,3579
5767,71411;11,35297
5765,663;11,35774
5763,6119;11,33934
5761,56079;11,33237
5759,50968;11,36012
5757,45857;11,37397
5755,40747;11,30454
5753,35636;11,19976
5751,30525;11,19786
5749,25414;11,27194
5747,20304;11,27117
5745,15193;11,17904
5743,10082;11,11646
5741,04971;11,15874
5738,99861;11,20844
5736,9475;11,15873
5734,89639;11,08269
5732,84528;11,03093
5730,79418;10,94742
5728,74307;10,88299
5726,69196;10,94494
5724,64085;11,09354
5722,58975;11,22049
5720,53864;11,28497
5718,48753;11,27005
5716,43642;11,21022
5714,38532;11,19091
5712,33421;11,18705
5710,2831;11,17738
5708,23199;11,19228
5706,18089;11,19009
5704,12978;11,1667
5702,07867;11,14387
5700,02756;11,14178
5697,97646;11,16343
5695,92535;11,22897
5693,87424;11,36597
5691,82314;11,46991
5689,77203;11,44789
5687,72092;11,3433
5685,66981;11,27755
5683,61871;11,3326
5681,5676;11,41851
5679,51649;11,3847
5677,46538;11,28146
5675,41428;11,23543
5673,36317;11,25881
5671,31206;11,30663
5669,26095;11,30316
5667,20985;11,26372
5665,15874;11,23311
5663,10763;11,24883
5661,05652;11,32308
5659,00542;11,30771
5656,95431;11,20627
5654,9032;11,17819
5652,85209;11,20795
5650,80099;11,18289
5648,74988;11,09365
5646,69877;11,04106
5644,64766;11,0455
5642,59656;11,03531
5640,54545;11,00118
5638,49434;10,96756
5636,44323;10,95572
5634,39213;10,97787
5632,34102;10,96308
5630,28991;10,90799
5628,2388;10,91873
5626,1877;10,9707
5624,13659;10,96993
5622,08548;10,94197
5620,03437;10,94654
5617,98327;10,95707
5615,93216;10,93376
5613,88105;10,89849
5611,82995;10,90185
5609,77884;10,93426
5607,72773;10,92469
5605,67662;10,89961
5603,62552;10,91691
5601,57441;10,91868
5599,5233;10,87791
5597,47219;10,86612
5595,42109;10,90217
5593,36998;10,93225
5591,31887;10,92848
5589,26776;10,90418
5587,21666;10,88026
5585,16555;10,88206
5583,11444;10,89546
5581,06333;10,89357
5579,01223;10,89066
5576,96112;10,89947
5574,91001;10,91823
5572,8589;10,931
5570,8078;10,91157
5568,75669;10,8661
5566,70558;10,84127
5564,65447;10,85026
5562,60337;10,86137
5560,55226;10,8786
5558,50115;10,92832
5556,45004;10,98363
5554,39894;10,98545
5552,34783;10,92972
5550,29672;10,86982
5548,24561;10,86818
5546,19451;10,90475
5544,1434;10,89969
5542,09229;10,8566
5540,04118;10,84981
5537,99008;10,89917
5535,93897;10,91491
5533,88786;10,84483
5531,83676;10,76717
5529,78565;10,76067
5527,73454;10,8237
5525,68343;10,91171
5523,63233;10,96925
5521,58122;10,95727
5519,53011;10,91103
5517,479;10,87457
5515,4279;10,85691
5513,37679;10,87613
5511,32568;10,89711
5509,27457;10,8704
5507,22347;10,86882
5505,17236;10,9645
5503,12125;11,05227
5501,07014;11,04635
5499,01904;11,0045
5496,96793;10,9333
5494,91682;10,84402
5492,86571;10,80978
5490,81461;10,84645
5488,7635;10,90475
5486,71239;10,93237
5484,66128;10,91603
5482,61018;10,88058
5480,55907;10,86877
5478,50796;10,8823
5476,45685;10,88987
5474,40575;10,8509
5472,35464;10,7918
5470,30353;10,77384
5468,25242;10,79827
5466,20132;10,85521
5464,15021;10,90423
5462,0991;10,91542
5460,04799;10,90558
5457,99689;10,87854
5455,94578;10,84748
5453,89467;10,84181
5451,84357;10,85863
5449,79246;10,8464
5447,74135;10,82058
5445,69024;10,86646
5443,63914;10,97037
5441,58803;11,05139
5439,53692;11,03075
5437,48581;10,94101
5435,43471;10,86178
5433,3836;10,79096
5431,33249;10,75872
5429,28138;10,75925
5427,23028;10,73995
5425,17917;10,74951
5423,12806;10,7914
5421,07695;10,80438
5419,02585;10,80436
5416,97474;10,82229
5414,92363;10,84049
5412,87252;10,82984
5410,82142;10,813
5408,77031;10,80975
5406,7192;10,82117
5404,66809;10,84992
5402,61699;10,88701
5400,56588;10,92378
5398,51477;10,90591
5396,46366;10,82445
5394,41256;10,77279
5392,36145;10,78682
5390,31034;10,83989
5388,25923;10,9027
5386,20813;10,94839
5384,15702;10,95783
5382,10591;10,92818
5380,0548;10,9021
5378,0037;10,92318
5375,95259;10,95711
5373,90148;10,95666
5371,85038;10,93804
5369,79927;10,92814
5367,74816;10,93375
5365,69705;10,96475
5363,64595;11,00795
5361,59484;11,0232
5359,54373;11,01294
5357,49262;10,99909
5355,44152;11,00504
5353,39041;11,00509
5351,3393;10,97566
5349,28819;10,9643
5347,23709;10,95842
5345,18598;10,94035
5343,13487;10,92026
5341,08376;10,93952
5339,03266;11,01106
5336,98155;11,07179
5334,93044;11,12715
5332,87933;11,17922
5330,82823;11,19159
5328,77712;11,21825
5326,72601;11,26095
5324,6749;11,26002
5322,6238;11,2215
5320,57269;11,17122
5318,52158;11,17117
5316,47047;11,22477
5314,41937;11,26577
5312,36826;11,28734
5310,31715;11,29956
5308,26604;11,29648
5306,21494;11,30058
5304,16383;11,31794
5302,11272;11,33565
5300,06161;11,38493
5298,01051;11,4522
5295,9594;11,46613
5293,90829;11,42105
5291,85719;11,37525
5289,80608;11,36286
5287,75497;11,41238
5285,70386;11,52404
5283,65276;11,59322
5281,60165;11,62133
5279,55054;11,69765
5277,49943;11,76241
5275,44833;11,74266
5273,39722;11,72389
5271,34611;11,77417
5269,295;11,81592
5267,2439;11,8239
5265,19279;11,86737
5263,14168;11,91672
5261,09057;11,95009
5259,03947;11,98669
5256,98836;11,99894
5254,93725;11,99325
5252,88614;12,00604
5250,83504;12,06701
5248,78393;12,13174
5246,73282;12,17303
5244,68171;12,24646
5242,63061;12,31373
5240,5795;12,36884
5238,52839;12,44643
5236,47728;12,5011
5234,42618;12,5168
5232,37507;12,49411
5230,32396;12,44004
5228,27285;12,41887
5226,22175;12,47191
5224,17064;12,56032
5222,11953;12,6552
5220,06842;12,70263
5218,01732;12,67191
5215,96621;12,63738
5213,9151;12,64958
5211,864;12,70363
5209,81289;12,75889
5207,76178;12,75801
5205,71067;12,72912
5203,65957;12,74489
5201,60846;12,80663
5199,55735;12,87861
5197,50624;12,93607
5195,45514;12,94141
5193,40403;12,89772
5191,35292;12,84182
5189,30181;12,82959
5187,25071;12,88742
5185,1996;12,9336
5183,14849;12,93338
5181,09738;12,93202
5179,04628;12,92668
5176,99517;12,93163
5174,94406;12,95768
5172,89295;12,99056
5170,84185;13,02027
5168,79074;13,03736
5166,73963;13,06368
5164,68852;13,07496
5162,63742;13,041
5160,58631;13,04931
5158,5352;13,10664
5156,48409;13,11066
5154,43299;13,06156
5152,38188;13,01149
5150,33077;12,98326
5148,27966;12,98358
5146,22856;13,02472
5144,17745;13,0844
5142,12634;13,09233
5140,07523;13,05062
5138,02413;13,03412
5135,97302;13,05459
5133,92191;13,07485
5131,87081;13,09003
5129,8197;13,07673
5127,76859;13,03013
5125,71748;13,03799
5123,66638;13,0968
5121,61527;13,09649
5119,56416;13,03531
5117,51305;12,98601
5115,46195;12,98347
5113,41084;12,99337
5111,35973;12,97305
5109,30862;12,96851
5107,25752;13,00519
5105,20641;13,0156
5103,1553;12,97759
5101,10419;12,95632
5099,05309;12,97092
5097,00198;12,98387
5094,95087;12,98736
5092,89976;12,97291
5090,84866;12,93642
5088,79755;12,90592
5086,74644;12,90874
5084,69533;12,91919
5082,64423;12,88785
5080,59312;12,86555
5078,54201;12,88802
5076,4909;12,8926
5074,4398;12,87109
5072,38869;12,84334
5070,33758;12,81282
5068,28647;12,81728
5066,23537;12,87707
5064,18426;12,952
5062,13315;12,97285
5060,08204;12,9199
5058,03094;12,86101
5055,97983;12,85694
5053,92872;12,90011
5051,87762;12,95406
5049,82651;12,98082
5047,7754;12,97659
5045,72429;12,96225
5043,67319;12,93263
5041,62208;12,88511
5039,57097;12,86
5037,51986;12,88005
5035,46876;12,89338
5033,41765;12,87234
5031,36654;12,85841
5029,31543;12,84444
5027,26433;12,80692
5025,21322;12,78919
5023,16211;12,81319
5021,111;12,84161
5019,0599;12,84932
5017,00879;12,83938
5014,95768;12,81322
5012,90657;12,77417
5010,85547;12,73809
5008,80436;12,73169
5006,75325;12,75957
5004,70214;12,78678
5002,65104;12,78652
5000,59993;12,77529
4998,54882;12,795
4996,49771;12,83549
4994,44661;12,82357
4992,3955;12,7578
4990,34439;12,71612
4988,29328;12,6987
4986,24218;12,66314
4984,19107;12,65462
4982,13996;12,67518
4980,08885;12,68039
4978,03775;12,68232
4975,98664;12,68261
4973,93553;12,66179
4971,88443;12,62727
4969,83332;12,62186
4967,78221;12,6488
4965,7311;12,65843
4963,68;12,62597
4961,62889;12,58632
4959,57778;12,59411
4957,52667;12,63034
4955,47557;12,63606
4953,42446;12,61757
4951,37335;12,58953
4949,32224;12,54403
4947,27114;12,52003
4945,22003;12,5496
4943,16892;12,60851
4941,11781;12,65346
4939,06671;12,65483
4937,0156;12,63108
4934,96449;12,61292
4932,91338;12,60535
4930,86228;12,62216
4928,81117;12,65697
4926,76006;12,66359
4924,70895;12,6271
4922,65785;12,59563
4920,60674;12,61189
4918,55563;12,6371
4916,50452;12,65724
4914,45342;12,68792
4912,40231;12,67854
4910,3512;12,64632
4908,30009;12,65867
4906,24899;12,69811
4904,19788;12,71039
4902,14677;12,6844
4900,09566;12,64314
4898,04456;12,60506
4895,99345;12,60432
4893,94234;12,6529
4891,89124;12,70808
4889,84013;12,75392
4887,78902;12,78394
4885,73791;12,78203
4883,68681;12,79458
4881,6357;12,84309
4879,58459;12,8705
4877,53348;12,85573
4875,48238;12,84805
4873,43127;12,88071
4871,38016;12,89642
4869,32905;12,85289
4867,27795;12,80745
4865,22684;12,77971
4863,17573;12,74446
4861,12462;12,74862
4859,07352;12,82552
4857,02241;12,88134
4854,9713;12,84465
4852,92019;12,78784
4850,86909;12,75774
4848,81798;12,74214
4846,76687;12,75093
4844,71576;12,75028
4842,66466;12,70853
4840,61355;12,65682
4838,56244;12,62063
4836,51133;12,60525
4834,46023;12,60889
4832,40912;12,6168
4830,35801;12,59781
4828,3069;12,576
4826,2558;12,60169
4824,20469;12,62288
4822,15358;12,60332
4820,10247;12,58308
4818,05137;12,57855
4816,00026;12,57044
4813,94915;12,54888
4811,89805;12,54449
4809,84694;12,55555
4807,79583;12,5475
4805,74472;12,51577
4803,69362;12,4855
4801,64251;12,47575
4799,5914;12,48225
4797,54029;12,48726
4795,48919;12,4723
4793,43808;12,46059
4791,38697;12,46603
4789,33586;12,45952
4787,28476;12,4309
4785,23365;12,41636
4783,18254;12,42748
4781,13143;12,42722
4779,08033;12,42234
4777,02922;12,42756
4774,97811;12,44641
4772,927;12,47875
4770,8759;12,48351
4768,82479;12,47169
4766,77368;12,49586
4764,72257;12,52985
4762,67147;12,52121
4760,62036;12,50432
4758,56925;12,5274
4756,51814;12,54562
4754,46704;12,54151
4752,41593;12,56532
4750,36482;12,59071
4748,31371;12,56339
4746,26261;12,51383
4744,2115;12,49735
4742,16039;12,51371
4740,10928;12,5445
4738,05818;12,57451
4736,00707;12,57756
4733,95596;12,58159
4731,90486;12,62022
4729,85375;12,65872
4727,80264;12,6706
4725,75153;12,66156
4723,70043;12,63462
4721,64932;12,60405
4719,59821;12,60946
4717,5471;12,65898
4715,496;12,68937
4713,44489;12,67338
4711,39378;12,66793
4709,34267;12,70052
4707,29157;12,73011
4705,24046;12,74293
4703,18935;12,74868
4701,13824;12,73224
4699,08714;12,726
4697,03603;12,75989
4694,98492;12,78585
4692,93381;12,79153
4690,88271;12,81855
4688,8316;12,85133
4686,78049;12,8537
4684,72938;12,85804
4682,67828;12,89566
4680,62717;12,92131
4678,57606;12,92741
4676,52495;12,94521
4674,47385;12,95398
4672,42274;12,95517
4670,37163;12,96179
4668,32052;12,98042
4666,26942;13,02521
4664,21831;13,06321
4662,1672;13,05216
4660,11609;13,01215
4658,06499;12,97408
4656,01388;12,95179
4653,96277;12,99072
4651,91167;13,07348
4649,86056;13,10324
4647,80945;13,07195
4645,75834;13,03866
4643,70724;13,02961
4641,65613;13,06183
4639,60502;13,10347
4637,55391;13,10714
4635,50281;13,09959
4633,4517;13,10078
4631,40059;13,09069
4629,34948;13,07239
4627,29838;13,08093
4625,24727;13,11658
4623,19616;13,1321
4621,14505;13,10464
4619,09395;13,07723
4617,04284;13,10356
4614,99173;13,15362
4612,94062;13,15107
4610,88952;13,11153
4608,83841;13,11946
4606,7873;13,17301
4604,73619;13,19846
4602,68509;13,16938
4600,63398;13,12672
4598,58287;13,10097
4596,53176;13,08859
4594,48066;13,0927
4592,42955;13,10883
4590,37844;13,11833
4588,32733;13,12194
4586,27623;13,13816
4584,22512;13,15724
4582,17401;13,1503
4580,1229;13,12213
4578,0718;13,10339
4576,02069;13,10962
4573,96958;13,13622
4571,91848;13,1674
4569,86737;13,18124
4567,81626;13,16777
4565,76515;13,13625
4563,71405;13,10945
4561,66294;13,11085
4559,61183;13,12061
4557,56072;13,11072
4555,50962;13,10381
4553,45851;13,10438
4551,4074;13,1094
4549,35629;13,12377
4547,30519;13,13778
4545,25408;13,14983
4543,20297;13,1552
4541,15186;13,1601
4539,10076;13,15165
4537,04965;13,13077
4534,99854;13,14029
4532,94743;13,17921
4530,89633;13,21826
4528,84522;13,22548
4526,79411;13,1927
4524,743;13,17942
4522,6919;13,22357
4520,64079;13,28738
4518,58968;13,3223
4516,53857;13,318
4514,48747;13,31665
4512,43636;13,35214
4510,38525;13,39377
4508,33414;13,40319
4506,28304;13,3802
4504,23193;13,35154
4502,18082;13,34796
4500,12971;13,36628
4498,07861;13,3777
4496,0275;13,36777
4493,97639;13,35385
4491,92529;13,37166
4489,87418;13,42681
4487,82307;13,4827
4485,77196;13,50563
4483,72086;13,50724
4481,66975;13,52867
4479,61864;13,58533
4477,56753;13,65673
4475,51643;13,71116
4473,46532;13,74218
4471,41421;13,77268
4469,3631;13,78549
4467,312;13,78186
4465,26089;13,83046
4463,20978;13,91098
4461,15867;13,95143
4459,10757;13,98161
4457,05646;14,04709
4455,00535;14,12386
4452,95424;14,1847
4450,90314;14,25007
4448,85203;14,32712
4446,80092;14,37583
4444,74981;14,39991
4442,69871;14,45774
4440,6476;14,555
4438,59649;14,6343
4436,54538;14,67017
4434,49428;14,70566
4432,44317;14,78496
4430,39206;14,88565
4428,34095;14,95182
4426,28985;14,9796
4424,23874;15,01358
4422,18763;15,08919
4420,13652;15,20698
4418,08542;15,31588
4416,03431;15,36372
4413,9832;15,39802
4411,9321;15,47273
4409,88099;15,57262
4407,82988;15,71073
4405,77877;15,85589
4403,72767;15,92867
4401,67656;15,93051
4399,62545;15,92883
4397,57434;15,98891
4395,52324;16,09858
4393,47213;16,18514
4391,42102;16,2073
4389,36991;16,2104
4387,31881;16,28183
4385,2677;16,41782
4383,21659;16,53944
4381,16548;16,61702
4379,11438;16,67279
4377,06327;16,7218
4375,01216;16,78029
4372,96105;16,87847
4370,90995;17,00653
4368,85884;17,13454
4366,80773;17,27552
4364,75662;17,42477
4362,70552;17,53553
4360,65441;17,62584
4358,6033;17,75942
4356,55219;17,9353
4354,50109;18,1091
4352,44998;18,2578
4350,39887;18,42673
4348,34776;18,66078
4346,29666;18,9292
4344,24555;19,16613
4342,19444;19,324
4340,14333;19,4495
4338,09223;19,61697
4336,04112;19,81049
4333,99001;19,96932
4331,93891;20,06119
4329,8878;20,05398
4327,83669;19,93093
4325,78558;19,73228
4323,73448;19,48414
4321,68337;19,21191
4319,63226;18,95067
4317,58115;18,6871
4315,53005;18,43179
4313,47894;18,24102
4311,42783;18,10153
4309,37672;17,9961
4307,32562;17,96263
4305,27451;17,96673
4303,2234;17,94205
4301,17229;17,9124
4299,12119;17,89784
4297,07008;17,86323
4295,01897;17,83459
4292,96786;17,87081
4290,91676;17,93627
4288,86565;17,95856
4286,81454;17,97809
4284,76343;18,06614
4282,71233;18,19742
4280,66122;18,33174
4278,61011;18,47206
4276,559;18,61741
4274,5079;18,752
4272,45679;18,90487
4270,40568;19,12009
4268,35457;19,36279
4266,30347;19,54379
4264,25236;19,64043
4262,20125;19,72208
4260,15014;19,81822
4258,09904;19,84593
4256,04793;19,75639
4253,99682;19,62458
4251,94572;19,45245
4249,89461;19,19729
4247,8435;18,91949
4245,79239;18,6781
4243,74129;18,50174
4241,69018;18,38062
4239,63907;18,26673
4237,58796;18,17241
4235,53686;18,13712
4233,48575;18,13963
4231,43464;18,14956
4229,38353;18,15096
4227,33243;18,12222
4225,28132;18,08765
4223,23021;18,07499
4221,1791;18,06628
4219,128;18,07722
4217,07689;18,12705
4215,02578;18,17407
4212,97467;18,16513
4210,92357;18,10525
4208,87246;18,0761
4206,82135;18,10314
4204,77024;18,13831
4202,71914;18,18869
4200,66803;18,26364
4198,61692;18,31478
4196,56581;18,31186
4194,51471;18,29628
4192,4636;18,29766
4190,41249;18,29012
4188,36138;18,27731
4186,31028;18,30841
4184,25917;18,36389
4182,20806;18,34309
4180,15695;18,26523
4178,10585;18,23003
4176,05474;18,24398
4174,00363;18,28414
4171,95253;18,33788
4169,90142;18,37493
4167,85031;18,36282
4165,7992;18,32428
4163,7481;18,29605
4161,69699;18,27199
4159,64588;18,25346
4157,59477;18,23051
4155,54367;18,19699
4153,49256;18,16932
4151,44145;18,13645
4149,39034;18,09629
4147,33924;18,1012
4145,28813;18,14428
4143,23702;18,14041
4141,18591;18,10472
4139,13481;18,10855
4137,0837;18,1381
4135,03259;18,14399
4132,98148;18,12556
4130,93038;18,1017
4128,87927;18,07671
4126,82816;18,06067
4124,77705;18,05118
4122,72595;18,05873
4120,67484;18,08473
4118,62373;18,08823
4116,57262;18,07395
4114,52152;18,08505
4112,47041;18,10893
4110,4193;18,10754
4108,36819;18,09337
4106,31709;18,11077
4104,26598;18,17601
4102,21487;18,24165
4100,16376;18,26761
4098,11266;18,25266
4096,06155;18,202
4094,01044;18,16253
4091,95934;18,15998
4089,90823;18,16262
4087,85712;18,17805
4085,80601;18,2361
4083,75491;18,3039
4081,7038;18,3215
4079,65269;18,29067
4077,60158;18,27474
4075,55048;18,30901
4073,49937;18,3707
4071,44826;18,41688
4069,39715;18,4368
4067,34605;18,46194
4065,29494;18,4933
4063,24383;18,50416
4061,19272;18,50084
4059,14162;18,49367
4057,09051;18,4788
4055,0394;18,48154
4052,98829;18,51329
4050,93719;18,54013
4048,88608;18,54719
4046,83497;18,5547
4044,78386;18,58443
4042,73276;18,62798
4040,68165;18,65253
4038,63054;18,65233
4036,57943;18,63835
4034,52833;18,60816
4032,47722;18,58546
4030,42611;18,58624
4028,375;18,60054
4026,3239;18,62688
4024,27279;18,65376
4022,22168;18,67101
4020,17057;18,66084
4018,11947;18,61965
4016,06836;18,59657
4014,01725;18,61133
4011,96615;18,61221
4009,91504;18,60079
4007,86393;18,6384
4005,81282;18,70402
4003,76172;18,71297
4001,71061;18,66642
3999,6595;18,64643
3997,60839;18,67597
3995,55729;18,72646
3993,50618;18,75277
3991,45507;18,75852
3989,40396;18,77774
3987,35286;18,80427
3985,30175;18,81179
3983,25064;18,80307
3981,19953;18,79664
3979,14843;18,81099
3977,09732;18,84788
3975,04621;18,86033
3972,9951;18,84381
3970,944;18,83972
3968,89289;18,83208
3966,84178;18,7955
3964,79067;18,76596
3962,73957;18,78249
3960,68846;18,82714
3958,63735;18,87011
3956,58624;18,8958
3954,53514;18,89127
3952,48403;18,86584
3950,43292;18,86154
3948,38181;18,8844
3946,33071;18,89803
3944,2796;18,91578
3942,22849;18,9335
3940,17738;18,93949
3938,12628;18,95023
3936,07517;18,94882
3934,02406;18,92481
3931,97296;18,8469
3929,92185;18,71626
3927,87074;18,6038
3925,81963;18,52068
3923,76853;18,42507
3921,71742;18,36308
3919,66631;18,34078
3917,6152;18,25785
3915,5641;18,12222
3913,51299;18,04982
3911,46188;18,03989
3909,41077;18,00003
3907,35967;17,93148
3905,30856;17,86488
3903,25745;17,7931
3901,20634;17,77257
3899,15524;17,78883
3897,10413;17,75808
3895,05302;17,73964
3893,00191;17,75953
3890,95081;17,7158
3888,8997;17,63659
3886,84859;17,63688
3884,79748;17,59951
3882,74638;17,53491
3880,69527;17,53063
3878,64416;17,49678
3876,59305;17,51726
3874,54195;17,58683
3872,49084;17,5912
3870,43973;17,56749
3868,38862;17,48195
3866,33752;17,41868
3864,28641;17,41848
3862,2353;17,40582
3860,18419;17,37214
3858,13309;17,32313
3856,08198;17,33521
3854,03087;17,37884
3851,97977;17,28219
3849,92866;17,1927
3847,87755;17,20281
3845,82644;17,21583
3843,77534;17,18995
3841,72423;17,16072
3839,67312;17,17464
3837,62201;17,17086
3835,57091;17,14196
3833,5198;17,17265
3831,46869;17,2091
3829,41758;17,20455
3827,36648;17,19603
3825,31537;17,15248
3823,26426;17,1387
3821,21315;17,11935
3819,16205;17,03176
3817,11094;17,10497
3815,05983;17,21108
3813,00872;17,21189
3810,95762;17,23127
3808,90651;17,28572
3806,8554;17,27856
3804,80429;17,20933
3802,75319;17,25447
3800,70208;17,2882
3798,65097;17,25677
3796,59986;17,3032
3794,54876;17,35864
3792,49765;17,39936
3790,44654;17,42783
3788,39543;17,44179
3786,34433;17,45817
3784,29322;17,4435
3782,24211;17,42545
3780,191;17,4765
3778,1399;17,54419
3776,08879;17,5941
3774,03768;17,61481
3771,98658;17,61083
3769,93547;17,61858
3767,88436;17,65112
3765,83325;17,70994
3763,78215;17,73714
3761,73104;17,77201
3759,67993;17,79826
3757,62882;17,74984
3755,57772;17,70778
3753,52661;17,73574
3751,4755;17,77785
3749,42439;17,77023
3747,37329;17,83734
3745,32218;18,08606
3743,27107;18,27879
3741,21996;18,36635
3739,16886;18,48624
3737,11775;18,59667
3735,06664;18,65679
3733,01553;18,71491
3730,96443;18,79761
3728,91332;18,91031
3726,86221;19,04547
3724,8111;19,13895
3722,76;19,25462
3720,70889;19,41539
3718,65778;19,5357
3716,60667;19,57459
3714,55557;19,61205
3712,50446;19,7244
3710,45335;19,89876
3708,40224;20,13753
3706,35114;20,41577
3704,30003;20,74125
3702,24892;21,18301
3700,19781;21,73103
3698,14671;22,32585
3696,0956;22,8598
3694,04449;23,22334
3691,99338;23,47423
3689,94228;23,71491
3687,89117;23,91895
3685,84006;24,09531
3683,78896;24,32404
3681,73785;24,54401
3679,68674;24,74917
3677,63563;25,15585
3675,58453;25,78168
3673,53342;26,31834
3671,48231;26,97124
3669,4312;27,73474
3667,3801;28,33978
3665,32899;28,98905
3663,27788;29,70069
3661,22677;30,36182
3659,17567;31,1294
3657,12456;32,08561
3655,07345;32,8789
3653,02234;33,51531
3650,97124;34,48571
3648,92013;35,90548
3646,86902;37,40652
3644,81791;38,58661
3642,76681;39,45421
3640,7157;40,10845
3638,66459;40,61947
3636,61348;41,12289
3634,56238;41,70442
3632,51127;42,37067
3630,46016;43,41169
3628,40905;44,6505
3626,35795;45,31705
3624,30684;45,57013
3622,25573;45,84186
3620,20462;46,45631
3618,15352;47,44449
3616,10241;48,60733
3614,0513;49,7951
3612,00019;50,81621
3609,94909;51,7181
3607,89798;52,40203
3605,84687;52,87825
3603,79577;53,60521
3601,74466;54,54546
3599,69355;55,27367
3597,64244;55,82497
3595,59134;56,59401
3593,54023;57,49648
3591,48912;58,16181
3589,43801;58,7844
3587,38691;59,73659
3585,3358;60,92309
3583,28469;61,96917
3581,23358;62,63769
3579,18248;63,00146
3577,13137;63,3688
3575,08026;64,04315
3573,02915;64,92518
3570,97805;65,72085
3568,92694;66,3808
3566,87583;66,97997
3564,82472;67,78838
3562,77362;69,06447
3560,72251;70,48211
3558,6714;71,40218
3556,62029;71,71967
3554,56919;72,02843
3552,51808;72,60762
3550,46697;73,07803
3548,41586;73,41295
3546,36476;73,93452
3544,31365;74,61723
3542,26254;75,09113
3540,21143;75,19205
3538,16033;75,4612
3536,10922;76,46296
3534,05811;77,6125
3532,007;77,89497
3529,9559;77,52107
3527,90479;77,55897
3525,85368;78,58096
3523,80258;80,26178
3521,75147;81,73675
3519,70036;82,31373
3517,64925;82,06952
3515,59815;81,70953
3513,54704;81,80135
3511,49593;82,31549
3509,44482;82,7578
3507,39372;83,00812
3505,34261;83,72427
3503,2915;84,89305
3501,24039;85,60297
3499,18929;85,68721
3497,13818;85,86361
3495,08707;86,64507
3493,03596;87,74816
3490,98486;88,41225
3488,93375;88,25683
3486,88264;87,8183
3484,83153;87,83668
3482,78043;88,39271
3480,72932;89,1481
3478,67821;89,78564
3476,6271;90,20853
3474,576;90,33427
3472,52489;90,31498
3470,47378;90,4543
3468,42267;90,65208
3466,37157;90,88776
3464,32046;91,51007
3462,26935;92,3373
3460,21824;92,76064
3458,16714;92,54496
3456,11603;91,89278
3454,06492;91,60957
3452,01381;92,07792
3449,96271;92,98087
3447,9116;93,7021
3445,86049;93,34881
3443,80939;93,01665
3441,75828;94,25664
3439,70717;95,85281
3437,65606;96,20318
3435,60496;95,65686
3433,55385;95,05232
3431,50274;94,60071
3429,45163;94,38185
3427,40053;94,68795
3425,34942;95,16857
3423,29831;95,14929
3421,2472;95,17175
3419,1961;96,02297
3417,14499;97,18575
3415,09388;97,7106
3413,04277;97,9215
3410,99167;98,31573
3408,94056;98,49107
3406,88945;98,50541
3404,83834;98,16212
3402,78724;97,7259
3400,73613;98,47186
3398,68502;99,80147
3396,63391;99,96306
3394,58281;99,11843
3392,5317;98,56876
3390,48059;98,97691
3388,42948;100,23368
3386,37838;101,5871
3384,32727;102,12843
3382,27616;101,91652
3380,22505;101,73315
3378,17395;101,2981
3376,12284;100,54836
3374,07173;100,36089
3372,02062;100,38327
3369,96952;100,20014
3367,91841;100,51273
3365,8673;101,244
3363,8162;101,48344
3361,76509;101,27946
3359,71398;101,47377
3357,66287;102,31834
3355,61177;102,86635
3353,56066;102,44221
3351,50955;102,20263
3349,45844;102,93611
3347,40734;103,86005
3345,35623;104,35172
3343,30512;104,92561
3341,25401;105,76183
3339,20291;106,07314
3337,1518;105,64088
3335,10069;104,66783
3333,04958;103,58739
3330,99848;103,4278
3328,94737;104,63174
3326,89626;105,96988
3324,84515;106,04246
3322,79405;105,6091
3320,74294;105,70193
3318,69183;106,09667
3316,64072;106,56026
3314,58962;106,89719
3312,53851;107,0887
3310,4874;107,1664
3308,43629;107,07103
3306,38519;107,17131
3304,33408;107,57362
3302,28297;108,0997
3300,23186;108,38956
3298,18076;108,11755
3296,12965;107,50554
3294,07854;107,08329
3292,02743;107,47795
3289,97633;107,97502
3287,92522;107,58805
3285,87411;106,9217
3283,82301;106,63577
3281,7719;106,99268
3279,72079;107,80246
3277,66968;107,87273
3275,61858;106,84957
3273,56747;106,00233
3271,51636;105,63925
3269,46525;105,12138
3267,41415;104,58424
3265,36304;104,50132
3263,31193;104,48571
3261,26082;103,53398
3259,20972;102,38953
3257,15861;102,55206
3255,1075;102,84625
3253,05639;101,83124
3251,00529;100,83542
3248,95418;100,73201
3246,90307;100,79246
3244,85196;100,49057
3242,80086;99,91894
3240,74975;99,52474
3238,69864;99,04639
3236,64753;98,31853
3234,59643;97,86536
3232,54532;97,67209
3230,49421;97,77724
3228,4431;98,22677
3226,392;98,50058
3224,34089;98,33544
3222,28978;97,69614
3220,23867;96,93269
3218,18757;96,44814
3216,13646;95,79206
3214,08535;94,94724
3212,03424;94,64288
3209,98314;94,8867
3207,93203;95,11629
3205,88092;94,90907
3203,82982;94,11345
3201,77871;93,36586
3199,7276;92,97988
3197,67649;92,49339
3195,62539;92,30597
3193,57428;92,66802
3191,52317;92,63777
3189,47206;91,77097
3187,42096;90,78414
3185,36985;90,32701
3183,31874;90,55594
3181,26763;91,08807
3179,21653;91,16721
3177,16542;90,78941
3175,11431;90,48265
3173,0632;90,27576
3171,0121;89,98283
3168,96099;89,68339
3166,90988;89,26525
3164,85877;88,61939
3162,80767;87,83388
3160,75656;86,9696
3158,70545;86,66643
3156,65434;87,08185
3154,60324;87,32809
3152,55213;87,13078
3150,50102;86,67291
3148,44991;85,73181
3146,39881;84,80035
3144,3477;84,44935
3142,29659;84,0667
3140,24548;83,74244
3138,19438;84,14217
3136,14327;84,51081
3134,09216;84,15007
3132,04105;83,69995
3129,98995;83,33385
3127,93884;82,6228
3125,88773;82,00371
3123,83663;81,93632
3121,78552;82,08005
3119,73441;82,16467
3117,6833;81,88752
3115,6322;81,2204
3113,58109;81,21915
3111,52998;82,02354
3109,47887;82,39637
3107,42777;82,06145
3105,37666;81,54453
3103,32555;81,26916
3101,27444;81,51748
3099,22334;82,04296
3097,17223;82,45589
3095,12112;82,61003
3093,07001;82,49915
3091,01891;82,32488
3088,9678;82,08076
3086,91669;81,47335
3084,86558;80,9466
3082,81448;81,03061
3080,76337;81,35279
3078,71226;81,60725
3076,66115;81,70226
3074,61005;81,24571
3072,55894;80,42282
3070,50783;79,92594
3068,45672;79,94202
3066,40562;80,33049
3064,35451;80,71236
3062,3034;80,81111
3060,25229;80,89684
3058,20119;81,00816
3056,15008;80,68623
3054,09897;79,8601
3052,04786;79,21991
3049,99676;79,26639
3047,94565;79,5579
3045,89454;79,35621
3043,84344;78,73572
3041,79233;78,33932
3039,74122;78,57277
3037,69011;79,22277
3035,63901;79,62714
3033,5879;79,42313
3031,53679;78,92751
3029,48568;78,8238
3027,43458;79,00325
3025,38347;78,85492
3023,33236;78,66829
3021,28125;78,92447
3019,23015;79,54565
3017,17904;80,37351
3015,12793;81,36569
3013,07682;82,3986
3011,02572;83,31664
3008,97461;84,16677
3006,9235;84,92078
3004,87239;85,28412
3002,82129;85,09383
3000,77018;84,41345
2998,71907;83,45759
2996,66796;82,73503
2994,61686;82,80279
2992,56575;83,51032
2990,51464;84,25038
2988,46353;84,91182
2986,41243;85,9092
2984,36132;87,43903
2982,31021;88,89051
2980,2591;89,94134
2978,208;91,26765
2976,15689;93,27862
2974,10578;95,5785
2972,05467;97,93748
2970,00357;100,61655
2967,95246;103,53578
2965,90135;106,43189
2963,85025;109,11899
2961,79914;111,18728
2959,74803;111,97879
2957,69692;111,99743
2955,64582;112,21059
2953,59471;112,03264
2951,5436;111,46014
2949,49249;111,19041
2947,44139;111,4286
2945,39028;112,65405
2943,33917;115,15019
2941,28806;118,10184
2939,23696;120,3096
2937,18585;121,80352
2935,13474;122,77826
2933,08363;122,76542
2931,03253;121,64671
2928,98142;119,78761
2926,93031;118,44159
2924,8792;118,06194
2922,8281;117,07542
2920,77699;114,60785
2918,72588;112,16645
2916,67477;111,20369
2914,62367;110,62084
2912,57256;108,78687
2910,52145;106,51058
2908,47034;105,04633
2906,41924;104,33945
2904,36813;103,95191
2902,31702;103,36054
2900,26591;102,58613
2898,21481;102,11131
2896,1637;101,44337
2894,11259;100,21465
2892,06148;99,04588
2890,01038;98,02036
2887,95927;96,80447
2885,90816;95,84498
2883,85706;95,57665
2881,80595;95,71678
2879,75484;95,94505
2877,70373;96,06875
2875,65263;96,54694
2873,60152;97,5449
2871,55041;98,2681
2869,4993;99,19952
2867,4482;100,42912
2865,39709;101,10966
2863,34598;102,12631
2861,29487;104,13393
2859,24377;106,07692
2857,19266;107,21265
2855,14155;108,01509
2853,09044;107,91333
2851,03934;105,99326
2848,98823;103,11184
2846,93712;99,8731
2844,88601;96,28535
2842,83491;92,632
2840,7838;89,43594
2838,73269;86,81376
2836,68158;84,05563
2834,63048;81,00063
2832,57937;78,41784
2830,52826;76,62594
2828,47715;75,29183
2826,42605;74,18552
2824,37494;73,13929
2822,32383;71,99502
2820,27272;70,82948
2818,22162;69,68279
2816,17051;68,44917
2814,1194;67,23775
2812,06829;66,35041
2810,01719;65,77978
2807,96608;65,12453
2805,91497;64,11761
2803,86387;63,1879
2801,81276;62,72581
2799,76165;62,33854
2797,71054;61,67678
2795,65944;60,86674
2793,60833;60,19281
2791,55722;59,78813
2789,50611;59,48285
2787,45501;59,13412
2785,4039;58,63766
2783,35279;58,00098
2781,30168;57,46019
2779,25058;57,05012
2777,19947;56,73936
2775,14836;56,58095
2773,09725;56,4342
2771,04615;56,16177
2768,99504;55,75522
2766,94393;55,29915
2764,89282;55,01462
2762,84172;54,94722
2760,79061;54,83015
2758,7395;54,60227
2756,68839;54,41887
2754,63729;54,25044
2752,58618;53,97308
2750,53507;53,63096
2748,48396;53,46154
2746,43286;53,33723
2744,38175;52,96501
2742,33064;52,51493
2740,27953;52,24571
2738,22843;52,20888
2736,17732;52,25752
2734,12621;52,27105
2732,0751;52,23651
2730,024;52,05979
2727,97289;51,76819
2725,92178;51,48278
2723,87068;51,21961
2721,81957;50,97557
2719,76846;50,77066
2717,71735;50,63839
2715,66625;50,54825
2713,61514;50,3435
2711,56403;49,99546
2709,51292;49,69389
2707,46182;49,47485
2705,41071;49,22664
2703,3596;49,07579
2701,30849;49,07829
2699,25739;49,04483
2697,20628;49,01552
2695,15517;49,06697
2693,10406;49,15521
2691,05296;49,3316
2689,00185;49,49048
2686,95074;49,47931
2684,89963;49,37323
2682,84853;49,27577
2680,79742;49,25593
2678,74631;49,2398
2676,6952;49,10983
2674,6441;48,9351
2672,59299;48,77586
2670,54188;48,63929
2668,49077;48,50934
2666,43967;48,3269
2664,38856;48,06024
2662,33745;47,7937
2660,28634;47,67199
2658,23524;47,58735
2656,18413;47,36368
2654,13302;47,14965
2652,08191;47,05131
2650,03081;46,96954
2647,9797;46,93674
2645,92859;46,96177
2643,87749;46,87003
2641,82638;46,64296
2639,77527;46,51139
2637,72416;46,51855
2635,67306;46,51618
2633,62195;46,60072
2631,57084;46,77397
2629,51973;46,76012
2627,46863;46,58614
2625,41752;46,48671
2623,36641;46,50822
2621,3153;46,56746
2619,2642;46,57997
2617,21309;46,59564
2615,16198;46,67493
2613,11087;46,74014
2611,05977;46,72107
2609,00866;46,67471
2606,95755;46,70734
2604,90644;46,78749
2602,85534;46,87013
2600,80423;46,99088
2598,75312;47,00912
2596,70201;46,82217
2594,65091;46,62524
2592,5998;46,54338
2590,54869;46,43873
2588,49758;46,20775
2586,44648;46,05783
2584,39537;46,11879
2582,34426;46,19058
2580,29315;46,21165
2578,24205;46,23178
2576,19094;46,17883
2574,13983;46,04525
2572,08872;45,89782
2570,03762;45,74349
2567,98651;45,56808
2565,9354;45,41188
2563,8843;45,39946
2561,83319;45,55362
2559,78208;45,62309
2557,73097;45,54311
2555,67987;45,49891
2553,62876;45,48999
2551,57765;45,48829
2549,52654;45,50277
2547,47544;45,46589
2545,42433;45,37565
2543,37322;45,32135
2541,32211;45,37399
2539,27101;45,54281
2537,2199;45,78521
2535,16879;46,07268
2533,11768;46,387
2531,06658;46,66956
2529,01547;46,91066
2526,96436;47,14646
2524,91325;47,37906
2522,86215;47,5766
2520,81104;47,71503
2518,75993;47,81753
2516,70882;47,91101
2514,65772;47,9958
2512,60661;48,01816
2510,5555;47,9723
2508,50439;47,91634
2506,45329;47,73862
2504,40218;47,36973
2502,35107;46,95164
2500,29996;46,59523
2498,24886;46,29845
2496,19775;45,88848
2494,14664;45,34909
2492,09553;44,94543
2490,04443;44,63648
2487,99332;44,20967
2485,94221;43,72332
2483,89111;43,23729
2481,84;42,73535
2479,78889;42,31326
2477,73778;42,00789
2475,68668;41,71043
2473,63557;41,36253
2471,58446;41,00639
2469,53335;40,70817
2467,48225;40,4681
2465,43114;40,20457
2463,38003;39,91264
2461,32892;39,64851
2459,27782;39,41329
2457,22671;39,18763
2455,1756;38,92673
2453,12449;38,65488
2451,07339;38,50626
2449,02228;38,50455
2446,97117;38,52574
2444,92006;38,44807
2442,86896;38,25978
2440,81785;38,09214
2438,76674;38,01036
2436,71563;37,90675
2434,66453;37,76498
2432,61342;37,6508
2430,56231;37,58014
2428,5112;37,58706
2426,4601;37,5792
2424,40899;37,44813
2422,35788;37,31175
2420,30677;37,26145
2418,25567;37,17574
2416,20456;36,99533
2414,15345;36,88959
2412,10234;36,91654
2410,05124;36,93457
2408,00013;36,88604
2405,94902;36,80198
2403,89792;36,70506
2401,84681;36,61681
2399,7957;36,58276
2397,74459;36,59316
2395,69349;36,59928
2393,64238;36,58351
2391,59127;36,5705
2389,54016;36,57615
2387,48906;36,58348
2385,43795;36,56582
2383,38684;36,52234
2381,33573;36,46558
2379,28463;36,42061
2377,23352;36,43758
2375,18241;36,50624
2373,1313;36,55485
2371,0802;36,57281
2369,02909;36,55524
2366,97798;36,44639
2364,92687;36,28586
2362,87577;36,26089
2360,82466;36,43877
2358,77355;36,68818
2356,72244;36,8798
2354,67134;36,8738
2352,62023;36,66203
2350,56912;36,47179
2348,51801;36,45547
2346,46691;36,5575
2344,4158;36,66386
2342,36469;36,69992
2340,31358;36,63714
2338,26248;36,5595
2336,21137;36,56922
2334,16026;36,65149
2332,10915;36,71874
2330,05805;36,68924
2328,00694;36,66278
2325,95583;36,78415
2323,90473;36,9522
2321,85362;37,0053
2319,80251;36,96581
2317,7514;36,93089
2315,7003;36,94448
2313,64919;37,00935
2311,59808;37,09631
2309,54697;37,11897
2307,49587;37,02707
2305,44476;36,918
2303,39365;36,88216
2301,34254;36,88768
2299,29144;36,89127
2297,24033;36,88175
2295,18922;36,84974
2293,13811;36,78823
2291,08701;36,73278
2289,0359;36,74556
2286,98479;36,79003
2284,93368;36,78416
2282,88258;36,74385
2280,83147;36,71917
2278,78036;36,73632
2276,72925;36,7886
2274,67815;36,81249
2272,62704;36,78548
2270,57593;36,75344
2268,52482;36,76042
2266,47372;36,8287
2264,42261;36,93035
2262,3715;36,98927
2260,32039;36,92124
2258,26929;36,76953
2256,21818;36,69401
2254,16707;36,7536
2252,11596;36,88997
2250,06486;37,01879
2248,01375;37,10044
2245,96264;37,14748
2243,91154;37,16336
2241,86043;37,17881
2239,80932;37,2333
2237,75821;37,30156
2235,70711;37,35369
2233,656;37,41367
2231,60489;37,50367
2229,55378;37,60828
2227,50268;37,67259
2225,45157;37,69306
2223,40046;37,75518
2221,34935;37,87241
2219,29825;37,94516
2217,24714;37,93207
2215,19603;37,90094
2213,14492;37,94136
2211,09382;38,10353
2209,04271;38,30735
2206,9916;38,40903
2204,94049;38,39
2202,88939;38,37792
2200,83828;38,47096
2198,78717;38,58467
2196,73606;38,59451
2194,68496;38,52372
2192,63385;38,48735
2190,58274;38,59234
2188,53163;38,81015
2186,48053;38,95472
2184,42942;38,94537
2182,37831;38,86468
2180,3272;38,83685
2178,2761;38,94846
2176,22499;39,10305
2174,17388;39,16039
2172,12277;39,17561
2170,07167;39,2407
2168,02056;39,30624
2165,96945;39,34259
2163,91835;39,41855
2161,86724;39,53292
2159,81613;39,69265
2157,76502;39,90557
2155,71392;40,05806
2153,66281;40,18112
2151,6117;40,30194
2149,56059;40,29277
2147,50949;40,27873
2145,45838;40,46066
2143,40727;40,70132
2141,35616;40,78143
2139,30506;40,74847
2137,25395;40,73985
2135,20284;40,78869
2133,15173;40,83951
2131,10063;40,80038
2129,04952;40,69324
2126,99841;40,59582
2124,9473;40,47921
2122,8962;40,33968
2120,84509;40,2487
2118,79398;40,19341
2116,74287;40,12771
2114,69177;40,03325
2112,64066;39,89937
2110,58955;39,78165
2108,53844;39,73932
2106,48734;39,76199
2104,43623;39,81654
2102,38512;39,81358
2100,33401;39,69592
2098,28291;39,61805
2096,2318;39,69247
2094,18069;39,78671
2092,12958;39,78892
2090,07848;39,798
2088,02737;39,87225
2085,97626;39,93539
2083,92516;39,95275
2081,87405;39,94979
2079,82294;39,92151
2077,77183;39,89981
2075,72073;39,90669
2073,66962;39,88821
2071,61851;39,86988
2069,5674;39,89965
2067,5163;39,97134
2065,46519;40,0367
2063,41408;40,03025
2061,36297;39,99554
2059,31187;40,02339
2057,26076;40,11723
2055,20965;40,19842
2053,15854;40,26144
2051,10744;40,31814
2049,05633;40,30745
2047,00522;40,26937
2044,95411;40,2886
2042,90301;40,3274
2040,8519;40,31672
2038,80079;40,30692
2036,74968;40,38751
2034,69858;40,51418
2032,64747;40,59645
2030,59636;40,64864
2028,54525;40,68971
2026,49415;40,68397
2024,44304;40,66319
2022,39193;40,63773
2020,34082;40,53867
2018,28972;40,43124
2016,23861;40,40903
2014,1875;40,45418
2012,13639;40,53918
2010,08529;40,60096
2008,03418;40,57473
2005,98307;40,5032
2003,93197;40,48666
2001,88086;40,4901
1999,82975;40,44799
1997,77864;40,43686
1995,72754;40,49907
1993,67643;40,58672
1991,62532;40,6183
1989,57421;40,56457
1987,52311;40,50071
1985,472;40,49089
1983,42089;40,56961
1981,36978;40,65479
1979,31868;40,68328
1977,26757;40,73543
1975,21646;40,80281
1973,16535;40,80114
1971,11425;40,76206
1969,06314;40,80631
1967,01203;41,01307
1964,96092;41,2855
1962,90982;41,47676
1960,85871;41,53024
1958,8076;41,51384
1956,75649;41,50428
1954,70539;41,47305
1952,65428;41,40931
1950,60317;41,34643
1948,55206;41,27285
1946,50096;41,21844
1944,44985;41,3157
1942,39874;41,52003
1940,34763;41,61559
1938,29653;41,65234
1936,24542;41,70421
1934,19431;41,76427
1932,1432;41,84489
1930,0921;41,86594
1928,04099;41,79338
1925,98988;41,7813
1923,93878;41,89237
1921,88767;41,94801
1919,83656;42,04535
1917,78545;42,20051
1915,73435;42,16418
1913,68324;42,11665
1911,63213;42,18056
1909,58102;42,26107
1907,52992;42,3431
1905,47881;42,46883
1903,4277;42,61784
1901,37659;42,743
1899,32549;42,80141
1897,27438;42,80676
1895,22327;42,82208
1893,17216;42,84467
1891,12106;42,92391
1889,06995;43,04063
1887,01884;43,15856
1884,96773;43,34136
1882,91663;43,52118
1880,86552;43,65432
1878,81441;43,77244
1876,7633;43,85653
1874,7122;43,8682
1872,66109;43,82481
1870,60998;43,88208
1868,55887;44,0756
1866,50777;44,24393
1864,45666;44,42861
1862,40555;44,69696
1860,35444;44,92893
1858,30334;45,03897
1856,25223;45,10872
1854,20112;45,20092
1852,15001;45,29973
1850,09891;45,39113
1848,0478;45,48186
1845,99669;45,72686
1843,94559;46,1057
1841,89448;46,34485
1839,84337;46,58384
1837,79226;46,94281
1835,74116;47,28762
1833,69005;47,59872
1831,63894;47,99116
1829,58783;48,36641
1827,53673;48,65338
1825,48562;49,06676
1823,43451;49,45048
1821,3834;49,73774
1819,3323;50,1403
1817,28119;50,63474
1815,23008;51,11253
1813,17897;51,63788
1811,12787;52,31976
1809,07676;53,14043
1807,02565;54,03037
1804,97454;55,00678
1802,92344;56,2524
1800,87233;57,74826
1798,82122;58,98817
1796,77011;59,69551
1794,71901;60,28592
1792,6679;61,08219
1790,61679;61,54982
1788,56568;61,56024
1786,51458;61,61355
1784,46347;61,71579
1782,41236;61,83263
1780,36125;62,08877
1778,31015;62,49476
1776,25904;63,22968
1774,20793;64,62825
1772,15682;66,65692
1770,10572;68,90461
1768,05461;71,42062
1766,0035;74,10063
1763,9524;77,26878
1761,90129;81,49238
1759,85018;86,22005
1757,79907;91,09748
1755,74797;95,74024
1753,69686;99,51564
1751,64575;102,15395
1749,59464;102,65227
1747,54354;101,26591
1745,49243;99,48582
1743,44132;97,70496
1741,39021;95,76501
1739,33911;93,40466
1737,288;90,95663
1735,23689;89,62853
1733,18578;88,94318
1731,13468;88,03025
1729,08357;87,24767
1727,03246;86,62684
1724,98135;85,98267
1722,93025;84,81377
1720,87914;83,28485
1718,82803;82,25946
1716,77692;81,79708
1714,72582;81,60585
1712,67471;81,51248
1710,6236;81,4015
1708,57249;81,49615
1706,52139;81,86967
1704,47028;82,03494
1702,41917;82,63795
1700,36806;84,68661
1698,31696;86,95815
1696,26585;88,5182
1694,21474;89,12309
1692,16363;89,30461
1690,11253;89,71167
1688,06142;90,25437
1686,01031;91,45608
1683,95921;92,62415
1681,9081;92,18365
1679,85699;91,5806
1677,80588;91,71688
1675,75478;92,05036
1673,70367;91,83202
1671,65256;91,75694
1669,60145;91,98474
1667,55035;91,13583
1665,49924;89,80462
1663,44813;89,22017
1661,39702;88,94202
1659,34592;88,11294
1657,29481;86,85649
1655,2437;86,03169
1653,19259;85,18968
1651,14149;83,11777
1649,09038;81,93372
1647,03927;82,14745
1644,98816;82,14764
1642,93706;81,63212
1640,88595;81,09868
1638,83484;80,8963
1636,78373;80,93212
1634,73263;80,20921
1632,68152;79,08746
1630,63041;78,42835
1628,5793;77,71474
1626,5282;76,69742
1624,47709;76,11372
1622,42598;75,82782
1620,37487;75,31676
1618,32377;75,20941
1616,27266;75,42432
1614,22155;75,24419
1612,17044;75,08484
1610,11934;75,24872
1608,06823;75,3931
1606,01712;75,25293
1603,96602;74,90015
1601,91491;74,46127
1599,8638;74,12508
1597,81269;74,05627
1595,76159;74,2357
1593,71048;74,65337
1591,65937;75,22854
1589,60826;75,7186
1587,55716;76,08212
1585,50605;76,42115
1583,45494;76,5873
1581,40383;76,35154
1579,35273;76,08448
1577,30162;76,67024
1575,25051;77,59429
1573,1994;77,79933
1571,1483;78,11942
1569,09719;78,58306
1567,04608;78,3173
1564,99497;77,5082
1562,94387;76,64774
1560,89276;76,68777
1558,84165;77,58752
1556,79054;77,64863
1554,73944;77,33639
1552,68833;77,14891
1550,63722;76,90351
1548,58611;76,31508
1546,53501;75,5926
1544,4839;74,81285
1542,43279;73,76508
1540,38168;73,00567
1538,33058;72,53191
1536,27947;72,45203
1534,22836;72,84293
1532,17725;72,60135
1530,12615;71,72259
1528,07504;71,14076
1526,02393;70,70872
1523,97283;70,35757
1521,92172;70,49686
1519,87061;70,63964
1517,8195;70,56823
1515,7684;70,22922
1513,71729;69,4937
1511,66618;68,64832
1509,61507;68,11152
1507,56397;68,13953
1505,51286;67,79755
1503,46175;67,09064
1501,41064;66,83392
1499,35954;67,09763
1497,30843;67,60098
1495,25732;67,63946
1493,20621;67,24711
1491,15511;67,26936
1489,104;67,7718
1487,05289;68,31906
1485,00178;68,73428
1482,95068;69,08642
1480,89957;69,43928
1478,84846;69,98035
1476,79735;70,94642
1474,74625;72,36448
1472,69514;74,27043
1470,64403;75,82016
1468,59292;76,53631
1466,54182;76,9104
1464,49071;76,74174
1462,4396;75,90691
1460,38849;75,23283
1458,33739;75,04571
1456,28628;74,56187
1454,23517;73,60152
1452,18406;72,97501
1450,13296;72,83567
1448,08185;72,96938
1446,03074;73,07419
1443,97964;72,97912
1441,92853;72,59444
1439,87742;72,18716
1437,82631;72,316
1435,77521;72,44366
1433,7241;71,94883
1431,67299;71,4864
1429,62188;71,33749
1427,57078;71,34622
1425,51967;71,39206
1423,46856;71,20007
1421,41745;71,12205
1419,36635;71,58345
1417,31524;71,77383
1415,26413;71,43573
1413,21302;71,21629
1411,16192;71,29146
1409,11081;71,31295
1407,0597;71,23434
1405,00859;71,40199
1402,95749;71,75505
1400,90638;71,9288
1398,85527;71,62704
1396,80416;71,23191
1394,75306;71,29812
1392,70195;71,3231
1390,65084;71,17393
1388,59973;71,34386
1386,54863;71,74377
1384,49752;71,99842
1382,44641;72,13378
1380,3953;72,22344
1378,3442;72,08948
1376,29309;71,67187
1374,24198;71,24557
1372,19087;71,00401
1370,13977;70,9693
1368,08866;70,84377
1366,03755;70,52943
1363,98645;70,41822
1361,93534;70,56856
1359,88423;70,72919
1357,83312;70,85799
1355,78202;70,95398
1353,73091;70,89808
1351,6798;70,71031
1349,62869;70,58662
1347,57759;70,53619
1345,52648;70,47129
1343,47537;70,41385
1341,42426;70,48699
1339,37316;70,67583
1337,32205;70,69743
1335,27094;70,45285
1333,21983;70,23885
1331,16873;70,44482
1329,11762;71,01875
1327,06651;71,42074
1325,0154;71,27009
1322,9643;70,82967
1320,91319;70,73291
1318,86208;71,0983
1316,81097;71,46395
1314,75987;71,56396
1312,70876;71,44213
1310,65765;71,32326
1308,60654;71,37271
1306,55544;71,52552
1304,50433;71,78314
1302,45322;72,08936
1300,40211;72,10915
1298,35101;71,83006
1296,2999;71,70515
1294,24879;71,90797
1292,19768;72,09153
1290,14658;72,09814
1288,09547;72,289
1286,04436;72,63426
1283,99326;72,80257
1281,94215;72,90063
1279,89104;72,97083
1277,83993;72,81576
1275,78883;72,5823
1273,73772;72,57507
1271,68661;72,82431
1269,6355;73,15714
1267,5844;73,40176
1265,53329;73,52688
1263,48218;73,59856
1261,43107;73,753
1259,37997;73,95514
1257,32886;74,04226
1255,27775;73,93846
1253,22664;73,70919
1251,17554;73,56064
1249,12443;73,43417
1247,07332;73,14806
1245,02221;72,77794
1242,97111;72,52972
1240,92;72,33846
1238,86889;71,94431
1236,81778;71,43402
1234,76668;71,03535
1232,71557;70,65891
1230,66446;70,23743
1228,61335;70,02788
1226,56225;70,174
1224,51114;70,33725
1222,46003;70,07816
1220,40892;69,52758
1218,35782;69,09274
1216,30671;68,87572
1214,2556;68,76481
1212,20449;68,85436
1210,15339;69,13999
1208,10228;69,2034
1206,05117;69,12564
1204,00006;69,26464
1201,94896;69,56383
1199,89785;69,8201
1197,84674;69,90088
1195,79564;69,94114
1193,74453;70,05312
1191,69342;70,22133
1189,64231;70,52208
1187,59121;70,91199
1185,5401;71,30993
1183,48899;71,67637
1181,43788;71,87075
1179,38678;71,76095
1177,33567;71,44046
1175,28456;71,08498
1173,23345;70,89287
1171,18235;70,91027
1169,13124;70,78874
1167,08013;70,46153
1165,02902;70,22893
1162,97792;70,04504
1160,92681;69,75514
1158,8757;69,44069
1156,82459;69,10152
1154,77349;68,85169
1152,72238;69,103
1150,67127;69,59888
1148,62016;69,6106
1146,56906;69,21956
1144,51795;68,8823
1142,46684;68,56177
1140,41573;68,14162
1138,36463;67,96833
1136,31352;68,1749
1134,26241;68,39465
1132,2113;68,717
1130,1602;69,26502
1128,10909;69,49994
1126,05798;69,52414
1124,00687;69,84339
1121,95577;70,17641
1119,90466;70,10493
1117,85355;69,70654
1115,80245;69,48998
1113,75134;69,7029
1111,70023;69,82031
1109,64912;69,39487
1107,59802;69,02144
1105,54691;69,2128
1103,4958;69,44038
1101,44469;69,23915
1099,39359;68,8072
1097,34248;68,43502
1095,29137;68,1404
1093,24026;67,7861
1091,18916;67,24637
1089,13805;66,65593
1087,08694;66,21082
1085,03583;65,68705
1082,98473;65,04633
1080,93362;64,70965
1078,88251;64,78487
1076,8314;65,00107
1074,7803;64,97926
1072,72919;64,67112
1070,67808;64,48283
1068,62697;64,41496
1066,57587;64,23701
1064,52476;63,88514
1062,47365;63,36982
1060,42254;62,86105
1058,37144;62,45572
1056,32033;62,21683
1054,26922;62,16624
1052,21811;62,26081
1050,16701;62,29298
1048,1159;61,95183
1046,06479;61,54975
1044,01368;61,66337
1041,96258;62,0238
1039,91147;61,98897
1037,86036;61,65773
1035,80926;61,62915
1033,75815;61,81339
1031,70704;61,6941
1029,65593;61,68877
1027,60483;62,09456
1025,55372;62,40043
1023,50261;62,52759
1021,4515;62,69351
1019,4004;62,79643
1017,34929;62,70893
1015,29818;62,6583
1013,24707;62,82158
1011,19597;63,05615
1009,14486;63,30083
1007,09375;63,47123
1005,04264;63,439
1002,99154;63,36829
1000,94043;63,41774
998,88932;63,33064
996,83821;63,06157
994,78711;63,07239
992,736;63,3494
990,68489;63,57952
988,63378;63,9603
986,58268;64,43085
984,53157;64,38867
982,48046;63,94219
980,42935;63,75348
978,37825;63,76447
976,32714;63,70569
974,27603;63,57191
972,22492;63,33283
970,17382;63,23391
968,12271;63,20415
966,0716;62,84812
964,02049;62,35733
961,96939;62,11201
959,91828;62,27924
957,86717;62,59343
955,81607;62,41521
953,76496;61,95231
951,71385;61,95961
949,66274;62,21111
947,61164;62,30236
945,56053;62,49722
943,50942;62,82553
941,45831;63,04971
939,40721;63,06946
937,3561;63,03103
935,30499;63,21314
933,25388;63,48791
931,20278;63,54131
929,15167;63,43773
927,10056;63,33554
925,04945;63,25755
922,99835;63,24879
920,94724;63,12414
918,89613;62,76044
916,84502;62,45578
914,79392;62,44275
912,74281;62,74635
910,6917;63,22293
908,64059;63,54837
906,58949;63,65969
904,53838;63,72931
902,48727;63,58862
900,43616;63,46834
898,38506;63,82431
896,33395;64,14736
894,28284;63,83286
892,23173;62,72727
890,18063;61,23623
888,12952;60,45504
886,07841;61,10626
884,0273;62,88915
881,9762;64,51625
879,92509;65,00728
877,87398;64,7839
875,82288;64,13581
873,77177;63,05825
871,72066;62,60614
869,66955;63,61325
867,61845;65,30759
865,56734;66,5772
863,51623;67,21155
861,46512;67,34583
859,41402;67,31676
857,36291;67,31045
855,3118;67,36374
853,26069;68,05011
851,20959;69,09422
849,15848;69,46297
847,10737;69,58215
845,05626;70,03615
843,00516;70,29476
840,95405;70,33395
838,90294;70,65207
836,85183;70,81014
834,80073;70,32752
832,74962;69,88834
830,69851;69,87498
828,6474;70,23899
826,5963;71,01821
824,54519;71,47861
822,49408;71,13745
820,44297;70,57094
818,39187;70,61215
816,34076;71,30482
814,28965;71,63392
812,23854;71,49905
810,18744;71,82362
808,13633;72,5276
806,08522;73,15474
804,03411;73,55187
801,98301;73,36609
799,9319;72,93877
797,88079;73,02348
795,82969;73,30085
793,77858;73,31922
791,72747;73,70341
789,67636;74,30046
787,62526;74,37356
785,57415;74,72787
783,52304;75,63951
781,47193;75,89821
779,42083;75,58293
777,36972;75,78857
775,31861;76,18912
773,2675;76,15474
771,2164;76,15446
769,16529;76,51032
767,11418;76,60013
765,06307;76,32767
763,01197;76,5749
760,96086;77,36061
758,90975;77,6188
756,85864;77,24887
754,80754;77,21261
752,75643;77,55074
750,70532;77,86346
748,65421;78,40286
746,60311;79,10523
744,552;79,95322
742,50089;80,85865
740,44978;80,86732
738,39868;80,33566
736,34757;80,86362
734,29646;82,32831
732,24535;83,42077
730,19425;83,9077
728,14314;84,21751
726,09203;84,41133
724,04092;84,78719
721,98982;85,01247
719,93871;84,40282
717,8876;83,52953
715,8365;83,76845
713,78539;85,39388
711,73428;87,26019
709,68317;87,72792
707,63207;86,59761
705,58096;85,5295
703,52985;85,06573
701,47874;84,31379
699,42764;83,51341
697,37653;83,97227
695,32542;85,92184
693,27431;87,68545
691,22321;87,77865
689,1721;86,30595
687,12099;84,68408
685,06988;84,41527
683,01878;85,03514
680,96767;84,86855
678,91656;83,76914
676,86545;82,32352
674,81435;80,63338
672,76324;79,15479
670,71213;78,35233
668,66102;78,1456
666,60992;78,00751
664,55881;77,43894
662,5077;76,84563
660,45659;76,58255
658,40549;76,31504
656,35438;75,96611
654,30327;75,57779
652,25216;74,93756
650,20106;74,77235
648,14995;75,33492
646,09884;75,06913
644,04773;73,52106
641,99663;72,13602
639,94552;71,51067
637,89441;70,76789
635,84331;69,49148
633,7922;68,70375
631,74109;69,06039
629,68998;69,54282
627,63888;68,61949
625,58777;66,49265
623,53666;65,22344
621,48555;65,56799
619,43445;66,52954
617,38334;67,96746
615,33223;69,62872
613,28112;70,37468
611,23002;70,50357
609,17891;71,03659
607,1278;71,48662
605,07669;70,85068
603,02559;70,13136
600,97448;71,52969
598,92337;74,52402
596,87226;75,61843
594,82116;74,27921
592,77005;73,25855
590,71894;73,16135
588,66783;71,96354
586,61673;69,19626
584,56562;65,64336
582,51451;61,06035
580,4634;55,84942
578,4123;51,28596
576,36119;47,65471
574,31008;44,70578
572,25897;42,46612
570,20787;40,43982
568,15676;38,43497
566,10565;37,23629
564,05454;37,15045
562,00344;37,48619
559,95233;37,68262
557,90122;38,00152
555,85012;38,66221
553,79901;39,45401
551,7479;40,29694
549,69679;41,20801
547,64569;41,89317
545,59458;42,07885
543,54347;42,02881
541,49236;42,27217
539,44126;42,63262
537,39015;42,4984
535,33904;42,05826
533,28793;41,69948
531,23683;41,50098
529,18572;41,25628
527,13461;40,54537
525,0835;39,47841
523,0324;38,63424
520,98129;38,05927
518,93018;37,20726
516,87907;35,86769
514,82797;34,25499
512,77686;32,6255
510,72575;31,23539
508,67464;29,93362
506,62354;28,44369
504,57243;27,13561
502,52132;26,23203
500,47021;25,38745
498,41911;24,62434
496,368;24,08887
494,31689;23,57404
492,26578;22,97491
490,21468;22,38134
488,16357;21,70693
486,11246;20,99284
484,06135;20,60425
482,01025;20,6719
479,95914;20,91674
477,90803;21,03546
475,85693;20,92281
473,80582;20,64628
471,75471;20,28453
469,7036;19,96966
467,6525;19,82581
465,60139;19,80934
463,55028;19,93565
461,49917;20,25184
459,44807;20,6903
457,39696;21,16373
455,34585;21,5881
453,29474;21,84089
451,24364;21,74021
449,19253;21,49833
447,14142;21,54838
445,09031;21,75702
443,03921;21,77265
440,9881;21,72019
438,93699;21,90142
436,88588;22,24049
434,83478;22,39668
432,78367;22,3445
430,73256;22,33297
428,68145;22,24483
426,63035;21,53227
424,57924;19,98144
422,52813;18,20145
420,47702;16,94102
418,42592;16,38751
416,37481;16,33591
414,3237;16,45417
412,27259;16,49574
410,22149;16,56091
408,17038;16,92757
406,11927;17,52142
404,06816;17,95721
402,01706;18,27673
399,96595;18,85758
