3997,70175;1,96499
3995,6506;1,96627
3993,59944;1,966
3991,54829;1,96599
3989,49713;1,96645
3987,44598;1,96648
3985,39482;1,96664
3983,34367;1,96719
3981,29251;1,96764
3979,24136;1,96849
3977,1902;1,97051
3975,13905;1,9732
3973,08789;1,97513
3971,03673;1,9768
3968,98558;1,97947
3966,93442;1,98137
3964,88327;1,9806
3962,83211;1,97993
3960,78096;1,9827
3958,7298;1,9865
3956,67865;1,98844
3954,62749;1,98957
3952,57634;1,99167
3950,52518;1,99421
3948,47403;1,99545
3946,42287;1,99673
3944,37172;1,99843
3942,32056;1,99826
3940,2694;1,99608
3938,21825;1,99403
3936,16709;1,99371
3934,11594;1,99384
3932,06478;1,99306
3930,01363;1,99006
3927,96247;1,98432
3925,91132;1,97777
3923,86016;1,97183
3921,80901;1,96716
3919,75785;1,9646
3917,7067;1,96245
3915,65554;1,9581
3913,60439;1,95257
3911,55323;1,94833
3909,50207;1,94675
3907,45092;1,94753
3905,39976;1,94903
3903,34861;1,9496
3901,29745;1,94773
3899,2463;1,94282
3897,19514;1,93757
3895,14399;1,93395
3893,09283;1,93172
3891,04168;1,93132
3888,99052;1,93202
3886,93937;1,93085
3884,88821;1,93253
3882,83706;1,93666
3880,7859;1,93536
3878,73474;1,93184
3876,68359;1,93123
3874,63243;1,93468
3872,58128;1,93959
3870,53012;1,93944
3868,47897;1,93817
3866,42781;1,93704
3864,37666;1,93272
3862,3255;1,92642
3860,27435;1,92151
3858,22319;1,92065
3856,17204;1,9209
3854,12088;1,92236
3852,06973;1,92691
3850,01857;1,92598
3847,96741;1,919
3845,91626;1,91465
3843,8651;1,91761
3841,81395;1,92487
3839,76279;1,92777
3837,71164;1,92465
3835,66048;1,92145
3833,60933;1,91838
3831,55817;1,91459
3829,50702;1,91304
3827,45586;1,91415
3825,40471;1,91772
3823,35355;1,92104
3821,3024;1,92452
3819,25124;1,92895
3817,20008;1,92511
3815,14893;1,91741
3813,09777;1,91467
3811,04662;1,91513
3808,99546;1,91662
3806,94431;1,91893
3804,89315;1,92333
3802,842;1,92542
3800,79084;1,92795
3798,73969;1,93182
3796,68853;1,93055
3794,63738;1,92713
3792,58622;1,92434
3790,53506;1,92297
3788,48391;1,9242
3786,43275;1,92718
3784,3816;1,93104
3782,33044;1,93462
3780,27929;1,93572
3778,22813;1,93549
3776,17698;1,93618
3774,12582;1,93915
3772,07467;1,94307
3770,02351;1,94558
3767,97236;1,94771
3765,9212;1,94924
3763,87005;1,95195
3761,81889;1,95695
3759,76773;1,96398
3757,71658;1,9717
3755,66542;1,97788
3753,61427;1,98326
3751,56311;1,99036
3749,51196;1,99763
3747,4608;1,99918
3745,40965;1,99324
3743,35849;1,99349
3741,30734;2,00245
3739,25618;2,01061
3737,20503;2,02015
3735,15387;2,03195
3733,10272;2,03798
3731,05156;2,03868
3729,0004;2,04249
3726,94925;2,05077
3724,89809;2,06153
3722,84694;2,07065
3720,79578;2,07812
3718,74463;2,08518
3716,69347;2,09289
3714,64232;2,10473
3712,59116;2,12403
3710,54001;2,14598
3708,48885;2,16052
3706,4377;2,17095
3704,38654;2,18787
3702,33539;2,21689
3700,28423;2,2555
3698,23307;2,29619
3696,18192;2,3338
3694,13076;2,36465
3692,07961;2,39022
3690,02845;2,41529
3687,9773;2,44039
3685,92614;2,46801
3683,87499;2,49725
3681,82383;2,52775
3679,77268;2,56103
3677,72152;2,59517
3675,67037;2,62909
3673,61921;2,66062
3671,56806;2,68047
3669,5169;2,69196
3667,46574;2,70076
3665,41459;2,70526
3663,36343;2,70996
3661,31228;2,71827
3659,26112;2,7275
3657,20997;2,73621
3655,15881;2,74322
3653,10766;2,7435
3651,0565;2,74187
3649,00535;2,75026
3646,95419;2,76463
3644,90304;2,77182
3642,85188;2,77246
3640,80073;2,78101
3638,74957;2,8003
3636,69841;2,81324
3634,64726;2,80531
3632,5961;2,79014
3630,54495;2,79474
3628,49379;2,82332
3626,44264;2,84494
3624,39148;2,84543
3622,34033;2,83868
3620,28917;2,83408
3618,23802;2,83275
3616,18686;2,82752
3614,13571;2,82124
3612,08455;2,82645
3610,0334;2,83625
3607,98224;2,836
3605,93108;2,8308
3603,87993;2,8275
3601,82877;2,82419
3599,77762;2,82583
3597,72646;2,84248
3595,67531;2,86688
3593,62415;2,87506
3591,573;2,86195
3589,52184;2,84908
3587,47069;2,8481
3585,41953;2,84843
3583,36838;2,84348
3581,31722;2,83673
3579,26607;2,82873
3577,21491;2,82311
3575,16375;2,82728
3573,1126;2,83997
3571,06144;2,85195
3569,01029;2,86074
3566,95913;2,8688
3564,90798;2,86785
3562,85682;2,85301
3560,80567;2,83722
3558,75451;2,83304
3556,70336;2,83564
3554,6522;2,83961
3552,60105;2,85217
3550,54989;2,86851
3548,49874;2,87309
3546,44758;2,86695
3544,39642;2,86073
3542,34527;2,85832
3540,29411;2,85521
3538,24296;2,84675
3536,1918;2,84057
3534,14065;2,84538
3532,08949;2,85125
3530,03834;2,84789
3527,98718;2,84104
3525,93603;2,83738
3523,88487;2,8335
3521,83372;2,82734
3519,78256;2,82433
3517,73141;2,82778
3515,68025;2,83449
3513,62909;2,8386
3511,57794;2,83673
3509,52678;2,82857
3507,47563;2,82202
3505,42447;2,82924
3503,37332;2,84529
3501,32216;2,84866
3499,27101;2,84129
3497,21985;2,84249
3495,1687;2,85134
3493,11754;2,86037
3491,06639;2,86245
3489,01523;2,86007
3486,96407;2,86831
3484,91292;2,87636
3482,86176;2,86596
3480,81061;2,84754
3478,75945;2,83432
3476,7083;2,83144
3474,65714;2,83568
3472,60599;2,8359
3470,55483;2,83376
3468,50368;2,84138
3466,45252;2,85055
3464,40137;2,83926
3462,35021;2,81769
3460,29906;2,8089
3458,2479;2,81263
3456,19674;2,8213
3454,14559;2,82295
3452,09443;2,81168
3450,04328;2,80212
3447,99212;2,80873
3445,94097;2,82782
3443,88981;2,84197
3441,83866;2,84201
3439,7875;2,83687
3437,73635;2,83595
3435,68519;2,8294
3433,63404;2,81676
3431,58288;2,81605
3429,53173;2,82473
3427,48057;2,82705
3425,42941;2,82498
3423,37826;2,8275
3421,3271;2,83146
3419,27595;2,83313
3417,22479;2,82917
3415,17364;2,81885
3413,12248;2,8169
3411,07133;2,82301
3409,02017;2,82056
3406,96902;2,81244
3404,91786;2,81102
3402,86671;2,81379
3400,81555;2,81523
3398,7644;2,81606
3396,71324;2,8154
3394,66208;2,8147
3392,61093;2,82203
3390,55977;2,83394
3388,50862;2,8366
3386,45746;2,83122
3384,40631;2,82737
3382,35515;2,82765
3380,304;2,82887
3378,25284;2,82322
3376,20169;2,81284
3374,15053;2,81476
3372,09938;2,82614
3370,04822;2,82504
3367,99707;2,81677
3365,94591;2,82083
3363,89475;2,8345
3361,8436;2,85022
3359,79244;2,85984
3357,74129;2,85159
3355,69013;2,83608
3353,63898;2,83101
3351,58782;2,83586
3349,53667;2,83823
3347,48551;2,82821
3345,43436;2,81593
3343,3832;2,81261
3341,33205;2,81244
3339,28089;2,81529
3337,22974;2,82329
3335,17858;2,8272
3333,12742;2,82161
3331,07627;2,81023
3329,02511;2,80277
3326,97396;2,80845
3324,9228;2,82663
3322,87165;2,84526
3320,82049;2,8474
3318,76934;2,83307
3316,71818;2,82274
3314,66703;2,82589
3312,61587;2,82866
3310,56472;2,81746
3308,51356;2,80196
3306,46241;2,80018
3304,41125;2,8122
3302,36009;2,81981
3300,30894;2,81275
3298,25778;2,80411
3296,20663;2,80457
3294,15547;2,81149
3292,10432;2,81676
3290,05316;2,81376
3288,00201;2,81074
3285,95085;2,81112
3283,8997;2,80421
3281,84854;2,79053
3279,79739;2,78174
3277,74623;2,78294
3275,69508;2,78819
3273,64392;2,79528
3271,59276;2,80476
3269,54161;2,80811
3267,49045;2,80346
3265,4393;2,80366
3263,38814;2,80949
3261,33699;2,80337
3259,28583;2,79025
3257,23468;2,7872
3255,18352;2,78813
3253,13237;2,7851
3251,08121;2,7852
3249,03006;2,79385
3246,9789;2,80321
3244,92775;2,80571
3242,87659;2,80417
3240,82543;2,80564
3238,77428;2,81554
3236,72312;2,82159
3234,67197;2,81096
3232,62081;2,79645
3230,56966;2,78909
3228,5185;2,78678
3226,46735;2,78522
3224,41619;2,78135
3222,36504;2,77534
3220,31388;2,76972
3218,26273;2,76785
3216,21157;2,77186
3214,16041;2,78239
3212,10926;2,79706
3210,0581;2,80405
3208,00695;2,79743
3205,95579;2,78797
3203,90464;2,78233
3201,85348;2,7776
3199,80233;2,77618
3197,75117;2,78333
3195,70002;2,79228
3193,64886;2,79597
3191,59771;2,7968
3189,54655;2,79329
3187,4954;2,78961
3185,44424;2,79017
3183,39308;2,78604
3181,34193;2,77805
3179,29077;2,77669
3177,23962;2,78265
3175,18846;2,78313
3173,13731;2,77304
3171,08615;2,76923
3169,035;2,77631
3166,98384;2,77863
3164,93269;2,76961
3162,88153;2,75926
3160,83038;2,76075
3158,77922;2,77448
3156,72807;2,78847
3154,67691;2,78979
3152,62575;2,7806
3150,5746;2,76981
3148,52344;2,75695
3146,47229;2,74943
3144,42113;2,75149
3142,36998;2,75092
3140,31882;2,74738
3138,26767;2,75239
3136,21651;2,76454
3134,16536;2,77441
3132,1142;2,77794
3130,06305;2,77465
3128,01189;2,76924
3125,96074;2,76724
3123,90958;2,76862
3121,85842;2,77167
3119,80727;2,77415
3117,75611;2,77158
3115,70496;2,76317
3113,6538;2,75249
3111,60265;2,74371
3109,55149;2,74589
3107,50034;2,75853
3105,44918;2,76613
3103,39803;2,76588
3101,34687;2,76404
3099,29572;2,75781
3097,24456;2,75223
3095,19341;2,75763
3093,14225;2,76911
3091,09109;2,77321
3089,03994;2,76749
3086,98878;2,76177
3084,93763;2,75982
3082,88647;2,75641
3080,83532;2,7509
3078,78416;2,74968
3076,73301;2,75531
3074,68185;2,76188
3072,6307;2,76409
3070,57954;2,76273
3068,52839;2,7626
3066,47723;2,76627
3064,42608;2,77026
3062,37492;2,77109
3060,32376;2,77073
3058,27261;2,76843
3056,22145;2,76378
3054,1703;2,76249
3052,11914;2,76684
3050,06799;2,771
3048,01683;2,77081
3045,96568;2,76866
3043,91452;2,76463
3041,86337;2,76027
3039,81221;2,76264
3037,76106;2,76834
3035,7099;2,76673
3033,65875;2,75992
3031,60759;2,75689
3029,55643;2,7589
3027,50528;2,75993
3025,45412;2,75943
3023,40297;2,76377
3021,35181;2,76534
3019,30066;2,75472
3017,2495;2,74732
3015,19835;2,75612
3013,14719;2,76783
3011,09604;2,77309
3009,04488;2,78055
3006,99373;2,78673
3004,94257;2,783
3002,89142;2,77956
3000,84026;2,78008
2998,7891;2,77562
2996,73795;2,77079
2994,68679;2,77441
2992,63564;2,78046
2990,58448;2,78118
2988,53333;2,78254
2986,48217;2,79091
2984,43102;2,79331
2982,37986;2,78563
2980,32871;2,78727
2978,27755;2,80372
2976,2264;2,8133
2974,17524;2,81216
2972,12409;2,8247
2970,07293;2,84939
2968,02177;2,85235
2965,97062;2,83375
2963,91946;2,82473
2961,86831;2,82752
2959,81715;2,82608
2957,766;2,81598
2955,71484;2,81033
2953,66369;2,81389
2951,61253;2,81162
2949,56138;2,8011
2947,51022;2,7978
2945,45907;2,80837
2943,40791;2,82321
2941,35675;2,82894
2939,3056;2,829
2937,25444;2,83199
2935,20329;2,83419
2933,15213;2,82594
2931,10098;2,81149
2929,04982;2,8073
2926,99867;2,80452
2924,94751;2,7885
2922,89636;2,76943
2920,8452;2,75497
2918,79405;2,74689
2916,74289;2,74641
2914,69174;2,74692
2912,64058;2,7425
2910,58942;2,73917
2908,53827;2,74391
2906,48711;2,75662
2904,43596;2,77018
2902,3848;2,77299
2900,33365;2,76252
2898,28249;2,74684
2896,23134;2,73652
2894,18018;2,73412
2892,12903;2,73527
2890,07787;2,73778
2888,02672;2,74342
2885,97556;2,7532
2883,92441;2,75756
2881,87325;2,75569
2879,82209;2,75886
2877,77094;2,76334
2875,71978;2,76165
2873,66863;2,7598
2871,61747;2,76448
2869,56632;2,7756
2867,51516;2,78547
2865,46401;2,78738
2863,41285;2,78758
2861,3617;2,79198
2859,31054;2,7924
2857,25939;2,78303
2855,20823;2,76838
2853,15708;2,75433
2851,10592;2,74143
2849,05476;2,72726
2847,00361;2,7199
2844,95245;2,72734
2842,9013;2,73831
2840,85014;2,73709
2838,79899;2,72432
2836,74783;2,7089
2834,69668;2,69861
2832,64552;2,69666
2830,59437;2,69735
2828,54321;2,6933
2826,49206;2,68542
2824,4409;2,67562
2822,38975;2,66514
2820,33859;2,65981
2818,28743;2,65556
2816,23628;2,64401
2814,18512;2,63452
2812,13397;2,63847
2810,08281;2,64428
2808,03166;2,6387
2805,9805;2,6296
2803,92935;2,62172
2801,87819;2,61324
2799,82704;2,60745
2797,77588;2,60578
2795,72473;2,60456
2793,67357;2,60212
2791,62242;2,59923
2789,57126;2,59361
2787,5201;2,5834
2785,46895;2,57412
2783,41779;2,57258
2781,36664;2,57421
2779,31548;2,57103
2777,26433;2,56529
2775,21317;2,56145
2773,16202;2,5602
2771,11086;2,55838
2769,05971;2,55449
2767,00855;2,55247
2764,9574;2,55084
2762,90624;2,54585
2760,85509;2,53864
2758,80393;2,53354
2756,75277;2,5335
2754,70162;2,53372
2752,65046;2,53171
2750,59931;2,53115
2748,54815;2,53105
2746,497;2,52745
2744,44584;2,52352
2742,39469;2,52437
2740,34353;2,52679
2738,29238;2,52662
2736,24122;2,52354
2734,19007;2,51919
2732,13891;2,51628
2730,08776;2,51535
2728,0366;2,51425
2725,98544;2,51154
2723,93429;2,50728
2721,88313;2,50322
2719,83198;2,50055
2717,78082;2,49803
2715,72967;2,49632
2713,67851;2,49711
2711,62736;2,4983
2709,5762;2,49528
2707,52505;2,48946
2705,47389;2,48793
2703,42274;2,49071
2701,37158;2,49243
2699,32043;2,49044
2697,26927;2,4851
2695,21811;2,48075
2693,16696;2,48182
2691,1158;2,48577
2689,06465;2,48872
2687,01349;2,49016
2684,96234;2,48763
2682,91118;2,4828
2680,86003;2,48369
2678,80887;2,4882
2676,75772;2,48672
2674,70656;2,48103
2672,65541;2,47842
2670,60425;2,47854
2668,55309;2,47954
2666,50194;2,48115
2664,45078;2,48092
2662,39963;2,47816
2660,34847;2,47563
2658,29732;2,47425
2656,24616;2,47174
2654,19501;2,46821
2652,14385;2,46688
2650,0927;2,46795
2648,04154;2,46952
2645,99039;2,47257
2643,93923;2,47676
2641,88808;2,47831
2639,83692;2,47722
2637,78576;2,47863
2635,73461;2,48377
2633,68345;2,48815
2631,6323;2,49239
2629,58114;2,50178
2627,52999;2,51171
2625,47883;2,51501
2623,42768;2,51677
2621,37652;2,52298
2619,32537;2,52958
2617,27421;2,53342
2615,22306;2,53661
2613,1719;2,53906
2611,12075;2,54108
2609,06959;2,54362
2607,01843;2,54628
2604,96728;2,54814
2602,91612;2,5488
2600,86497;2,55041
2598,81381;2,55363
2596,76266;2,55745
2594,7115;2,55934
2592,66035;2,55674
2590,60919;2,55549
2588,55804;2,55857
2586,50688;2,55835
2584,45573;2,55484
2582,40457;2,55401
2580,35342;2,5543
2578,30226;2,55307
2576,2511;2,55306
2574,19995;2,55732
2572,14879;2,56377
2570,09764;2,56781
2568,04648;2,56499
2565,99533;2,55714
2563,94417;2,55194
2561,89302;2,55101
2559,84186;2,55152
2557,79071;2,55367
2555,73955;2,55723
2553,6884;2,56156
2551,63724;2,56756
2549,58609;2,57146
2547,53493;2,56952
2545,48377;2,56575
2543,43262;2,5654
2541,38146;2,56905
2539,33031;2,57527
2537,27915;2,58164
2535,228;2,58545
2533,17684;2,59074
2531,12569;2,60341
2529,07453;2,61699
2527,02338;2,62254
2524,97222;2,62644
2522,92107;2,63159
2520,86991;2,6323
2518,81876;2,63318
2516,7676;2,63764
2514,71644;2,6412
2512,66529;2,64326
2510,61413;2,64292
2508,56298;2,63853
2506,51182;2,6311
2504,46067;2,62179
2502,40951;2,61214
2500,35836;2,60229
2498,3072;2,59244
2496,25605;2,58204
2494,20489;2,56979
2492,15374;2,55719
2490,10258;2,54557
2488,05143;2,53539
2486,00027;2,52631
2483,94911;2,51631
2481,89796;2,5064
2479,8468;2,49818
2477,79565;2,48917
2475,74449;2,4774
2473,69334;2,46438
2471,64218;2,45433
2469,59103;2,44631
2467,53987;2,43711
2465,48872;2,42861
2463,43756;2,42222
2461,38641;2,41899
2459,33525;2,41804
2457,2841;2,41364
2455,23294;2,4057
2453,18178;2,40091
2451,13063;2,39866
2449,07947;2,39324
2447,02832;2,38601
2444,97716;2,38076
2442,92601;2,37758
2440,87485;2,37562
2438,8237;2,37403
2436,77254;2,37137
2434,72139;2,36745
2432,67023;2,3622
2430,61908;2,3575
2428,56792;2,35679
2426,51677;2,35743
2424,46561;2,3548
2422,41445;2,3491
2420,3633;2,34301
2418,31214;2,33909
2416,26099;2,33877
2414,20983;2,34127
2412,15868;2,34251
2410,10752;2,33959
2408,05637;2,33591
2406,00521;2,33553
2403,95406;2,33692
2401,9029;2,33601
2399,85175;2,33371
2397,80059;2,33266
2395,74944;2,33218
2393,69828;2,32928
2391,64712;2,32418
2389,59597;2,32097
2387,54481;2,32048
2385,49366;2,3196
2383,4425;2,31865
2381,39135;2,32089
2379,34019;2,32639
2377,28904;2,331
2375,23788;2,33102
2373,18673;2,32864
2371,13557;2,32765
2369,08442;2,32662
2367,03326;2,32402
2364,9821;2,32288
2362,93095;2,32667
2360,87979;2,33325
2358,82864;2,33653
2356,77748;2,33455
2354,72633;2,32873
2352,67517;2,32474
2350,62402;2,32729
2348,57286;2,32929
2346,52171;2,32429
2344,47055;2,31912
2342,4194;2,32078
2340,36824;2,32399
2338,31709;2,32354
2336,26593;2,32108
2334,21477;2,32064
2332,16362;2,32244
2330,11246;2,32276
2328,06131;2,32269
2326,01015;2,32452
2323,959;2,32509
2321,90784;2,32337
2319,85669;2,3227
2317,80553;2,32487
2315,75438;2,32926
2313,70322;2,33379
2311,65207;2,33565
2309,60091;2,33432
2307,54976;2,33146
2305,4986;2,32914
2303,44744;2,32883
2301,39629;2,33043
2299,34513;2,33198
2297,29398;2,33102
2295,24282;2,32895
2293,19167;2,32843
2291,14051;2,32827
2289,08936;2,32715
2287,0382;2,32566
2284,98705;2,32526
2282,93589;2,32728
2280,88474;2,3304
2278,83358;2,33268
2276,78243;2,33363
2274,73127;2,33369
2272,68011;2,33393
2270,62896;2,33446
2268,5778;2,33519
2266,52665;2,33652
2264,47549;2,33789
2262,42434;2,33826
2260,37318;2,3379
2258,32203;2,33868
2256,27087;2,34076
2254,21972;2,34255
2252,16856;2,34369
2250,11741;2,34355
2248,06625;2,34307
2246,0151;2,34489
2243,96394;2,34789
2241,91278;2,34985
2239,86163;2,34959
2237,81047;2,34786
2235,75932;2,34918
2233,70816;2,3526
2231,65701;2,35457
2229,60585;2,35768
2227,5547;2,36249
2225,50354;2,36676
2223,45239;2,37088
2221,40123;2,3719
2219,35008;2,36817
2217,29892;2,36554
2215,24777;2,36736
2213,19661;2,37152
2211,14545;2,37493
2209,0943;2,37601
2207,04314;2,37674
2204,99199;2,3789
2202,94083;2,38066
2200,88968;2,38042
2198,83852;2,37977
2196,78737;2,38101
2194,73621;2,38275
2192,68506;2,38341
2190,6339;2,38524
2188,58275;2,38837
2186,53159;2,39083
2184,48044;2,39392
2182,42928;2,39755
2180,37812;2,39774
2178,32697;2,39537
2176,27581;2,39479
2174,22466;2,39686
2172,1735;2,39979
2170,12235;2,40189
2168,07119;2,40391
2166,02004;2,40726
2163,96888;2,41086
2161,91773;2,41441
2159,86657;2,42151
2157,81542;2,43159
2155,76426;2,43956
2153,71311;2,44378
2151,66195;2,44609
2149,61079;2,4494
2147,55964;2,45258
2145,50848;2,45357
2143,45733;2,45493
2141,40617;2,4593
2139,35502;2,46359
2137,30386;2,46195
2135,25271;2,45676
2133,20155;2,45408
2131,1504;2,45329
2129,09924;2,45035
2127,04809;2,44409
2124,99693;2,43726
2122,94578;2,43156
2120,89462;2,42518
2118,84346;2,4195
2116,79231;2,41663
2114,74115;2,41381
2112,69;2,4119
2110,63884;2,41315
2108,58769;2,41371
2106,53653;2,4116
2104,48538;2,4092
2102,43422;2,40767
2100,38307;2,40732
2098,33191;2,40771
2096,28076;2,40749
2094,2296;2,4066
2092,17844;2,40692
2090,12729;2,40864
2088,07613;2,40964
2086,02498;2,40942
2083,97382;2,40948
2081,92267;2,41103
2079,87151;2,41246
2077,82036;2,41253
2075,7692;2,41276
2073,71805;2,41361
2071,66689;2,41535
2069,61574;2,41803
2067,56458;2,42002
2065,51343;2,42103
2063,46227;2,42151
2061,41111;2,42077
2059,35996;2,41966
2057,3088;2,4201
2055,25765;2,42206
2053,20649;2,42426
2051,15534;2,42655
2049,10418;2,42866
2047,05303;2,42917
2045,00187;2,42943
2042,95072;2,43147
2040,89956;2,43303
2038,84841;2,43263
2036,79725;2,43172
2034,7461;2,43185
2032,69494;2,43429
2030,64378;2,43701
2028,59263;2,43759
2026,54147;2,43753
2024,49032;2,43768
2022,43916;2,43769
2020,38801;2,43796
2018,33685;2,43746
2016,2857;2,43654
2014,23454;2,4383
2012,18339;2,44141
2010,13223;2,44184
2008,08108;2,43891
2006,02992;2,43448
2003,97877;2,43189
2001,92761;2,43446
1999,87645;2,4401
1997,8253;2,4435
1995,77414;2,44481
1993,72299;2,44619
1991,67183;2,44772
1989,62068;2,44855
1987,56952;2,44738
1985,51837;2,44704
1983,46721;2,44876
1981,41606;2,44922
1979,3649;2,44779
1977,31375;2,44702
1975,26259;2,4482
1973,21144;2,4512
1971,16028;2,45674
1969,10912;2,46399
1967,05797;2,46932
1965,00681;2,47283
1962,95566;2,47688
1960,9045;2,47935
1958,85335;2,47779
1956,80219;2,47471
1954,75104;2,47102
1952,69988;2,46678
1950,64873;2,46595
1948,59757;2,47034
1946,54642;2,47546
1944,49526;2,4765
1942,44411;2,4743
1940,39295;2,47133
1938,34179;2,4688
1936,29064;2,47118
1934,23948;2,47738
1932,18833;2,48034
1930,13717;2,48037
1928,08602;2,48285
1926,03486;2,48742
1923,98371;2,49062
1921,93255;2,49396
1919,8814;2,4971
1917,83024;2,49704
1915,77909;2,49572
1913,72793;2,49597
1911,67678;2,49827
1909,62562;2,5001
1907,57446;2,50101
1905,52331;2,50386
1903,47215;2,50887
1901,421;2,51229
1899,36984;2,51282
1897,31869;2,51308
1895,26753;2,51413
1893,21638;2,51464
1891,16522;2,51494
1889,11407;2,51799
1887,06291;2,52278
1885,01176;2,52576
1882,9606;2,52873
1880,90945;2,53292
1878,85829;2,53533
1876,80713;2,535
1874,75598;2,53629
1872,70482;2,543
1870,65367;2,5533
1868,60251;2,5626
1866,55136;2,5659
1864,5002;2,563
1862,44905;2,55938
1860,39789;2,56003
1858,34674;2,56531
1856,29558;2,57096
1854,24443;2,57563
1852,19327;2,58159
1850,14212;2,58875
1848,09096;2,59675
1846,0398;2,60446
1843,98865;2,60933
1841,93749;2,61207
1839,88634;2,61454
1837,83518;2,6181
1835,78403;2,62283
1833,73287;2,63058
1831,68172;2,64231
1829,63056;2,65292
1827,57941;2,65742
1825,52825;2,65825
1823,4771;2,66123
1821,42594;2,66491
1819,37478;2,66809
1817,32363;2,6734
1815,27247;2,68148
1813,22132;2,69251
1811,17016;2,70618
1809,11901;2,71968
1807,06785;2,73136
1805,0167;2,74146
1802,96554;2,75114
1800,91439;2,76248
1798,86323;2,77322
1796,81208;2,7798
1794,76092;2,78467
1792,70977;2,79106
1790,65861;2,79693
1788,60745;2,7946
1786,5563;2,78202
1784,50514;2,76904
1782,45399;2,76661
1780,40283;2,77308
1778,35168;2,77853
1776,30052;2,78045
1774,24937;2,78225
1772,19821;2,78594
1770,14706;2,79595
1768,0959;2,8114
1766,04475;2,82702
1763,99359;2,84013
1761,94244;2,85871
1759,89128;2,88641
1757,84012;2,90882
1755,78897;2,92038
1753,73781;2,92829
1751,68666;2,93574
1749,6355;2,93683
1747,58435;2,92449
1745,53319;2,9046
1743,48204;2,88312
1741,43088;2,85763
1739,37973;2,83134
1737,32857;2,81509
1735,27742;2,80666
1733,22626;2,80433
1731,17511;2,80369
1729,12395;2,79725
1727,07279;2,79292
1725,02164;2,79562
1722,97048;2,79777
1720,91933;2,79507
1718,86817;2,79844
1716,81702;2,81466
1714,76586;2,82598
1712,71471;2,82835
1710,66355;2,82997
1708,6124;2,83225
1706,56124;2,838
1704,51009;2,84819
1702,45893;2,85443
1700,40778;2,86196
1698,35662;2,87562
1696,30546;2,87299
1694,25431;2,8635
1692,20315;2,86408
1690,152;2,86752
1688,10084;2,86747
1686,04969;2,86479
1683,99853;2,86761
1681,94738;2,87728
1679,89622;2,88268
1677,84507;2,87815
1675,79391;2,86619
1673,74276;2,85927
1671,6916;2,85412
1669,64045;2,83956
1667,58929;2,8263
1665,53813;2,82541
1663,48698;2,83063
1661,43582;2,8315
1659,38467;2,8245
1657,33351;2,81575
1655,28236;2,80494
1653,2312;2,79348
1651,18005;2,79992
1649,12889;2,81638
1647,07774;2,81809
1645,02658;2,7982
1642,97543;2,77427
1640,92427;2,76059
1638,87312;2,75465
1636,82196;2,74666
1634,7708;2,73973
1632,71965;2,7397
1630,66849;2,7393
1628,61734;2,73591
1626,56618;2,73113
1624,51503;2,72534
1622,46387;2,72322
1620,41272;2,72614
1618,36156;2,72715
1616,31041;2,72621
1614,25925;2,72415
1612,2081;2,71957
1610,15694;2,71882
1608,10579;2,72152
1606,05463;2,72071
1604,00347;2,72009
1601,95232;2,72483
1599,90116;2,72816
1597,85001;2,72391
1595,79885;2,71883
1593,7477;2,72214
1591,69654;2,73145
1589,64539;2,73668
1587,59423;2,73507
1585,54308;2,73178
1583,49192;2,72871
1581,44077;2,7264
1579,38961;2,72883
1577,33846;2,73484
1575,2873;2,74067
1573,23614;2,7453
1571,18499;2,74726
1569,13383;2,74612
1567,08268;2,74055
1565,03152;2,73244
1562,98037;2,72363
1560,92921;2,71177
1558,87806;2,70887
1556,8269;2,71927
1554,77575;2,72118
1552,72459;2,71588
1550,67344;2,71083
1548,62228;2,70641
1546,57113;2,70379
1544,51997;2,70689
1542,46881;2,71446
1540,41766;2,71218
1538,3665;2,69854
1536,31535;2,6867
1534,26419;2,67427
1532,21304;2,6645
1530,16188;2,66264
1528,11073;2,66441
1526,05957;2,66742
1524,00842;2,66965
1521,95726;2,6659
1519,90611;2,66118
1517,85495;2,6587
1515,80379;2,65404
1513,75264;2,64769
1511,70148;2,64652
1509,65033;2,65149
1507,59917;2,6467
1505,54802;2,62845
1503,49686;2,61503
1501,44571;2,60882
1499,39455;2,60707
1497,3434;2,60763
1495,29224;2,6101
1493,24109;2,61769
1491,18993;2,6301
1489,13878;2,64045
1487,08762;2,63881
1485,03646;2,63191
1482,98531;2,62969
1480,93415;2,63331
1478,883;2,64227
1476,83184;2,65698
1474,78069;2,67646
1472,72953;2,69423
1470,67838;2,70433
1468,62722;2,70643
1466,57607;2,70389
1464,52491;2,70039
1462,47376;2,6981
1460,4226;2,69706
1458,37145;2,69656
1456,32029;2,69418
1454,26913;2,68674
1452,21798;2,67622
1450,16682;2,66646
1448,11567;2,66047
1446,06451;2,66259
1444,01336;2,66866
1441,9622;2,67272
1439,91105;2,67548
1437,85989;2,67355
1435,80874;2,66581
1433,75758;2,65782
1431,70643;2,65212
1429,65527;2,65045
1427,60412;2,65197
1425,55296;2,65316
1423,5018;2,65489
1421,45065;2,65863
1419,39949;2,6599
1417,34834;2,65422
1415,29718;2,64349
1413,24603;2,63527
1411,19487;2,63249
1409,14372;2,63423
1407,09256;2,64069
1405,04141;2,64925
1402,99025;2,65602
1400,9391;2,66057
1398,88794;2,66625
1396,83679;2,67259
1394,78563;2,67332
1392,73447;2,66858
1390,68332;2,66471
1388,63216;2,6671
1386,58101;2,67496
1384,52985;2,68085
1382,4787;2,68212
1380,42754;2,68114
1378,37639;2,67803
1376,32523;2,6756
1374,27408;2,67988
1372,22292;2,689
1370,17177;2,69292
1368,12061;2,68989
1366,06946;2,68564
1364,0183;2,68317
1361,96714;2,68151
1359,91599;2,67901
1357,86483;2,67844
1355,81368;2,68164
1353,76252;2,68373
1351,71137;2,68121
1349,66021;2,67859
1347,60906;2,68135
1345,5579;2,68935
1343,50675;2,70048
1341,45559;2,71203
1339,40444;2,71663
1337,35328;2,70808
1335,30213;2,69429
1333,25097;2,68692
1331,19981;2,68716
1329,14866;2,69166
1327,0975;2,69616
1325,04635;2,69583
1322,99519;2,69322
1320,94404;2,69566
1318,89288;2,70504
1316,84173;2,7157
1314,79057;2,72021
1312,73942;2,7187
1310,68826;2,71768
1308,63711;2,71836
1306,58595;2,71784
1304,5348;2,71647
1302,48364;2,71348
1300,43248;2,70925
1298,38133;2,70961
1296,33017;2,71387
1294,27902;2,71763
1292,22786;2,72184
1290,17671;2,72616
1288,12555;2,7272
1286,0744;2,72668
1284,02324;2,72737
1281,97209;2,72499
1279,92093;2,72166
1277,86978;2,72502
1275,81862;2,72882
1273,76747;2,72806
1271,71631;2,73058
1269,66515;2,73663
1267,614;2,73793
1265,56284;2,73482
1263,51169;2,73585
1261,46053;2,74166
1259,40938;2,74654
1257,35822;2,75038
1255,30707;2,75305
1253,25591;2,75149
1251,20476;2,74904
1249,1536;2,75222
1247,10245;2,75647
1245,05129;2,75338
1243,00013;2,74776
1240,94898;2,74483
1238,89782;2,74146
1236,84667;2,73684
1234,79551;2,73184
1232,74436;2,72781
1230,6932;2,72752
1228,64205;2,72996
1226,59089;2,73234
1224,53974;2,73231
1222,48858;2,73028
1220,43743;2,73294
1218,38627;2,74009
1216,33512;2,74167
1214,28396;2,73743
1212,2328;2,73436
1210,18165;2,73003
1208,13049;2,72448
1206,07934;2,7233
1204,02818;2,72383
1201,97703;2,72626
1199,92587;2,73304
1197,87472;2,74217
1195,82356;2,75069
1193,77241;2,75033
1191,72125;2,74081
1189,6701;2,73963
1187,61894;2,75587
1185,56779;2,7695
1183,51663;2,76782
1181,46547;2,76482
1179,41432;2,76352
1177,36316;2,76396
1175,31201;2,7675
1173,26085;2,76557
1171,2097;2,7604
1169,15854;2,75685
1167,10739;2,75583
1165,05623;2,7605
1163,00508;2,76056
1160,95392;2,75012
1158,90277;2,74077
1156,85161;2,73946
1154,80046;2,74652
1152,7493;2,75826
1150,69814;2,76419
1148,64699;2,76241
1146,59583;2,76129
1144,54468;2,76109
1142,49352;2,75683
1140,44237;2,74647
1138,39121;2,73953
1136,34006;2,74596
1134,2889;2,75586
1132,23775;2,75695
1130,18659;2,75791
1128,13544;2,7668
1126,08428;2,77362
1124,03313;2,77678
1121,98197;2,7833
1119,93081;2,79281
1117,87966;2,80167
1115,8285;2,80431
1113,77735;2,79817
1111,72619;2,79051
1109,67504;2,79054
1107,62388;2,79219
1105,57273;2,78689
1103,52157;2,78275
1101,47042;2,7857
1099,41926;2,7902
1097,36811;2,79206
1095,31695;2,78927
1093,2658;2,78111
1091,21464;2,77433
1089,16348;2,77491
1087,11233;2,77564
1085,06117;2,76933
1083,01002;2,76792
1080,95886;2,77833
1078,90771;2,7849
1076,85655;2,78322
1074,8054;2,77801
1072,75424;2,76575
1070,70309;2,75927
1068,65193;2,77128
1066,60078;2,78667
1064,54962;2,78125
1062,49847;2,75654
1060,44731;2,73588
1058,39615;2,73496
1056,345;2,74569
1054,29384;2,74315
1052,24269;2,72956
1050,19153;2,72277
1048,14038;2,71766
1046,08922;2,7087
1044,03807;2,70136
1041,98691;2,69784
1039,93576;2,69187
1037,8846;2,6741
1035,83345;2,64804
1033,78229;2,62602
1031,73114;2,61099
1029,67998;2,59792
1027,62882;2,58896
1025,57767;2,58366
1023,52651;2,57353
1021,47536;2,56058
1019,4242;2,55054
1017,37305;2,54117
1015,32189;2,53133
1013,27074;2,52182
1011,21958;2,51246
1009,16843;2,50322
1007,11727;2,49509
1005,06612;2,4894
1003,01496;2,48411
1000,96381;2,48016
998,91265;2,4814
996,86149;2,48372
994,81034;2,48356
992,75918;2,48512
990,70803;2,4881
988,65687;2,48669
986,60572;2,48328
984,55456;2,48608
982,50341;2,49284
980,45225;2,49438
978,4011;2,49296
976,34994;2,49678
974,29879;2,50145
972,24763;2,50176
970,19647;2,50256
968,14532;2,50611
966,09416;2,51045
964,04301;2,51239
961,99185;2,51101
959,9407;2,5102
957,88954;2,51415
955,83839;2,51859
953,78723;2,51682
951,73608;2,51466
949,68492;2,51795
947,63377;2,52413
945,58261;2,52877
943,53146;2,53162
941,4803;2,53661
939,42914;2,54306
937,37799;2,54663
935,32683;2,54505
933,27568;2,54011
931,22452;2,53877
929,17337;2,54754
927,12221;2,55874
925,07106;2,56094
923,0199;2,55971
920,96875;2,56067
918,91759;2,56497
916,86644;2,57299
914,81528;2,57529
912,76413;2,57272
910,71297;2,57405
908,66181;2,57615
906,61066;2,57859
904,5595;2,58268
902,50835;2,58357
900,45719;2,58294
898,40604;2,58652
896,35488;2,59102
894,30373;2,59205
892,25257;2,59287
890,20142;2,59167
888,15026;2,58911
886,09911;2,59289
884,04795;2,60219
881,9968;2,60669
879,94564;2,60368
877,89448;2,60131
875,84333;2,60324
873,79217;2,60521
871,74102;2,60391
869,68986;2,6054
867,63871;2,60936
865,58755;2,61495
863,5364;2,62495
861,48524;2,6253
859,43409;2,61379
857,38293;2,60855
855,33178;2,61788
853,28062;2,63436
851,22947;2,64288
849,17831;2,63906
847,12715;2,62935
845,076;2,62177
843,02484;2,62573
840,97369;2,64338
838,92253;2,66211
836,87138;2,66934
834,82022;2,66899
832,76907;2,66318
830,71791;2,65328
828,66676;2,64647
826,6156;2,64383
824,56445;2,64285
822,51329;2,64507
820,46214;2,65199
818,41098;2,66024
816,35982;2,66391
814,30867;2,66322
812,25751;2,65751
810,20636;2,65135
808,1552;2,64728
806,10405;2,64042
804,05289;2,64359
802,00174;2,66401
799,95058;2,68091
797,89943;2,68443
795,84827;2,67954
793,79712;2,67859
791,74596;2,69198
789,69481;2,69245
787,64365;2,67012
785,59249;2,66576
783,54134;2,68185
781,49018;2,68269
779,43903;2,67352
777,38787;2,67284
775,33672;2,68452
773,28556;2,69742
771,23441;2,69775
769,18325;2,69152
767,1321;2,68938
765,08094;2,69705
763,02979;2,71105
760,97863;2,72049
758,92748;2,72118
756,87632;2,71523
754,82516;2,70361
752,77401;2,68614
750,72285;2,67629
748,6717;2,69009
746,62054;2,70941
744,56939;2,70778
742,51823;2,70349
740,46708;2,71703
738,41592;2,72538
736,36477;2,70452
734,31361;2,68249
732,26246;2,69463
730,2113;2,72333
728,16015;2,73192
726,10899;2,72862
724,05783;2,72174
722,00668;2,71019
719,95552;2,70899
717,90437;2,71935
715,85321;2,71988
713,80206;2,70737
711,7509;2,70041
709,69975;2,70241
707,64859;2,70394
705,59744;2,70336
703,54628;2,70234
701,49513;2,70238
699,44397;2,70754
697,39281;2,70876
695,34166;2,69274
693,2905;2,67695
691,23935;2,68388
689,18819;2,69514
687,13704;2,68292
685,08588;2,66135
683,03473;2,65786
680,98357;2,66802
678,93242;2,67845
676,88126;2,6804
674,83011;2,66437
672,77895;2,64625
670,7278;2,64651
668,67664;2,66043
666,62548;2,66858
664,57433;2,66046
662,52317;2,64585
660,47202;2,64738
658,42086;2,6721
656,36971;2,69423
654,31855;2,69157
652,2674;2,67891
650,21624;2,67994
648,16509;2,69086
646,11393;2,6956
644,06278;2,69506
642,01162;2,69639
639,96047;2,69337
637,90931;2,67411
635,85815;2,6416
633,807;2,61823
631,75584;2,62172
629,70469;2,64142
627,65353;2,65075
625,60238;2,64204
623,55122;2,63188
621,50007;2,63261
619,44891;2,64263
617,39776;2,66007
615,3466;2,67826
613,29545;2,68117
611,24429;2,66274
609,19314;2,64719
607,14198;2,64855
605,09082;2,6515
603,03967;2,65746
600,98851;2,67022
598,93736;2,67534
596,8862;2,67494
594,83505;2,67393
592,78389;2,66682
590,73274;2,65941
588,68158;2,65833
586,63043;2,66004
584,57927;2,66796
582,52812;2,67913
580,47696;2,67385
578,42581;2,65642
576,37465;2,65746
574,32349;2,67688
572,27234;2,69002
570,22118;2,69726
568,17003;2,71421
566,11887;2,74306
564,06772;2,76156
562,01656;2,75512
559,96541;2,73601
557,91425;2,70797
555,8631;2,69378
553,81194;2,70682
551,76079;2,71757
549,70963;2,71571
547,65848;2,7083
545,60732;2,69314
543,55616;2,67605
541,50501;2,6582
539,45385;2,65183
537,4027;2,6702
535,35154;2,69106
533,30039;2,69209
531,24923;2,68599
529,19808;2,6926
527,14692;2,70493
525,09577;2,69354
523,04461;2,67551
520,99346;2,6832
518,9423;2,70321
516,89115;2,69356
514,83999;2,63857
512,78883;2,58577
510,73768;2,57782
508,68652;2,602
506,63537;2,6212
504,58421;2,61834
502,53306;2,59608
500,4819;2,56701
498,43075;2,54982
496,37959;2,54523
494,32844;2,53522
492,27728;2,52413
490,22613;2,52766
488,17497;2,52933
486,12382;2,51151
484,07266;2,48494
482,0215;2,47418
479,97035;2,485
477,91919;2,48687
475,86804;2,45712
473,81688;2,4228
471,76573;2,41431
469,71457;2,41678
467,66342;2,40888
465,61226;2,38197
463,56111;2,34714
461,50995;2,32945
459,4588;2,32626
457,40764;2,31969
455,35649;2,31307
453,30533;2,31463
451,25417;2,3111
449,20302;2,28455
447,15186;2,25313
445,10071;2,24886
443,04955;2,26937
440,9984;2,28133
438,94724;2,28248
436,89609;2,30134
434,84493;2,32402
432,79378;2,31132
430,74262;2,28039
428,69147;2,28164
426,64031;2,31806
424,58916;2,34398
422,538;2,33781
420,48684;2,32763
418,43569;2,3517
416,38453;2,41271
414,33338;2,46106
412,28222;2,44997
410,23107;2,39251
408,17991;2,33375
406,12876;2,32775
404,0776;2,38184
402,02645;2,43234
399,97529;2,43171
