3997,70175;2,11605
3995,6506;2,11724
3993,59944;2,12029
3991,54829;2,12261
3989,49713;2,12259
3987,44598;2,1225
3985,39482;2,12342
3983,34367;2,12236
3981,29251;2,12041
3979,24136;2,12177
3977,1902;2,12502
3975,13905;2,12792
3973,08789;2,1307
3971,03673;2,13205
3968,98558;2,13356
3966,93442;2,13687
3964,88327;2,13888
3962,83211;2,13931
3960,78096;2,14016
3958,7298;2,14024
3956,67865;2,14057
3954,62749;2,14351
3952,57634;2,14553
3950,52518;2,14368
3948,47403;2,14248
3946,42287;2,14609
3944,37172;2,15202
3942,32056;2,1547
3940,2694;2,15248
3938,21825;2,14877
3936,16709;2,14687
3934,11594;2,14648
3932,06478;2,14276
3930,01363;2,13558
3927,96247;2,13013
3925,91132;2,12563
3923,86016;2,12002
3921,80901;2,11677
3919,75785;2,11466
3917,7067;2,10872
3915,65554;2,10122
3913,60439;2,09657
3911,55323;2,09564
3909,50207;2,09538
3907,45092;2,09394
3905,39976;2,09093
3903,34861;2,08442
3901,29745;2,07712
3899,2463;2,07214
3897,19514;2,07143
3895,14399;2,0752
3893,09283;2,0791
3891,04168;2,07692
3888,99052;2,07367
3886,93937;2,07646
3884,88821;2,07866
3882,83706;2,07715
3880,7859;2,07265
3878,73474;2,06785
3876,68359;2,06921
3874,63243;2,07246
3872,58128;2,07635
3870,53012;2,0796
3868,47897;2,07773
3866,42781;2,07761
3864,37666;2,07668
3862,3255;2,06888
3860,27435;2,06211
3858,22319;2,06288
3856,17204;2,06755
3854,12088;2,06292
3852,06973;2,05039
3850,01857;2,05077
3847,96741;2,0577
3845,91626;2,06434
3843,8651;2,06926
3841,81395;2,07174
3839,76279;2,0703
3837,71164;2,06351
3835,66048;2,05738
3833,60933;2,05493
3831,55817;2,0538
3829,50702;2,05642
3827,45586;2,06132
3825,40471;2,06527
3823,35355;2,07204
3821,3024;2,07701
3819,25124;2,07384
3817,20008;2,06974
3815,14893;2,06376
3813,09777;2,06211
3811,04662;2,06872
3808,99546;2,07603
3806,94431;2,07728
3804,89315;2,07859
3802,842;2,08456
3800,79084;2,08576
3798,73969;2,08342
3796,68853;2,08258
3794,63738;2,08222
3792,58622;2,0853
3790,53506;2,09025
3788,48391;2,09486
3786,43275;2,09898
3784,3816;2,09848
3782,33044;2,09579
3780,27929;2,0979
3778,22813;2,10336
3776,17698;2,10948
3774,12582;2,11581
3772,07467;2,12099
3770,02351;2,12515
3767,97236;2,1281
3765,9212;2,12667
3763,87005;2,12551
3761,81889;2,13151
3759,76773;2,13813
3757,71658;2,14085
3755,66542;2,14658
3753,61427;2,15488
3751,56311;2,15825
3749,51196;2,15896
3747,4608;2,16566
3745,40965;2,17126
3743,35849;2,17271
3741,30734;2,18085
3739,25618;2,19359
3737,20503;2,20392
3735,15387;2,21046
3733,10272;2,21738
3731,05156;2,22733
3729,0004;2,2408
3726,94925;2,25624
3724,89809;2,2676
3722,84694;2,27483
3720,79578;2,28373
3718,74463;2,29398
3716,69347;2,30568
3714,64232;2,32121
3712,59116;2,34176
3710,54001;2,3663
3708,48885;2,38706
3706,4377;2,39996
3704,38654;2,41256
3702,33539;2,43675
3700,28423;2,47433
3698,23307;2,5143
3696,18192;2,54791
3694,13076;2,56898
3692,07961;2,58329
3690,02845;2,60415
3687,9773;2,6296
3685,92614;2,64904
3683,87499;2,67275
3681,82383;2,70164
3679,77268;2,71796
3677,72152;2,72928
3675,67037;2,75506
3673,61921;2,78387
3671,56806;2,80553
3669,5169;2,81307
3667,46574;2,80866
3665,41459;2,80752
3663,36343;2,81563
3661,31228;2,83966
3659,26112;2,87186
3657,20997;2,88376
3655,15881;2,87231
3653,10766;2,87808
3651,0565;2,91435
3649,00535;2,94758
3646,95419;2,94577
3644,90304;2,94331
3642,85188;2,94807
3640,80073;2,94484
3638,74957;2,93377
3636,69841;2,92963
3634,64726;2,93582
3632,5961;2,95169
3630,54495;2,97867
3628,49379;2,99778
3626,44264;2,99607
3624,39148;2,98295
3622,34033;2,96709
3620,28917;2,96357
3618,23802;2,97835
3616,18686;2,99879
3614,13571;3,01154
3612,08455;3,01003
3610,0334;3,00265
3607,98224;2,99124
3605,93108;2,9793
3603,87993;2,9738
3601,82877;2,97438
3599,77762;2,98232
3597,72646;2,99361
3595,67531;2,99968
3593,62415;3,00363
3591,573;3,00916
3589,52184;3,00979
3587,47069;3,01325
3585,41953;3,02608
3583,36838;3,02643
3581,31722;3,01782
3579,26607;3,01707
3577,21491;3,02092
3575,16375;3,02137
3573,1126;3,01841
3571,06144;3,00712
3569,01029;2,99378
3566,95913;2,99752
3564,90798;3,00794
3562,85682;3,00557
3560,80567;2,99802
3558,75451;2,99533
3556,70336;2,99868
3554,6522;2,99666
3552,60105;2,98685
3550,54989;2,98338
3548,49874;3,00342
3546,44758;3,02986
3544,39642;3,02515
3542,34527;3,00916
3540,29411;3,00446
3538,24296;3,00634
3536,1918;3,01152
3534,14065;3,01128
3532,08949;3,0053
3530,03834;3,00247
3527,98718;3,00692
3525,93603;3,00564
3523,88487;2,99922
3521,83372;2,99764
3519,78256;2,9912
3517,73141;2,98261
3515,68025;2,9842
3513,62909;2,99102
3511,57794;2,99404
3509,52678;3,00009
3507,47563;3,00688
3505,42447;3,01004
3503,37332;3,01723
3501,32216;3,02008
3499,27101;3,01771
3497,21985;3,01443
3495,1687;3,01716
3493,11754;3,02473
3491,06639;3,0083
3489,01523;2,97092
3486,96407;2,9424
3484,91292;2,93798
3482,86176;2,95618
3480,81061;2,97065
3478,75945;2,9642
3476,7083;2,9575
3474,65714;2,96233
3472,60599;2,96975
3470,55483;2,97615
3468,50368;2,97583
3466,45252;2,95053
3464,40137;2,92255
3462,35021;2,92304
3460,29906;2,93532
3458,2479;2,94127
3456,19674;2,94285
3454,14559;2,9339
3452,09443;2,91813
3450,04328;2,91516
3447,99212;2,92274
3445,94097;2,92054
3443,88981;2,91051
3441,83866;2,91421
3439,7875;2,9345
3437,73635;2,95118
3435,68519;2,95442
3433,63404;2,94402
3431,58288;2,91744
3429,53173;2,89177
3427,48057;2,88376
3425,42941;2,89254
3423,37826;2,90904
3421,3271;2,92363
3419,27595;2,93644
3417,22479;2,93868
3415,17364;2,921
3413,12248;2,89906
3411,07133;2,88649
3409,02017;2,8794
3406,96902;2,8774
3404,91786;2,88065
3402,86671;2,87986
3400,81555;2,87252
3398,7644;2,86681
3396,71324;2,88248
3394,66208;2,90532
3392,61093;2,89853
3390,55977;2,88313
3388,50862;2,88038
3386,45746;2,87295
3384,40631;2,86041
3382,35515;2,85674
3380,304;2,85936
3378,25284;2,85942
3376,20169;2,86333
3374,15053;2,87908
3372,09938;2,89482
3370,04822;2,89916
3367,99707;2,89335
3365,94591;2,88207
3363,89475;2,87269
3361,8436;2,87011
3359,79244;2,87236
3357,74129;2,86843
3355,69013;2,86008
3353,63898;2,85679
3351,58782;2,85424
3349,53667;2,85195
3347,48551;2,85438
3345,43436;2,85921
3343,3832;2,85683
3341,33205;2,84546
3339,28089;2,83957
3337,22974;2,84379
3335,17858;2,85093
3333,12742;2,85319
3331,07627;2,84574
3329,02511;2,83127
3326,97396;2,82381
3324,9228;2,82931
3322,87165;2,83616
3320,82049;2,84198
3318,76934;2,85525
3316,71818;2,86501
3314,66703;2,85653
3312,61587;2,84094
3310,56472;2,83734
3308,51356;2,84589
3306,46241;2,85045
3304,41125;2,84237
3302,36009;2,82923
3300,30894;2,8224
3298,25778;2,82176
3296,20663;2,82002
3294,15547;2,81867
3292,10432;2,82302
3290,05316;2,83183
3288,00201;2,83204
3285,95085;2,81641
3283,8997;2,80608
3281,84854;2,81576
3279,79739;2,82992
3277,74623;2,82891
3275,69508;2,81378
3273,64392;2,80151
3271,59276;2,80291
3269,54161;2,81102
3267,49045;2,81313
3265,4393;2,8092
3263,38814;2,80884
3261,33699;2,81538
3259,28583;2,81891
3257,23468;2,81718
3255,18352;2,81784
3253,13237;2,81589
3251,08121;2,81065
3249,03006;2,81246
3246,9789;2,81232
3244,92775;2,80144
3242,87659;2,79744
3240,82543;2,80228
3238,77428;2,8061
3236,72312;2,80996
3234,67197;2,80903
3232,62081;2,80369
3230,56966;2,80096
3228,5185;2,80185
3226,46735;2,80225
3224,41619;2,79894
3222,36504;2,79696
3220,31388;2,80116
3218,26273;2,80806
3216,21157;2,80813
3214,16041;2,79983
3212,10926;2,79374
3210,0581;2,79499
3208,00695;2,79143
3205,95579;2,77812
3203,90464;2,76899
3201,85348;2,77151
3199,80233;2,78166
3197,75117;2,78846
3195,70002;2,78837
3193,64886;2,79234
3191,59771;2,80628
3189,54655;2,81744
3187,4954;2,80996
3185,44424;2,7923
3183,39308;2,78669
3181,34193;2,79549
3179,29077;2,8037
3177,23962;2,80581
3175,18846;2,80394
3173,13731;2,79938
3171,08615;2,79772
3169,035;2,79522
3166,98384;2,78822
3164,93269;2,79273
3162,88153;2,80825
3160,83038;2,81449
3158,77922;2,80697
3156,72807;2,79594
3154,67691;2,79213
3152,62575;2,79404
3150,5746;2,79491
3148,52344;2,79708
3146,47229;2,79832
3144,42113;2,79336
3142,36998;2,79377
3140,31882;2,79714
3138,26767;2,79095
3136,21651;2,78623
3134,16536;2,78858
3132,1142;2,78888
3130,06305;2,79124
3128,01189;2,79776
3125,96074;2,7961
3123,90958;2,7888
3121,85842;2,78258
3119,80727;2,78124
3117,75611;2,79038
3115,70496;2,8004
3113,6538;2,80378
3111,60265;2,80741
3109,55149;2,80752
3107,50034;2,799
3105,44918;2,79537
3103,39803;2,7973
3101,34687;2,79256
3099,29572;2,78715
3097,24456;2,78627
3095,19341;2,78642
3093,14225;2,79286
3091,09109;2,80326
3089,03994;2,80371
3086,98878;2,79714
3084,93763;2,79322
3082,88647;2,79426
3080,83532;2,79763
3078,78416;2,79802
3076,73301;2,79772
3074,68185;2,80067
3072,6307;2,80218
3070,57954;2,79948
3068,52839;2,79762
3066,47723;2,79924
3064,42608;2,79964
3062,37492;2,79725
3060,32376;2,79719
3058,27261;2,79963
3056,22145;2,79781
3054,1703;2,79317
3052,11914;2,79322
3050,06799;2,79592
3048,01683;2,79556
3045,96568;2,79231
3043,91452;2,78867
3041,86337;2,78551
3039,81221;2,78215
3037,76106;2,78025
3035,7099;2,78052
3033,65875;2,78728
3031,60759;2,79797
3029,55643;2,80068
3027,50528;2,79505
3025,45412;2,78742
3023,40297;2,78795
3021,35181;2,79578
3019,30066;2,80017
3017,2495;2,80151
3015,19835;2,80308
3013,14719;2,80261
3011,09604;2,80163
3009,04488;2,80717
3006,99373;2,81627
3004,94257;2,82068
3002,89142;2,81973
3000,84026;2,8147
2998,7891;2,81064
2996,73795;2,81141
2994,68679;2,81186
2992,63564;2,80764
2990,58448;2,80152
2988,53333;2,80301
2986,48217;2,81287
2984,43102;2,81766
2982,37986;2,81597
2980,32871;2,81489
2978,27755;2,80718
2976,2264;2,79898
2974,17524;2,80748
2972,12409;2,82321
2970,07293;2,83188
2968,02177;2,83297
2965,97062;2,8263
2963,91946;2,8148
2961,86831;2,80775
2959,81715;2,8124
2957,766;2,82234
2955,71484;2,82741
2953,66369;2,83223
2951,61253;2,83885
2949,56138;2,84004
2947,51022;2,83467
2945,45907;2,82738
2943,40791;2,8267
2941,35675;2,83078
2939,3056;2,8292
2937,25444;2,8198
2935,20329;2,80894
2933,15213;2,80086
2931,10098;2,79696
2929,04982;2,80253
2926,99867;2,81127
2924,94751;2,81506
2922,89636;2,82132
2920,8452;2,82758
2918,79405;2,8265
2916,74289;2,82818
2914,69174;2,83564
2912,64058;2,83731
2910,58942;2,83108
2908,53827;2,82223
2906,48711;2,81879
2904,43596;2,81909
2902,3848;2,81445
2900,33365;2,80589
2898,28249;2,80265
2896,23134;2,80533
2894,18018;2,80155
2892,12903;2,79408
2890,07787;2,79958
2888,02672;2,8111
2885,97556;2,80759
2883,92441;2,79459
2881,87325;2,79004
2879,82209;2,7955
2877,77094;2,79991
2875,71978;2,80096
2873,66863;2,80617
2871,61747;2,81072
2869,56632;2,80886
2867,51516;2,80467
2865,46401;2,80224
2863,41285;2,80608
2861,3617;2,81072
2859,31054;2,80896
2857,25939;2,80263
2855,20823;2,79144
2853,15708;2,7811
2851,10592;2,77954
2849,05476;2,78011
2847,00361;2,77815
2844,95245;2,78157
2842,9013;2,78872
2840,85014;2,78979
2838,79899;2,78434
2836,74783;2,77283
2834,69668;2,75966
2832,64552;2,75384
2830,59437;2,75711
2828,54321;2,76311
2826,49206;2,76502
2824,4409;2,76038
2822,38975;2,75163
2820,33859;2,74672
2818,28743;2,74959
2816,23628;2,75585
2814,18512;2,75851
2812,13397;2,75405
2810,08281;2,7488
2808,03166;2,74651
2805,9805;2,74319
2803,92935;2,73911
2801,87819;2,73385
2799,82704;2,72832
2797,77588;2,72811
2795,72473;2,73153
2793,67357;2,7364
2791,62242;2,74042
2789,57126;2,73956
2787,5201;2,72882
2785,46895;2,71494
2783,41779;2,71184
2781,36664;2,71402
2779,31548;2,71132
2777,26433;2,70378
2775,21317;2,69811
2773,16202;2,69873
2771,11086;2,69875
2769,05971;2,69788
2767,00855;2,70258
2764,9574;2,70643
2762,90624;2,70486
2760,85509;2,7047
2758,80393;2,70493
2756,75277;2,70205
2754,70162;2,69841
2752,65046;2,6917
2750,59931;2,68156
2748,54815;2,67584
2746,497;2,67675
2744,44584;2,67992
2742,39469;2,68241
2740,34353;2,68436
2738,29238;2,68417
2736,24122;2,68058
2734,19007;2,67845
2732,13891;2,67616
2730,08776;2,67107
2728,0366;2,66752
2725,98544;2,66724
2723,93429;2,6682
2721,88313;2,66792
2719,83198;2,66709
2717,78082;2,66728
2715,72967;2,66809
2713,67851;2,66687
2711,62736;2,66383
2709,5762;2,66237
2707,52505;2,66071
2705,47389;2,65841
2703,42274;2,66076
2701,37158;2,6633
2699,32043;2,65973
2697,26927;2,65427
2695,21811;2,64759
2693,16696;2,64238
2691,1158;2,64217
2689,06465;2,64076
2687,01349;2,63699
2684,96234;2,64145
2682,91118;2,64972
2680,86003;2,64671
2678,80887;2,64097
2676,75772;2,64132
2674,70656;2,63865
2672,65541;2,63262
2670,60425;2,62988
2668,55309;2,62801
2666,50194;2,62489
2664,45078;2,62675
2662,39963;2,63619
2660,34847;2,6422
2658,29732;2,63564
2656,24616;2,62522
2654,19501;2,61897
2652,14385;2,61681
2650,0927;2,61955
2648,04154;2,62526
2645,99039;2,62787
2643,93923;2,62633
2641,88808;2,62314
2639,83692;2,62013
2637,78576;2,62295
2635,73461;2,63276
2633,68345;2,64114
2631,6323;2,644
2629,58114;2,64713
2627,52999;2,65407
2625,47883;2,65876
2623,42768;2,65781
2621,37652;2,65787
2619,32537;2,66229
2617,27421;2,66746
2615,22306;2,66941
2613,1719;2,66797
2611,12075;2,66923
2609,06959;2,67779
2607,01843;2,68795
2604,96728;2,69203
2602,91612;2,69174
2600,86497;2,68992
2598,81381;2,68669
2596,76266;2,68497
2594,7115;2,68621
2592,66035;2,68974
2590,60919;2,69588
2588,55804;2,701
2586,50688;2,69777
2584,45573;2,68864
2582,40457;2,681
2580,35342;2,67473
2578,30226;2,674
2576,2511;2,68183
2574,19995;2,69075
2572,14879;2,69608
2570,09764;2,69896
2568,04648;2,70058
2565,99533;2,70075
2563,94417;2,69808
2561,89302;2,69477
2559,84186;2,6968
2557,79071;2,69901
2555,73955;2,69389
2553,6884;2,69206
2551,63724;2,69728
2549,58609;2,69874
2547,53493;2,6971
2545,48377;2,69919
2543,43262;2,70441
2541,38146;2,70902
2539,33031;2,71241
2537,27915;2,71595
2535,228;2,7216
2533,17684;2,731
2531,12569;2,74316
2529,07453;2,75562
2527,02338;2,75986
2524,97222;2,75272
2522,92107;2,74771
2520,86991;2,75322
2518,81876;2,76548
2516,7676;2,77412
2514,71644;2,76982
2512,66529;2,75856
2510,61413;2,75042
2508,56298;2,74813
2506,51182;2,74984
2504,46067;2,75088
2502,40951;2,74757
2500,35836;2,73912
2498,3072;2,72895
2496,25605;2,71837
2494,20489;2,7067
2492,15374;2,69818
2490,10258;2,69183
2488,05143;2,68304
2486,00027;2,67308
2483,94911;2,66201
2481,89796;2,65229
2479,8468;2,64612
2477,79565;2,63779
2475,74449;2,62631
2473,69334;2,61352
2471,64218;2,5989
2469,59103;2,58821
2467,53987;2,58352
2465,48872;2,58117
2463,43756;2,57944
2461,38641;2,57375
2459,33525;2,56449
2457,2841;2,55892
2455,23294;2,5575
2453,18178;2,55243
2451,13063;2,54178
2449,07947;2,53379
2447,02832;2,53097
2444,97716;2,52768
2442,92601;2,52204
2440,87485;2,51574
2438,8237;2,51171
2436,77254;2,51166
2434,72139;2,51184
2432,67023;2,50897
2430,61908;2,50381
2428,56792;2,49922
2426,51677;2,49793
2424,46561;2,49765
2422,41445;2,4953
2420,3633;2,49235
2418,31214;2,48862
2416,26099;2,48263
2414,20983;2,47751
2412,15868;2,47451
2410,10752;2,46997
2408,05637;2,46615
2406,00521;2,46869
2403,95406;2,47212
2401,9029;2,46934
2399,85175;2,4667
2397,80059;2,46788
2395,74944;2,46775
2393,69828;2,46526
2391,64712;2,46303
2389,59597;2,46337
2387,54481;2,46435
2385,49366;2,46215
2383,4425;2,46004
2381,39135;2,46048
2379,34019;2,4599
2377,28904;2,46004
2375,23788;2,46271
2373,18673;2,46434
2371,13557;2,46702
2369,08442;2,47147
2367,03326;2,47286
2364,9821;2,47113
2362,93095;2,47265
2360,87979;2,47998
2358,82864;2,47996
2356,77748;2,46851
2354,72633;2,46066
2352,67517;2,46186
2350,62402;2,46613
2348,57286;2,47067
2346,52171;2,47571
2344,47055;2,47781
2342,4194;2,47347
2340,36824;2,46712
2338,31709;2,46209
2336,26593;2,45839
2334,21477;2,45936
2332,16362;2,46446
2330,11246;2,46995
2328,06131;2,47694
2326,01015;2,48121
2323,959;2,47778
2321,90784;2,47423
2319,85669;2,47837
2317,80553;2,48646
2315,75438;2,48796
2313,70322;2,47921
2311,65207;2,47119
2309,60091;2,4728
2307,54976;2,47702
2305,4986;2,47593
2303,44744;2,47449
2301,39629;2,47655
2299,34513;2,47668
2297,29398;2,47526
2295,24282;2,47808
2293,19167;2,48126
2291,14051;2,48031
2289,08936;2,48052
2287,0382;2,48432
2284,98705;2,48669
2282,93589;2,48583
2280,88474;2,48368
2278,83358;2,48215
2276,78243;2,48234
2274,73127;2,48423
2272,68011;2,48839
2270,62896;2,49455
2268,5778;2,49986
2266,52665;2,50017
2264,47549;2,49606
2262,42434;2,49325
2260,37318;2,49589
2258,32203;2,50194
2256,27087;2,50631
2254,21972;2,5075
2252,16856;2,50644
2250,11741;2,50549
2248,06625;2,50842
2246,0151;2,51496
2243,96394;2,51886
2241,91278;2,5189
2239,86163;2,51972
2237,81047;2,52252
2235,75932;2,52742
2233,70816;2,53195
2231,65701;2,53475
2229,60585;2,53811
2227,5547;2,53921
2225,50354;2,53698
2223,45239;2,53614
2221,40123;2,53831
2219,35008;2,54327
2217,29892;2,54926
2215,24777;2,55318
2213,19661;2,55509
2211,14545;2,55514
2209,0943;2,55393
2207,04314;2,55602
2204,99199;2,562
2202,94083;2,56655
2200,88968;2,56759
2198,83852;2,56645
2196,78737;2,56464
2194,73621;2,56435
2192,68506;2,56668
2190,6339;2,56857
2188,58275;2,56704
2186,53159;2,56445
2184,48044;2,56384
2182,42928;2,56484
2180,37812;2,56785
2178,32697;2,57452
2176,27581;2,58291
2174,22466;2,58903
2172,1735;2,59153
2170,12235;2,59359
2168,07119;2,5968
2166,02004;2,59803
2163,96888;2,59818
2161,91773;2,6004
2159,86657;2,6039
2157,81542;2,60955
2155,76426;2,61948
2153,71311;2,62791
2151,66195;2,63228
2149,61079;2,6383
2147,55964;2,64384
2145,50848;2,64466
2143,45733;2,64355
2141,40617;2,64644
2139,35502;2,65328
2137,30386;2,6563
2135,25271;2,65276
2133,20155;2,64668
2131,1504;2,64167
2129,09924;2,63945
2127,04809;2,637
2124,99693;2,63147
2122,94578;2,62619
2120,89462;2,62238
2118,84346;2,61737
2116,79231;2,61101
2114,74115;2,60697
2112,69;2,60479
2110,63884;2,59908
2108,58769;2,59226
2106,53653;2,59092
2104,48538;2,59478
2102,43422;2,60038
2100,38307;2,60303
2098,33191;2,59861
2096,28076;2,5923
2094,2296;2,5916
2092,17844;2,59408
2090,12729;2,5937
2088,07613;2,59228
2086,02498;2,594
2083,97382;2,59773
2081,92267;2,60026
2079,87151;2,59974
2077,82036;2,59794
2075,7692;2,59634
2073,71805;2,59357
2071,66689;2,59185
2069,61574;2,59221
2067,56458;2,58996
2065,51343;2,58569
2063,46227;2,58407
2061,41111;2,58327
2059,35996;2,58233
2057,3088;2,5873
2055,25765;2,5962
2053,20649;2,59866
2051,15534;2,59798
2049,10418;2,60159
2047,05303;2,60301
2045,00187;2,59766
2042,95072;2,59052
2040,89956;2,58691
2038,84841;2,58582
2036,79725;2,58615
2034,7461;2,59131
2032,69494;2,59721
2030,64378;2,59652
2028,59263;2,59355
2026,54147;2,59444
2024,49032;2,59509
2022,43916;2,59238
2020,38801;2,58964
2018,33685;2,58817
2016,2857;2,59005
2014,23454;2,59463
2012,18339;2,59585
2010,13223;2,59363
2008,08108;2,59205
2006,02992;2,59084
2003,97877;2,58999
2001,92761;2,59213
1999,87645;2,59683
1997,8253;2,59971
1995,77414;2,6005
1993,72299;2,6001
1991,67183;2,59677
1989,62068;2,59393
1987,56952;2,59365
1985,51837;2,59441
1983,46721;2,59442
1981,41606;2,59444
1979,3649;2,59654
1977,31375;2,59796
1975,26259;2,59719
1973,21144;2,59622
1971,16028;2,59756
1969,10912;2,60173
1967,05797;2,60457
1965,00681;2,6064
1962,95566;2,61455
1960,9045;2,62481
1958,85335;2,62488
1956,80219;2,61845
1954,75104;2,61702
1952,69988;2,61814
1950,64873;2,6159
1948,59757;2,61361
1946,54642;2,61199
1944,49526;2,61071
1942,44411;2,61228
1940,39295;2,61549
1938,34179;2,61644
1936,29064;2,61522
1934,23948;2,61541
1932,18833;2,61653
1930,13717;2,61812
1928,08602;2,62021
1926,03486;2,621
1923,98371;2,61956
1921,93255;2,61758
1919,8814;2,62351
1917,83024;2,63725
1915,77909;2,64198
1913,72793;2,63656
1911,67678;2,63391
1909,62562;2,63424
1907,57446;2,63354
1905,52331;2,63403
1903,47215;2,63915
1901,421;2,64723
1899,36984;2,651
1897,31869;2,64927
1895,26753;2,64781
1893,21638;2,6485
1891,16522;2,6494
1889,11407;2,65058
1887,06291;2,65297
1885,01176;2,65509
1882,9606;2,6552
1880,90945;2,65305
1878,85829;2,65137
1876,80713;2,65461
1874,75598;2,66339
1872,70482;2,67379
1870,65367;2,68227
1868,60251;2,68627
1866,55136;2,68745
1864,5002;2,69116
1862,44905;2,69461
1860,39789;2,69387
1858,34674;2,69513
1856,29558;2,70243
1854,24443;2,70596
1852,19327;2,70135
1850,14212;2,70049
1848,09096;2,70882
1846,0398;2,72092
1843,98865;2,72811
1841,93749;2,72688
1839,88634;2,72879
1837,83518;2,73891
1835,78403;2,75081
1833,73287;2,75236
1831,68172;2,74583
1829,63056;2,74669
1827,57941;2,75592
1825,52825;2,76709
1823,4771;2,77526
1821,42594;2,77815
1819,37478;2,78364
1817,32363;2,78998
1815,27247;2,79185
1813,22132;2,794
1811,17016;2,80267
1809,11901;2,81659
1807,06785;2,831
1805,0167;2,84921
1802,96554;2,87194
1800,91439;2,88796
1798,86323;2,89363
1796,81208;2,89933
1794,76092;2,90545
1792,70977;2,90269
1790,65861;2,89159
1788,60745;2,88203
1786,5563;2,87329
1784,50514;2,86447
1782,45399;2,85726
1780,40283;2,85299
1778,35168;2,85058
1776,30052;2,84802
1774,24937;2,84801
1772,19821;2,84688
1770,14706;2,84229
1768,0959;2,84401
1766,04475;2,85367
1763,99359;2,86435
1761,94244;2,86381
1759,89128;2,85469
1757,84012;2,85038
1755,78897;2,85511
1753,73781;2,86718
1751,68666;2,87173
1749,6355;2,86195
1747,58435;2,85934
1745,53319;2,8677
1743,48204;2,8757
1741,43088;2,88451
1739,37973;2,88984
1737,32857;2,88861
1735,27742;2,89213
1733,22626;2,8979
1731,17511;2,90238
1729,12395;2,90826
1727,07279;2,90689
1725,02164;2,90144
1722,97048;2,90628
1720,91933;2,92073
1718,86817;2,93272
1716,81702;2,93288
1714,76586;2,92706
1712,71471;2,92434
1710,66355;2,92279
1708,6124;2,93255
1706,56124;2,95478
1704,51009;2,96239
1702,45893;2,95777
1700,40778;2,96044
1698,35662;2,95804
1696,30546;2,95288
1694,25431;2,95718
1692,20315;2,95758
1690,152;2,95397
1688,10084;2,95806
1686,04969;2,9737
1683,99853;2,99074
1681,94738;2,98952
1679,89622;2,98495
1677,84507;2,98173
1675,79391;2,97341
1673,74276;2,97568
1671,6916;2,99186
1669,64045;2,99703
1667,58929;2,99145
1665,53813;2,99079
1663,48698;2,99307
1661,43582;2,99713
1659,38467;3,00086
1657,33351;3,00163
1655,28236;2,9938
1653,2312;2,9629
1651,18005;2,94726
1649,12889;2,96275
1647,07774;2,97254
1645,02658;2,95984
1642,97543;2,9529
1640,92427;2,95625
1638,87312;2,96125
1636,82196;2,96374
1634,7708;2,95472
1632,71965;2,94494
1630,66849;2,94569
1628,61734;2,94782
1626,56618;2,94862
1624,51503;2,95245
1622,46387;2,94635
1620,41272;2,92998
1618,36156;2,92163
1616,31041;2,92063
1614,25925;2,91322
1612,2081;2,89867
1610,15694;2,88808
1608,10579;2,89043
1606,05463;2,89632
1604,00347;2,89387
1601,95232;2,88748
1599,90116;2,88347
1597,85001;2,88043
1595,79885;2,87668
1593,7477;2,8663
1591,69654;2,84764
1589,64539;2,8343
1587,59423;2,83331
1585,54308;2,8374
1583,49192;2,8398
1581,44077;2,83506
1579,38961;2,82604
1577,33846;2,81734
1575,2873;2,80665
1573,23614;2,80496
1571,18499;2,80501
1569,13383;2,78298
1567,08268;2,75834
1565,03152;2,75183
1562,98037;2,75253
1560,92921;2,75546
1558,87806;2,74001
1556,8269;2,70625
1554,77575;2,69298
1552,72459;2,68443
1550,67344;2,67478
1548,62228;2,66579
1546,57113;2,65961
1544,51997;2,65809
1542,46881;2,65818
1540,41766;2,64868
1538,3665;2,6438
1536,31535;2,65805
1534,26419;2,67116
1532,21304;2,66855
1530,16188;2,66226
1528,11073;2,66089
1526,05957;2,66382
1524,00842;2,67178
1521,95726;2,67859
1519,90611;2,67929
1517,85495;2,67865
1515,80379;2,67614
1513,75264;2,67462
1511,70148;2,67766
1509,65033;2,68509
1507,59917;2,69385
1505,54802;2,69698
1503,49686;2,69819
1501,44571;2,70101
1499,39455;2,70785
1497,3434;2,71758
1495,29224;2,72424
1493,24109;2,73323
1491,18993;2,74532
1489,13878;2,7505
1487,08762;2,75156
1485,03646;2,7588
1482,98531;2,76884
1480,93415;2,77704
1478,883;2,78663
1476,83184;2,80293
1474,78069;2,82181
1472,72953;2,82444
1470,67838;2,81102
1468,62722;2,81047
1466,57607;2,82306
1464,52491;2,83506
1462,47376;2,84116
1460,4226;2,84304
1458,37145;2,83738
1456,32029;2,83265
1454,26913;2,84007
1452,21798;2,84675
1450,16682;2,84763
1448,11567;2,84906
1446,06451;2,85476
1444,01336;2,85492
1441,9622;2,84388
1439,91105;2,83792
1437,85989;2,8482
1435,80874;2,8577
1433,75758;2,85472
1431,70643;2,84839
1429,65527;2,8425
1427,60412;2,84292
1425,55296;2,84624
1423,5018;2,84592
1421,45065;2,84672
1419,39949;2,84849
1417,34834;2,83879
1415,29718;2,82164
1413,24603;2,8074
1411,19487;2,8025
1409,14372;2,80968
1407,09256;2,81971
1405,04141;2,82164
1402,99025;2,81901
1400,9391;2,81984
1398,88794;2,82278
1396,83679;2,82931
1394,78563;2,84034
1392,73447;2,84365
1390,68332;2,83779
1388,63216;2,83554
1386,58101;2,8436
1384,52985;2,853
1382,4787;2,85646
1380,42754;2,85626
1378,37639;2,85386
1376,32523;2,85244
1374,27408;2,85434
1372,22292;2,85827
1370,17177;2,86276
1368,12061;2,86558
1366,06946;2,87324
1364,0183;2,88493
1361,96714;2,88241
1359,91599;2,87178
1357,86483;2,86586
1355,81368;2,86089
1353,76252;2,86078
1351,71137;2,86906
1349,66021;2,8771
1347,60906;2,87525
1345,5579;2,86765
1343,50675;2,86783
1341,45559;2,87377
1339,40444;2,87434
1337,35328;2,87558
1335,30213;2,87931
1333,25097;2,87875
1331,19981;2,88197
1329,14866;2,89345
1327,0975;2,89346
1325,04635;2,88181
1322,99519;2,88807
1320,94404;2,90893
1318,89288;2,91279
1316,84173;2,89679
1314,79057;2,88691
1312,73942;2,89053
1310,68826;2,89236
1308,63711;2,89122
1306,58595;2,89564
1304,5348;2,89707
1302,48364;2,89149
1300,43248;2,88831
1298,38133;2,89093
1296,33017;2,89679
1294,27902;2,9026
1292,22786;2,90538
1290,17671;2,90365
1288,12555;2,90291
1286,0744;2,90685
1284,02324;2,90698
1281,97209;2,90323
1279,92093;2,90154
1277,86978;2,90059
1275,81862;2,90223
1273,76747;2,90463
1271,71631;2,90393
1269,66515;2,90938
1267,614;2,92157
1265,56284;2,92265
1263,51169;2,91294
1261,46053;2,90976
1259,40938;2,91475
1257,35822;2,91919
1255,30707;2,91801
1253,25591;2,91383
1251,20476;2,91075
1249,1536;2,90593
1247,10245;2,90646
1245,05129;2,9178
1243,00013;2,92566
1240,94898;2,92583
1238,89782;2,9269
1236,84667;2,92765
1234,79551;2,92973
1232,74436;2,9362
1230,6932;2,94224
1228,64205;2,94331
1226,59089;2,93918
1224,53974;2,93545
1222,48858;2,93671
1220,43743;2,93886
1218,38627;2,93365
1216,33512;2,92572
1214,28396;2,92343
1212,2328;2,92089
1210,18165;2,91754
1208,13049;2,9285
1206,07934;2,95058
1204,02818;2,96257
1201,97703;2,95939
1199,92587;2,95342
1197,87472;2,95556
1195,82356;2,96609
1193,77241;2,97372
1191,72125;2,9754
1189,6701;2,97769
1187,61894;2,98438
1185,56779;2,99983
1183,51663;3,01675
1181,46547;3,02251
1179,41432;3,03206
1177,36316;3,05173
1175,31201;3,06636
1173,26085;3,07538
1171,2097;3,08808
1169,15854;3,09938
1167,10739;3,10204
1165,05623;3,10172
1163,00508;3,10228
1160,95392;3,10536
1158,90277;3,12377
1156,85161;3,15047
1154,80046;3,15385
1152,7493;3,13226
1150,69814;3,11841
1148,64699;3,12142
1146,59583;3,11869
1144,54468;3,10824
1142,49352;3,10747
1140,44237;3,11608
1138,39121;3,11472
1136,34006;3,0976
1134,2889;3,0881
1132,23775;3,09652
1130,18659;3,11136
1128,13544;3,12669
1126,08428;3,12765
1124,03313;3,10637
1121,98197;3,08719
1119,93081;3,07448
1117,87966;3,06943
1115,8285;3,08253
1113,77735;3,10374
1111,72619;3,11044
1109,67504;3,0955
1107,62388;3,07108
1105,57273;3,05235
1103,52157;3,04123
1101,47042;3,03108
1099,41926;3,01582
1097,36811;2,99491
1095,31695;2,97473
1093,2658;2,94917
1091,21464;2,91977
1089,16348;2,89698
1087,11233;2,87445
1085,06117;2,85325
1083,01002;2,83999
1080,95886;2,827
1078,90771;2,80681
1076,85655;2,78613
1074,8054;2,77333
1072,75424;2,76817
1070,70309;2,76594
1068,65193;2,76107
1066,60078;2,75665
1064,54962;2,75746
1062,49847;2,75525
1060,44731;2,74703
1058,39615;2,74047
1056,345;2,73251
1054,29384;2,71722
1052,24269;2,70011
1050,19153;2,68922
1048,14038;2,67859
1046,08922;2,6601
1044,03807;2,63899
1041,98691;2,62182
1039,93576;2,60669
1037,8846;2,58776
1035,83345;2,56882
1033,78229;2,55714
1031,73114;2,55265
1029,67998;2,5501
1027,62882;2,543
1025,57767;2,53054
1023,52651;2,52028
1021,47536;2,51961
1019,4242;2,52337
1017,37305;2,52351
1015,32189;2,51959
1013,27074;2,51147
1011,21958;2,50595
1009,16843;2,50991
1007,11727;2,51606
1005,06612;2,51832
1003,01496;2,51961
1000,96381;2,52035
998,91265;2,5209
996,86149;2,52499
994,81034;2,53149
992,75918;2,53756
990,70803;2,54434
988,65687;2,54967
986,60572;2,55134
984,55456;2,55152
982,50341;2,55075
980,45225;2,54882
978,4011;2,54817
976,34994;2,55108
974,29879;2,55407
972,24763;2,55474
970,19647;2,55783
968,14532;2,56418
966,09416;2,57105
964,04301;2,57578
961,99185;2,57463
959,9407;2,57246
957,88954;2,57234
955,83839;2,57246
953,78723;2,57822
951,73608;2,59113
949,68492;2,60437
947,63377;2,61362
945,58261;2,61827
943,53146;2,62445
941,4803;2,63417
939,42914;2,63548
937,37799;2,63186
935,32683;2,63954
933,27568;2,65667
931,22452;2,66925
929,17337;2,67418
927,12221;2,67778
925,07106;2,67942
923,0199;2,67806
920,96875;2,6791
918,91759;2,68548
916,86644;2,69134
914,81528;2,69698
912,76413;2,70749
910,71297;2,71385
908,66181;2,71317
906,61066;2,72007
904,5595;2,73028
902,50835;2,72945
900,45719;2,72534
898,40604;2,7279
896,35488;2,73776
894,30373;2,74771
892,25257;2,74227
890,20142;2,7206
888,15026;2,70399
886,09911;2,7072
884,04795;2,72192
881,9968;2,73794
879,94564;2,75244
877,89448;2,75381
875,84333;2,73972
873,79217;2,73244
871,74102;2,74013
869,68986;2,75048
867,63871;2,7547
865,58755;2,75452
863,5364;2,76181
861,48524;2,77572
859,43409;2,77737
857,38293;2,77321
855,33178;2,7791
853,28062;2,78737
851,22947;2,79936
849,17831;2,82349
847,12715;2,83911
845,076;2,83071
843,02484;2,8182
840,97369;2,81223
838,92253;2,81457
836,87138;2,8215
834,82022;2,82006
832,76907;2,82238
830,71791;2,83282
828,66676;2,83001
826,6156;2,81198
824,56445;2,81107
822,51329;2,83524
820,46214;2,85018
818,41098;2,84262
816,35982;2,83172
814,30867;2,83337
812,25751;2,84299
810,20636;2,85416
808,1552;2,85392
806,10405;2,83147
804,05289;2,81319
802,00174;2,82292
799,95058;2,84471
797,89943;2,85825
795,84827;2,85408
793,79712;2,84596
791,74596;2,84949
789,69481;2,85831
787,64365;2,86558
785,59249;2,8736
783,54134;2,87455
781,49018;2,87083
779,43903;2,86484
777,38787;2,85091
775,33672;2,8386
773,28556;2,84294
771,23441;2,85374
769,18325;2,85753
767,1321;2,8636
765,08094;2,86798
763,02979;2,86416
760,97863;2,86379
758,92748;2,86692
756,87632;2,86576
754,82516;2,85464
752,77401;2,84136
750,72285;2,84673
748,6717;2,86733
746,62054;2,86955
744,56939;2,84168
742,51823;2,83175
740,46708;2,87521
738,41592;2,93291
736,36477;2,95532
734,31361;2,95261
732,26246;2,93252
730,2113;2,89259
728,16015;2,87934
726,10899;2,90131
724,05783;2,90146
722,00668;2,87822
719,95552;2,86128
717,90437;2,85362
715,85321;2,85432
713,80206;2,8507
711,7509;2,85177
709,69975;2,86093
707,64859;2,85588
705,59744;2,85229
703,54628;2,85735
701,49513;2,85806
699,44397;2,85856
697,39281;2,84814
695,34166;2,84218
693,2905;2,86491
691,23935;2,89194
689,18819;2,90793
687,13704;2,90378
685,08588;2,86889
683,03473;2,84152
680,98357;2,85099
678,93242;2,86683
676,88126;2,86089
674,83011;2,8519
672,77895;2,85067
670,7278;2,85893
668,67664;2,88402
666,62548;2,87248
664,57433;2,82935
662,52317;2,81946
660,47202;2,85095
658,42086;2,87705
656,36971;2,85654
654,31855;2,82642
652,2674;2,82558
650,21624;2,8377
648,16509;2,83926
646,11393;2,8169
644,06278;2,79083
642,01162;2,79491
639,96047;2,79869
637,90931;2,79098
635,85815;2,79519
633,807;2,81013
631,75584;2,83761
629,70469;2,86049
627,65353;2,83374
625,60238;2,77831
623,55122;2,75892
621,50007;2,78172
619,44891;2,80205
617,39776;2,80708
615,3466;2,80165
613,29545;2,7858
611,24429;2,78635
609,19314;2,80886
607,14198;2,82867
605,09082;2,83665
603,03967;2,82799
600,98851;2,81721
598,93736;2,81667
596,8862;2,81279
594,83505;2,79806
592,78389;2,78004
590,73274;2,7695
588,68158;2,77975
586,63043;2,80229
584,57927;2,80104
582,52812;2,79418
580,47696;2,80886
578,42581;2,82587
576,37465;2,8242
574,32349;2,80838
572,27234;2,81221
570,22118;2,80998
568,17003;2,78684
566,11887;2,76917
564,06772;2,76245
562,01656;2,77063
559,96541;2,78036
557,91425;2,78413
555,8631;2,79583
553,81194;2,8359
551,76079;2,85237
549,70963;2,81132
547,65848;2,79305
545,60732;2,83173
543,55616;2,85844
541,50501;2,83481
539,45385;2,8114
537,4027;2,80301
535,35154;2,78766
533,30039;2,78397
531,24923;2,82006
529,19808;2,84449
527,14692;2,8106
525,09577;2,78079
523,04461;2,7888
520,99346;2,80192
518,9423;2,80223
516,89115;2,77172
514,83999;2,71283
512,78883;2,67828
510,73768;2,66752
508,68652;2,65315
506,63537;2,63927
504,58421;2,64614
502,53306;2,64499
500,4819;2,62683
498,43075;2,64667
496,37959;2,6891
494,32844;2,69893
492,27728;2,68349
490,22613;2,64398
488,17497;2,59545
486,12382;2,58136
484,07266;2,58157
482,0215;2,56582
479,97035;2,55666
477,91919;2,55048
475,86804;2,5504
473,81688;2,54669
471,76573;2,51492
469,71457;2,48774
467,66342;2,48032
465,61226;2,48331
463,56111;2,48303
461,50995;2,45962
459,4588;2,42856
457,40764;2,42273
455,35649;2,42421
453,30533;2,39122
451,25417;2,35839
449,20302;2,35985
447,15186;2,39641
445,10071;2,46242
443,04955;2,49097
440,9984;2,45975
438,94724;2,43466
436,89609;2,42004
434,84493;2,4082
432,79378;2,41125
430,74262;2,44001
428,69147;2,46218
426,64031;2,45624
424,58916;2,44589
422,538;2,46697
420,48684;2,52047
418,43569;2,50721
416,38453;2,44962
414,33338;2,43516
412,28222;2,43651
410,23107;2,44447
408,17991;2,48475
406,12876;2,53704
404,0776;2,5163
402,02645;2,40657
399,97529;2,31466
