3997,70175;1,75157
3995,6506;1,75233
3993,59944;1,75408
3991,54829;1,7558
3989,49713;1,75728
3987,44598;1,75874
3985,39482;1,75953
3983,34367;1,76043
3981,29251;1,76226
3979,24136;1,764
3977,1902;1,76496
3975,13905;1,76644
3973,08789;1,76925
3971,03673;1,77279
3968,98558;1,7766
3966,93442;1,78019
3964,88327;1,78329
3962,83211;1,78625
3960,78096;1,78979
3958,7298;1,79423
3956,67865;1,79864
3954,62749;1,80196
3952,57634;1,80466
3950,52518;1,80756
3948,47403;1,81083
3946,42287;1,81438
3944,37172;1,81652
3942,32056;1,81615
3940,2694;1,81391
3938,21825;1,81076
3936,16709;1,80798
3934,11594;1,80497
3932,06478;1,80101
3930,01363;1,79677
3927,96247;1,79227
3925,91132;1,78659
3923,86016;1,78058
3921,80901;1,77524
3919,75785;1,76955
3917,7067;1,76325
3915,65554;1,75764
3913,60439;1,75265
3911,55323;1,74768
3909,50207;1,74425
3907,45092;1,74216
3905,39976;1,7398
3903,34861;1,73856
3901,29745;1,73838
3899,2463;1,73619
3897,19514;1,73293
3895,14399;1,73035
3893,09283;1,72821
3891,04168;1,72737
3888,99052;1,72745
3886,93937;1,72482
3884,88821;1,72366
3882,83706;1,72561
3880,7859;1,72551
3878,73474;1,72589
3876,68359;1,72673
3874,63243;1,72648
3872,58128;1,72649
3870,53012;1,72491
3868,47897;1,72463
3866,42781;1,72451
3864,37666;1,72204
3862,3255;1,71946
3860,27435;1,71769
3858,22319;1,71633
3856,17204;1,71163
3854,12088;1,70431
3852,06973;1,7043
3850,01857;1,70917
3847,96741;1,71088
3845,91626;1,70976
3843,8651;1,70925
3841,81395;1,71106
3839,76279;1,71212
3837,71164;1,71118
3835,66048;1,7105
3833,60933;1,70964
3831,55817;1,7091
3829,50702;1,70987
3827,45586;1,71016
3825,40471;1,71118
3823,35355;1,71161
3821,3024;1,71132
3819,25124;1,71423
3817,20008;1,71391
3815,14893;1,71161
3813,09777;1,71253
3811,04662;1,71366
3808,99546;1,71309
3806,94431;1,7134
3804,89315;1,7171
3802,842;1,71743
3800,79084;1,71578
3798,73969;1,71714
3796,68853;1,71845
3794,63738;1,72001
3792,58622;1,72111
3790,53506;1,72212
3788,48391;1,72414
3786,43275;1,72558
3784,3816;1,72643
3782,33044;1,72762
3780,27929;1,72766
3778,22813;1,72786
3776,17698;1,72969
3774,12582;1,7324
3772,07467;1,73427
3770,02351;1,7347
3767,97236;1,73587
3765,9212;1,73753
3763,87005;1,74021
3761,81889;1,74167
3759,76773;1,74128
3757,71658;1,74388
3755,66542;1,74906
3753,61427;1,75116
3751,56311;1,75088
3749,51196;1,75475
3747,4608;1,7602
3745,40965;1,76074
3743,35849;1,76343
3741,30734;1,77067
3739,25618;1,7769
3737,20503;1,78273
3735,15387;1,78845
3733,10272;1,7918
3731,05156;1,79449
3729,0004;1,7983
3726,94925;1,80142
3724,89809;1,80542
3722,84694;1,81075
3720,79578;1,81646
3718,74463;1,82288
3716,69347;1,83049
3714,64232;1,83772
3712,59116;1,84442
3710,54001;1,85357
3708,48885;1,86489
3706,4377;1,87736
3704,38654;1,89359
3702,33539;1,91816
3700,28423;1,95082
3698,23307;1,98157
3696,18192;2,0039
3694,13076;2,01746
3692,07961;2,02149
3690,02845;2,01862
3687,9773;2,01646
3685,92614;2,01945
3683,87499;2,02465
3681,82383;2,03182
3679,77268;2,04234
3677,72152;2,05475
3675,67037;2,06949
3673,61921;2,08794
3671,56806;2,10173
3669,5169;2,11285
3667,46574;2,12733
3665,41459;2,1423
3663,36343;2,15777
3661,31228;2,17445
3659,26112;2,19114
3657,20997;2,20775
3655,15881;2,2277
3653,10766;2,24943
3651,0565;2,27362
3649,00535;2,30846
3646,95419;2,34645
3644,90304;2,37223
3642,85188;2,38196
3640,80073;2,38097
3638,74957;2,37638
3636,69841;2,37343
3634,64726;2,37618
3632,5961;2,38548
3630,54495;2,39314
3628,49379;2,39622
3626,44264;2,40064
3624,39148;2,406
3622,34033;2,41403
3620,28917;2,42616
3618,23802;2,44028
3616,18686;2,451
3614,13571;2,45443
3612,08455;2,4539
3610,0334;2,45328
3607,98224;2,45709
3605,93108;2,4688
3603,87993;2,48153
3601,82877;2,48889
3599,77762;2,49232
3597,72646;2,49606
3595,67531;2,50087
3593,62415;2,50695
3591,573;2,51825
3589,52184;2,53411
3587,47069;2,54609
3585,41953;2,54548
3583,36838;2,53628
3581,31722;2,53408
3579,26607;2,54328
3577,21491;2,54858
3575,16375;2,54296
3573,1126;2,53866
3571,06144;2,54161
3569,01029;2,5455
3566,95913;2,55075
3564,90798;2,56232
3562,85682;2,57014
3560,80567;2,56454
3558,75451;2,5543
3556,70336;2,55324
3554,6522;2,56386
3552,60105;2,57949
3550,54989;2,59001
3548,49874;2,59131
3546,44758;2,59155
3544,39642;2,5987
3542,34527;2,60782
3540,29411;2,60802
3538,24296;2,59851
3536,1918;2,58991
3534,14065;2,59077
3532,08949;2,59786
3530,03834;2,60264
3527,98718;2,60417
3525,93603;2,6089
3523,88487;2,61616
3521,83372;2,61697
3519,78256;2,61208
3517,73141;2,61156
3515,68025;2,61559
3513,62909;2,61747
3511,57794;2,6149
3509,52678;2,61126
3507,47563;2,61336
3505,42447;2,62122
3503,37332;2,62932
3501,32216;2,63817
3499,27101;2,64865
3497,21985;2,6564
3495,1687;2,65765
3493,11754;2,65377
3491,06639;2,64923
3489,01523;2,64573
3486,96407;2,64664
3484,91292;2,65473
3482,86176;2,66284
3480,81061;2,66854
3478,75945;2,67533
3476,7083;2,67861
3474,65714;2,67358
3472,60599;2,66331
3470,55483;2,65632
3468,50368;2,65554
3466,45252;2,65833
3464,40137;2,6641
3462,35021;2,66677
3460,29906;2,66245
3458,2479;2,65627
3456,19674;2,65421
3454,14559;2,66002
3452,09443;2,66888
3450,04328;2,67303
3447,99212;2,67168
3445,94097;2,67043
3443,88981;2,67121
3441,83866;2,66956
3439,7875;2,66618
3437,73635;2,66243
3435,68519;2,65892
3433,63404;2,66052
3431,58288;2,6679
3429,53173;2,67496
3427,48057;2,67608
3425,42941;2,67329
3423,37826;2,67218
3421,3271;2,67204
3419,27595;2,66979
3417,22479;2,66912
3415,17364;2,67685
3413,12248;2,68624
3411,07133;2,68625
3409,02017;2,68411
3406,96902;2,68798
3404,91786;2,68872
3402,86671;2,681
3400,81555;2,67762
3398,7644;2,67987
3396,71324;2,67962
3394,66208;2,68019
3392,61093;2,67903
3390,55977;2,67395
3388,50862;2,67606
3386,45746;2,68594
3384,40631;2,69285
3382,35515;2,69379
3380,304;2,69168
3378,25284;2,68619
3376,20169;2,67904
3374,15053;2,67665
3372,09938;2,6774
3370,04822;2,67614
3367,99707;2,67474
3365,94591;2,67367
3363,89475;2,67046
3361,8436;2,66861
3359,79244;2,67207
3357,74129;2,67527
3355,69013;2,67175
3353,63898;2,66421
3351,58782;2,66033
3349,53667;2,66097
3347,48551;2,65874
3345,43436;2,65132
3343,3832;2,64625
3341,33205;2,65153
3339,28089;2,66157
3337,22974;2,66001
3335,17858;2,64885
3333,12742;2,64805
3331,07627;2,65726
3329,02511;2,65913
3326,97396;2,65504
3324,9228;2,65547
3322,87165;2,65475
3320,82049;2,64672
3318,76934;2,64037
3316,71818;2,63956
3314,66703;2,63846
3312,61587;2,63944
3310,56472;2,64335
3308,51356;2,64233
3306,46241;2,63373
3304,41125;2,62315
3302,36009;2,61674
3300,30894;2,61477
3298,25778;2,61491
3296,20663;2,61704
3294,15547;2,62039
3292,10432;2,62515
3290,05316;2,62819
3288,00201;2,62528
3285,95085;2,62136
3283,8997;2,61646
3281,84854;2,61099
3279,79739;2,61321
3277,74623;2,61873
3275,69508;2,62052
3273,64392;2,6187
3271,59276;2,61373
3269,54161;2,61033
3267,49045;2,61153
3265,4393;2,60956
3263,38814;2,6018
3261,33699;2,59687
3259,28583;2,59657
3257,23468;2,59963
3255,18352;2,60628
3253,13237;2,61083
3251,08121;2,60955
3249,03006;2,60432
3246,9789;2,60013
3244,92775;2,6019
3242,87659;2,60548
3240,82543;2,60535
3238,77428;2,60235
3236,72312;2,59606
3234,67197;2,58848
3232,62081;2,58538
3230,56966;2,58937
3228,5185;2,59527
3226,46735;2,59596
3224,41619;2,59358
3222,36504;2,59212
3220,31388;2,58887
3218,26273;2,58208
3216,21157;2,57719
3214,16041;2,57678
3212,10926;2,57675
3210,0581;2,57784
3208,00695;2,57994
3205,95579;2,57535
3203,90464;2,56691
3201,85348;2,56402
3199,80233;2,5638
3197,75117;2,56274
3195,70002;2,56202
3193,64886;2,55869
3191,59771;2,55267
3189,54655;2,54816
3187,4954;2,5466
3185,44424;2,54661
3183,39308;2,5474
3181,34193;2,54819
3179,29077;2,54723
3177,23962;2,54365
3175,18846;2,54011
3173,13731;2,53996
3171,08615;2,54196
3169,035;2,54392
3166,98384;2,54552
3164,93269;2,54348
3162,88153;2,53512
3160,83038;2,52531
3158,77922;2,51954
3156,72807;2,51868
3154,67691;2,52145
3152,62575;2,52351
3150,5746;2,52114
3148,52344;2,51796
3146,47229;2,51728
3144,42113;2,51476
3142,36998;2,50909
3140,31882;2,50633
3138,26767;2,508
3136,21651;2,50961
3134,16536;2,50864
3132,1142;2,50351
3130,06305;2,4942
3128,01189;2,48662
3125,96074;2,48444
3123,90958;2,48427
3121,85842;2,48475
3119,80727;2,48489
3117,75611;2,48311
3115,70496;2,48373
3113,6538;2,48623
3111,60265;2,4818
3109,55149;2,47213
3107,50034;2,46797
3105,44918;2,46987
3103,39803;2,47079
3101,34687;2,47024
3099,29572;2,47366
3097,24456;2,47812
3095,19341;2,47588
3093,14225;2,47016
3091,09109;2,4674
3089,03994;2,46706
3086,98878;2,46715
3084,93763;2,46712
3082,88647;2,46578
3080,83532;2,46365
3078,78416;2,46197
3076,73301;2,45977
3074,68185;2,45589
3072,6307;2,45154
3070,57954;2,45174
3068,52839;2,45513
3066,47723;2,45465
3064,42608;2,45111
3062,37492;2,44925
3060,32376;2,45028
3058,27261;2,45423
3056,22145;2,45953
3054,1703;2,46045
3052,11914;2,45394
3050,06799;2,44577
3048,01683;2,44179
3045,96568;2,44206
3043,91452;2,4419
3041,86337;2,43879
3039,81221;2,43723
3037,76106;2,43964
3035,7099;2,44403
3033,65875;2,44746
3031,60759;2,44716
3029,55643;2,44631
3027,50528;2,44828
3025,45412;2,45109
3023,40297;2,45496
3021,35181;2,45911
3019,30066;2,46071
3017,2495;2,46481
3015,19835;2,47317
3013,14719;2,47575
3011,09604;2,47013
3009,04488;2,4673
3006,99373;2,47331
3004,94257;2,48345
3002,89142;2,49383
3000,84026;2,50481
2998,7891;2,51834
2996,73795;2,537
2994,68679;2,55802
2992,63564;2,57612
2990,58448;2,59112
2988,53333;2,60483
2986,48217;2,61637
2984,43102;2,62021
2982,37986;2,61669
2980,32871;2,61443
2978,27755;2,61516
2976,2264;2,61249
2974,17524;2,60618
2972,12409;2,59997
2970,07293;2,59628
2968,02177;2,59875
2965,97062;2,60337
2963,91946;2,60387
2961,86831;2,60526
2959,81715;2,60986
2957,766;2,60986
2955,71484;2,60225
2953,66369;2,5935
2951,61253;2,58972
2949,56138;2,58772
2947,51022;2,58191
2945,45907;2,576
2943,40791;2,57544
2941,35675;2,5778
2939,3056;2,57726
2937,25444;2,5721
2935,20329;2,56548
2933,15213;2,56332
2931,10098;2,56949
2929,04982;2,57881
2926,99867;2,57972
2924,94751;2,56998
2922,89636;2,56153
2920,8452;2,56059
2918,79405;2,56268
2916,74289;2,5635
2914,69174;2,56408
2912,64058;2,56368
2910,58942;2,55887
2908,53827;2,55493
2906,48711;2,55728
2904,43596;2,56415
2902,3848;2,57333
2900,33365;2,57749
2898,28249;2,57093
2896,23134;2,56235
2894,18018;2,55838
2892,12903;2,55943
2890,07787;2,56938
2888,02672;2,58358
2885,97556;2,59183
2883,92441;2,59601
2881,87325;2,6037
2879,82209;2,61538
2877,77094;2,62571
2875,71978;2,63274
2873,66863;2,63859
2871,61747;2,6411
2869,56632;2,63319
2867,51516;2,61797
2865,46401;2,60751
2863,41285;2,60237
2861,3617;2,59716
2859,31054;2,59194
2857,25939;2,58669
2855,20823;2,58002
2853,15708;2,57042
2851,10592;2,55951
2849,05476;2,55155
2847,00361;2,5429
2844,95245;2,53178
2842,9013;2,52254
2840,85014;2,51019
2838,79899;2,49059
2836,74783;2,47138
2834,69668;2,45648
2832,64552;2,44179
2830,59437;2,42583
2828,54321;2,41148
2826,49206;2,39989
2824,4409;2,38757
2822,38975;2,373
2820,33859;2,35975
2818,28743;2,34968
2816,23628;2,34313
2814,18512;2,33915
2812,13397;2,33482
2810,08281;2,32951
2808,03166;2,32506
2805,9805;2,32185
2803,92935;2,31898
2801,87819;2,31576
2799,82704;2,31032
2797,77588;2,30341
2795,72473;2,29774
2793,67357;2,29192
2791,62242;2,28482
2789,57126;2,27836
2787,5201;2,27386
2785,46895;2,26944
2783,41779;2,26271
2781,36664;2,25577
2779,31548;2,25138
2777,26433;2,24829
2775,21317;2,24488
2773,16202;2,24232
2771,11086;2,24211
2769,05971;2,24253
2767,00855;2,24047
2764,9574;2,23712
2762,90624;2,23512
2760,85509;2,23423
2758,80393;2,23378
2756,75277;2,23281
2754,70162;2,23042
2752,65046;2,22818
2750,59931;2,22651
2748,54815;2,2244
2746,497;2,22139
2744,44584;2,21742
2742,39469;2,2156
2740,34353;2,21778
2738,29238;2,21989
2736,24122;2,2184
2734,19007;2,21516
2732,13891;2,21388
2730,08776;2,2143
2728,0366;2,21321
2725,98544;2,20965
2723,93429;2,20633
2721,88313;2,20522
2719,83198;2,20568
2717,78082;2,20681
2715,72967;2,20675
2713,67851;2,20504
2711,62736;2,20362
2709,5762;2,20294
2707,52505;2,20254
2705,47389;2,2025
2703,42274;2,20164
2701,37158;2,1992
2699,32043;2,19827
2697,26927;2,20078
2695,21811;2,20345
2693,16696;2,20462
2691,1158;2,2056
2689,06465;2,20597
2687,01349;2,20513
2684,96234;2,20448
2682,91118;2,20452
2680,86003;2,20504
2678,80887;2,20666
2676,75772;2,20729
2674,70656;2,20588
2672,65541;2,20567
2670,60425;2,20829
2668,55309;2,21226
2666,50194;2,21587
2664,45078;2,21821
2662,39963;2,21849
2660,34847;2,21766
2658,29732;2,21814
2656,24616;2,22065
2654,19501;2,2234
2652,14385;2,22539
2650,0927;2,22886
2648,04154;2,23476
2645,99039;2,24068
2643,93923;2,24595
2641,88808;2,25326
2639,83692;2,26393
2637,78576;2,27842
2635,73461;2,29748
2633,68345;2,31803
2631,6323;2,33563
2629,58114;2,34974
2627,52999;2,36346
2625,47883;2,37848
2623,42768;2,3928
2621,37652;2,40506
2619,32537;2,41684
2617,27421;2,42924
2615,22306;2,44056
2613,1719;2,44999
2611,12075;2,46059
2609,06959;2,47455
2607,01843;2,48829
2604,96728;2,49813
2602,91612;2,50456
2600,86497;2,50797
2598,81381;2,5095
2596,76266;2,51115
2594,7115;2,51343
2592,66035;2,51828
2590,60919;2,52558
2588,55804;2,5305
2586,50688;2,53027
2584,45573;2,52677
2582,40457;2,52334
2580,35342;2,52158
2578,30226;2,52241
2576,2511;2,52695
2574,19995;2,53335
2572,14879;2,5377
2570,09764;2,54075
2568,04648;2,54215
2565,99533;2,54139
2563,94417;2,54365
2561,89302;2,54486
2559,84186;2,54227
2557,79071;2,54535
2555,73955;2,55399
2553,6884;2,55908
2551,63724;2,56006
2549,58609;2,56244
2547,53493;2,56846
2545,48377;2,57687
2543,43262;2,58397
2541,38146;2,59014
2539,33031;2,60319
2537,27915;2,62407
2535,228;2,64406
2533,17684;2,66117
2531,12569;2,67752
2529,07453;2,69016
2527,02338;2,70087
2524,97222;2,71253
2522,92107;2,72277
2520,86991;2,7323
2518,81876;2,74118
2516,7676;2,74558
2514,71644;2,74633
2512,66529;2,74965
2510,61413;2,75537
2508,56298;2,74943
2506,51182;2,7299
2504,46067;2,71251
2502,40951;2,69832
2500,35836;2,68048
2498,3072;2,65949
2496,25605;2,63344
2494,20489;2,60442
2492,15374;2,58268
2490,10258;2,56691
2488,05143;2,5491
2486,00027;2,53035
2483,94911;2,51309
2481,89796;2,49397
2479,8468;2,47081
2477,79565;2,44832
2475,74449;2,4276
2473,69334;2,40364
2471,64218;2,38079
2469,59103;2,36489
2467,53987;2,35068
2465,48872;2,33581
2463,43756;2,32437
2461,38641;2,31531
2459,33525;2,30487
2457,2841;2,29302
2455,23294;2,28239
2453,18178;2,27423
2451,13063;2,26779
2449,07947;2,262
2447,02832;2,25471
2444,97716;2,2453
2442,92601;2,23745
2440,87485;2,23284
2438,8237;2,22834
2436,77254;2,22229
2434,72139;2,21582
2432,67023;2,20888
2430,61908;2,20313
2428,56792;2,20049
2426,51677;2,1982
2424,46561;2,19468
2422,41445;2,19066
2420,3633;2,18598
2418,31214;2,1814
2416,26099;2,1776
2414,20983;2,17341
2412,15868;2,16956
2410,10752;2,16787
2408,05637;2,16649
2406,00521;2,16424
2403,95406;2,16214
2401,9029;2,16079
2399,85175;2,16081
2397,80059;2,16074
2395,74944;2,15875
2393,69828;2,15532
2391,64712;2,15283
2389,59597;2,15289
2387,54481;2,15443
2385,49366;2,15533
2383,4425;2,1548
2381,39135;2,15317
2379,34019;2,15127
2377,28904;2,14999
2375,23788;2,15012
2373,18673;2,15104
2371,13557;2,15052
2369,08442;2,14804
2367,03326;2,1467
2364,9821;2,14987
2362,93095;2,15504
2360,87979;2,15667
2358,82864;2,15453
2356,77748;2,15248
2354,72633;2,15285
2352,67517;2,1543
2350,62402;2,15501
2348,57286;2,15437
2346,52171;2,15321
2344,47055;2,15387
2342,4194;2,15612
2340,36824;2,15602
2338,31709;2,1526
2336,26593;2,15038
2334,21477;2,15161
2332,16362;2,15194
2330,11246;2,14946
2328,06131;2,14805
2326,01015;2,1491
2323,959;2,15049
2321,90784;2,15172
2319,85669;2,15357
2317,80553;2,15569
2315,75438;2,15703
2313,70322;2,1566
2311,65207;2,15444
2309,60091;2,15238
2307,54976;2,15207
2305,4986;2,15285
2303,44744;2,15331
2301,39629;2,15374
2299,34513;2,15457
2297,29398;2,15465
2295,24282;2,15328
2293,19167;2,1514
2291,14051;2,14976
2289,08936;2,14779
2287,0382;2,14595
2284,98705;2,14572
2282,93589;2,14724
2280,88474;2,14981
2278,83358;2,15216
2276,78243;2,15293
2274,73127;2,15316
2272,68011;2,15427
2270,62896;2,1546
2268,5778;2,1536
2266,52665;2,15429
2264,47549;2,15737
2262,42434;2,16027
2260,37318;2,16202
2258,32203;2,16383
2256,27087;2,16623
2254,21972;2,16846
2252,16856;2,17017
2250,11741;2,1722
2248,06625;2,17521
2246,0151;2,17873
2243,96394;2,18235
2241,91278;2,18537
2239,86163;2,18602
2237,81047;2,18534
2235,75932;2,18791
2233,70816;2,19383
2231,65701;2,19822
2229,60585;2,20099
2227,5547;2,20498
2225,50354;2,20782
2223,45239;2,20877
2221,40123;2,21149
2219,35008;2,21502
2217,29892;2,21678
2215,24777;2,2181
2213,19661;2,21898
2211,14545;2,21883
2209,0943;2,21972
2207,04314;2,22201
2204,99199;2,22407
2202,94083;2,2257
2200,88968;2,22723
2198,83852;2,22862
2196,78737;2,22975
2194,73621;2,22977
2192,68506;2,22973
2190,6339;2,2307
2188,58275;2,23166
2186,53159;2,23314
2184,48044;2,23525
2182,42928;2,23727
2180,37812;2,2391
2178,32697;2,24072
2176,27581;2,24297
2174,22466;2,24583
2172,1735;2,24907
2170,12235;2,25352
2168,07119;2,25929
2166,02004;2,26563
2163,96888;2,27271
2161,91773;2,28031
2159,86657;2,2876
2157,81542;2,29553
2155,76426;2,30655
2153,71311;2,32118
2151,66195;2,33587
2149,61079;2,34746
2147,55964;2,35593
2145,50848;2,36123
2143,45733;2,36203
2141,40617;2,35938
2139,35502;2,35701
2137,30386;2,35554
2135,25271;2,35391
2133,20155;2,3522
2131,1504;2,34806
2129,09924;2,3394
2127,04809;2,32745
2124,99693;2,31411
2122,94578;2,30166
2120,89462;2,29204
2118,84346;2,28354
2116,79231;2,27377
2114,74115;2,26455
2112,69;2,25772
2110,63884;2,25313
2108,58769;2,25029
2106,53653;2,24719
2104,48538;2,24348
2102,43422;2,24198
2100,38307;2,24292
2098,33191;2,24255
2096,28076;2,2406
2094,2296;2,24073
2092,17844;2,24266
2090,12729;2,24289
2088,07613;2,2423
2086,02498;2,24364
2083,97382;2,24655
2081,92267;2,24894
2079,87151;2,25004
2077,82036;2,25084
2075,7692;2,25181
2073,71805;2,25244
2071,66689;2,25308
2069,61574;2,25439
2067,56458;2,25567
2065,51343;2,25709
2063,46227;2,26034
2061,41111;2,26317
2059,35996;2,26313
2057,3088;2,26248
2055,25765;2,26371
2053,20649;2,26627
2051,15534;2,26823
2049,10418;2,2689
2047,05303;2,2693
2045,00187;2,27138
2042,95072;2,27497
2040,89956;2,27756
2038,84841;2,27824
2036,79725;2,27814
2034,7461;2,27893
2032,69494;2,2818
2030,64378;2,28566
2028,59263;2,28783
2026,54147;2,28837
2024,49032;2,28868
2022,43916;2,28916
2020,38801;2,29028
2018,33685;2,29161
2016,2857;2,29293
2014,23454;2,29452
2012,18339;2,29578
2010,13223;2,29672
2008,08108;2,29783
2006,02992;2,29966
2003,97877;2,30214
2001,92761;2,30386
1999,87645;2,30491
1997,8253;2,30654
1995,77414;2,30819
1993,72299;2,30829
1991,67183;2,30832
1989,62068;2,31021
1987,56952;2,31193
1985,51837;2,3134
1983,46721;2,31541
1981,41606;2,31741
1979,3649;2,31964
1977,31375;2,32181
1975,26259;2,32353
1973,21144;2,32594
1971,16028;2,32996
1969,10912;2,33545
1967,05797;2,34363
1965,00681;2,3559
1962,95566;2,36859
1960,9045;2,37485
1958,85335;2,37163
1956,80219;2,36267
1954,75104;2,3544
1952,69988;2,35141
1950,64873;2,35227
1948,59757;2,35238
1946,54642;2,35142
1944,49526;2,35087
1942,44411;2,3513
1940,39295;2,35437
1938,34179;2,35814
1936,29064;2,36125
1934,23948;2,36456
1932,18833;2,36767
1930,13717;2,37087
1928,08602;2,37514
1926,03486;2,37864
1923,98371;2,37946
1921,93255;2,38182
1919,8814;2,38686
1917,83024;2,39043
1915,77909;2,39295
1913,72793;2,39538
1911,67678;2,39826
1909,62562;2,40245
1907,57446;2,40692
1905,52331;2,40915
1903,47215;2,40959
1901,421;2,41063
1899,36984;2,4131
1897,31869;2,41561
1895,26753;2,4183
1893,21638;2,42354
1891,16522;2,42873
1889,11407;2,43265
1887,06291;2,43832
1885,01176;2,44414
1882,9606;2,44786
1880,90945;2,45107
1878,85829;2,45718
1876,80713;2,46555
1874,75598;2,47216
1872,70482;2,47698
1870,65367;2,48228
1868,60251;2,48861
1866,55136;2,49499
1864,5002;2,5008
1862,44905;2,50801
1860,39789;2,51714
1858,34674;2,52537
1856,29558;2,53271
1854,24443;2,54156
1852,19327;2,55065
1850,14212;2,55788
1848,09096;2,56468
1846,0398;2,57148
1843,98865;2,57851
1841,93749;2,58883
1839,88634;2,60117
1837,83518;2,61374
1835,78403;2,62702
1833,73287;2,64169
1831,68172;2,65663
1829,63056;2,6703
1827,57941;2,68287
1825,52825;2,6967
1823,4771;2,71262
1821,42594;2,72771
1819,37478;2,7453
1817,32363;2,76793
1815,27247;2,79047
1813,22132;2,8115
1811,17016;2,83859
1809,11901;2,87648
1807,06785;2,91987
1805,0167;2,9646
1802,96554;3,00826
1800,91439;3,04566
1798,86323;3,07524
1796,81208;3,09612
1794,76092;3,09712
1792,70977;3,07168
1790,65861;3,03489
1788,60745;3,00257
1786,5563;2,97467
1784,50514;2,95108
1782,45399;2,93286
1780,40283;2,91675
1778,35168;2,90176
1776,30052;2,88917
1774,24937;2,87948
1772,19821;2,87404
1770,14706;2,87343
1768,0959;2,87743
1766,04475;2,88941
1763,99359;2,90575
1761,94244;2,91851
1759,89128;2,92247
1757,84012;2,91987
1755,78897;2,92171
1753,73781;2,9307
1751,68666;2,94126
1749,6355;2,95524
1747,58435;2,97203
1745,53319;2,98192
1743,48204;2,97972
1741,43088;2,97282
1739,37973;2,97329
1737,32857;2,97993
1735,27742;2,98156
1733,22626;2,98549
1731,17511;2,99244
1729,12395;2,99159
1727,07279;2,98978
1725,02164;2,99335
1722,97048;2,99921
1720,91933;3,00183
1718,86817;3,00054
1716,81702;3,00246
1714,76586;3,00886
1712,71471;3,01777
1710,66355;3,02986
1708,6124;3,03729
1706,56124;3,03626
1704,51009;3,03673
1702,45893;3,03524
1700,40778;3,03098
1698,35662;3,04188
1696,30546;3,05665
1694,25431;3,06861
1692,20315;3,08639
1690,152;3,10605
1688,10084;3,10815
1686,04969;3,0891
1683,99853;3,09618
1681,94738;3,14797
1679,89622;3,1796
1677,84507;3,17142
1675,79391;3,15918
1673,74276;3,16542
1671,6916;3,178
1669,64045;3,20173
1667,58929;3,23981
1665,53813;3,25803
1663,48698;3,24994
1661,43582;3,24338
1659,38467;3,25284
1657,33351;3,26262
1655,28236;3,25543
1653,2312;3,24707
1651,18005;3,26075
1649,12889;3,26475
1647,07774;3,24823
1645,02658;3,24678
1642,97543;3,26725
1640,92427;3,28773
1638,87312;3,31065
1636,82196;3,34655
1634,7708;3,37219
1632,71965;3,36606
1630,66849;3,35735
1628,61734;3,35745
1626,56618;3,34614
1624,51503;3,32353
1622,46387;3,31349
1620,41272;3,31708
1618,36156;3,31732
1616,31041;3,31779
1614,25925;3,32564
1612,2081;3,33119
1610,15694;3,33291
1608,10579;3,33098
1606,05463;3,32299
1604,00347;3,31285
1601,95232;3,29862
1599,90116;3,28093
1597,85001;3,25988
1595,79885;3,23329
1593,7477;3,20574
1591,69654;3,18412
1589,64539;3,1687
1587,59423;3,1581
1585,54308;3,15375
1583,49192;3,1482
1581,44077;3,12203
1579,38961;3,06858
1577,33846;2,99995
1575,2873;2,93717
1573,23614;2,89266
1571,18499;2,84843
1569,13383;2,79537
1567,08268;2,74462
1565,03152;2,70033
1562,98037;2,6625
1560,92921;2,61123
1558,87806;2,53169
1556,8269;2,46726
1554,77575;2,42744
1552,72459;2,39283
1550,67344;2,35975
1548,62228;2,33344
1546,57113;2,31671
1544,51997;2,30541
1542,46881;2,29397
1540,41766;2,27832
1538,3665;2,26761
1536,31535;2,26201
1534,26419;2,25205
1532,21304;2,24284
1530,16188;2,23831
1528,11073;2,23577
1526,05957;2,23612
1524,00842;2,23616
1521,95726;2,23367
1519,90611;2,2345
1517,85495;2,23373
1515,80379;2,23009
1513,75264;2,22946
1511,70148;2,23087
1509,65033;2,22988
1507,59917;2,22355
1505,54802;2,22122
1503,49686;2,22431
1501,44571;2,22404
1499,39455;2,22096
1497,3434;2,2186
1495,29224;2,21937
1493,24109;2,22079
1491,18993;2,21886
1489,13878;2,21766
1487,08762;2,21877
1485,03646;2,21847
1482,98531;2,21652
1480,93415;2,21557
1478,883;2,21577
1476,83184;2,21481
1474,78069;2,21196
1472,72953;2,20705
1470,67838;2,20331
1468,62722;2,20035
1466,57607;2,1957
1464,52491;2,19189
1462,47376;2,19055
1460,4226;2,18675
1458,37145;2,17906
1456,32029;2,17452
1454,26913;2,17339
1452,21798;2,16913
1450,16682;2,16297
1448,11567;2,15814
1446,06451;2,15569
1444,01336;2,1529
1441,9622;2,1482
1439,91105;2,14248
1437,85989;2,13517
1435,80874;2,12966
1433,75758;2,12572
1431,70643;2,1172
1429,65527;2,1054
1427,60412;2,09364
1425,55296;2,08145
1423,5018;2,06977
1421,45065;2,0569
1419,39949;2,03868
1417,34834;2,01891
1415,29718;1,99943
1413,24603;1,97877
1411,19487;1,96006
1409,14372;1,94815
1407,09256;1,94596
1405,04141;1,95472
1402,99025;1,9711
1400,9391;1,98729
1398,88794;2,00245
1396,83679;2,01888
1394,78563;2,03677
1392,73447;2,05703
1390,68332;2,07655
1388,63216;2,09516
1386,58101;2,11663
1384,52985;2,1383
1382,4787;2,15618
1380,42754;2,17245
1378,37639;2,1887
1376,32523;2,20356
1374,27408;2,21642
1372,22292;2,22793
1370,17177;2,23786
1368,12061;2,24739
1366,06946;2,25611
1364,0183;2,26269
1361,96714;2,27009
1359,91599;2,2792
1357,86483;2,28751
1355,81368;2,29443
1353,76252;2,30004
1351,71137;2,30445
1349,66021;2,308
1347,60906;2,31107
1345,5579;2,31565
1343,50675;2,32368
1341,45559;2,33279
1339,40444;2,33984
1337,35328;2,34548
1335,30213;2,35041
1333,25097;2,35438
1331,19981;2,35868
1329,14866;2,36381
1327,0975;2,36746
1325,04635;2,36945
1322,99519;2,37207
1320,94404;2,375
1318,89288;2,3757
1316,84173;2,37561
1314,79057;2,37941
1312,73942;2,38621
1310,68826;2,39097
1308,63711;2,39306
1306,58595;2,39429
1304,5348;2,39426
1302,48364;2,39333
1300,43248;2,3933
1298,38133;2,39526
1296,33017;2,39913
1294,27902;2,40381
1292,22786;2,40755
1290,17671;2,40928
1288,12555;2,40925
1286,0744;2,40973
1284,02324;2,41242
1281,97209;2,41558
1279,92093;2,41823
1277,86978;2,42212
1275,81862;2,42685
1273,76747;2,4294
1271,71631;2,43125
1269,66515;2,43667
1267,614;2,44252
1265,56284;2,44389
1263,51169;2,44291
1261,46053;2,44327
1259,40938;2,4465
1257,35822;2,45187
1255,30707;2,45345
1253,25591;2,45009
1251,20476;2,45004
1249,1536;2,45493
1247,10245;2,46047
1245,05129;2,46661
1243,00013;2,47217
1240,94898;2,47346
1238,89782;2,47198
1236,84667;2,47304
1234,79551;2,47562
1232,74436;2,47582
1230,6932;2,47692
1228,64205;2,48098
1226,59089;2,48373
1224,53974;2,48286
1222,48858;2,48216
1220,43743;2,48709
1218,38627;2,49426
1216,33512;2,49508
1214,28396;2,49182
1212,2328;2,49249
1210,18165;2,4975
1208,13049;2,50205
1206,07934;2,50383
1204,02818;2,50637
1201,97703;2,51102
1199,92587;2,51298
1197,87472;2,51228
1195,82356;2,51471
1193,77241;2,52176
1191,72125;2,5313
1189,6701;2,54192
1187,61894;2,54936
1185,56779;2,55102
1183,51663;2,55078
1181,46547;2,55056
1179,41432;2,55181
1177,36316;2,55679
1175,31201;2,56146
1173,26085;2,56066
1171,2097;2,5574
1169,15854;2,55803
1167,10739;2,56249
1165,05623;2,56479
1163,00508;2,56285
1160,95392;2,56063
1158,90277;2,55832
1156,85161;2,55461
1154,80046;2,55459
1152,7493;2,55827
1150,69814;2,56042
1148,64699;2,56278
1146,59583;2,56575
1144,54468;2,56398
1142,49352;2,55756
1140,44237;2,55309
1138,39121;2,55192
1136,34006;2,55201
1134,2889;2,5553
1132,23775;2,55724
1130,18659;2,55465
1128,13544;2,55492
1126,08428;2,56028
1124,03313;2,56735
1121,98197;2,57281
1119,93081;2,57035
1117,87966;2,56531
1115,8285;2,56891
1113,77735;2,57467
1111,72619;2,57441
1109,67504;2,57402
1107,62388;2,58049
1105,57273;2,59065
1103,52157;2,59565
1101,47042;2,59325
1099,41926;2,5861
1097,36811;2,57895
1095,31695;2,58046
1093,2658;2,59354
1091,21464;2,61072
1089,16348;2,62364
1087,11233;2,62967
1085,06117;2,63317
1083,01002;2,63356
1080,95886;2,62613
1078,90771;2,61614
1076,85655;2,61111
1074,8054;2,6139
1072,75424;2,61774
1070,70309;2,61678
1068,65193;2,61502
1066,60078;2,60893
1064,54962;2,60012
1062,49847;2,60118
1060,44731;2,60944
1058,39615;2,61644
1056,345;2,62109
1054,29384;2,62203
1052,24269;2,61907
1050,19153;2,61593
1048,14038;2,61774
1046,08922;2,62511
1044,03807;2,63431
1041,98691;2,64012
1039,93576;2,63863
1037,8846;2,63467
1035,83345;2,63395
1033,78229;2,63728
1031,73114;2,64643
1029,67998;2,6529
1027,62882;2,65134
1025,57767;2,64835
1023,52651;2,64123
1021,47536;2,63478
1019,4242;2,63688
1017,37305;2,63913
1015,32189;2,63488
1013,27074;2,62894
1011,21958;2,6279
1009,16843;2,62894
1007,11727;2,6253
1005,06612;2,62148
1003,01496;2,622
1000,96381;2,62649
998,91265;2,63299
996,86149;2,63498
994,81034;2,6289
992,75918;2,61979
990,70803;2,61201
988,65687;2,60976
986,60572;2,61295
984,55456;2,61495
982,50341;2,61606
980,45225;2,61439
978,4011;2,60611
976,34994;2,59579
974,29879;2,59248
972,24763;2,59666
970,19647;2,59983
968,14532;2,59719
966,09416;2,5928
964,04301;2,59151
961,99185;2,59164
959,9407;2,59453
957,88954;2,59732
955,83839;2,59577
953,78723;2,59739
951,73608;2,60439
949,68492;2,61279
947,63377;2,61069
945,58261;2,59558
943,53146;2,5888
941,4803;2,59272
939,42914;2,59492
937,37799;2,59829
935,32683;2,6004
933,27568;2,59681
931,22452;2,5971
929,17337;2,60306
927,12221;2,6071
925,07106;2,60636
923,0199;2,60346
920,96875;2,60076
918,91759;2,59527
916,86644;2,58648
914,81528;2,58298
912,76413;2,5879
910,71297;2,59715
908,66181;2,60122
906,61066;2,59507
904,5595;2,59486
902,50835;2,60932
900,45719;2,62019
898,40604;2,61617
896,35488;2,60915
894,30373;2,60241
892,25257;2,58171
890,20142;2,53642
888,15026;2,49166
886,09911;2,49008
884,04795;2,52185
881,9968;2,52119
879,94564;2,46098
877,89448;2,37806
875,84333;2,29849
873,79217;2,22871
871,74102;2,19364
869,68986;2,22299
867,63871;2,30381
865,58755;2,38375
863,5364;2,4293
861,48524;2,44848
859,43409;2,46021
857,38293;2,47315
855,33178;2,48802
853,28062;2,50515
851,22947;2,52944
849,17831;2,55311
847,12715;2,55335
845,076;2,53561
843,02484;2,52
840,97369;2,51199
838,92253;2,50712
836,87138;2,50155
834,82022;2,50296
832,76907;2,51405
830,71791;2,5215
828,66676;2,52371
826,6156;2,53129
824,56445;2,53995
822,51329;2,54358
820,46214;2,54907
818,41098;2,56009
816,35982;2,56898
814,30867;2,56724
812,25751;2,55813
810,20636;2,55713
808,1552;2,56995
806,10405;2,58201
804,05289;2,58844
802,00174;2,59918
799,95058;2,60972
797,89943;2,61009
795,84827;2,60349
793,79712;2,59759
791,74596;2,60079
789,69481;2,60732
787,64365;2,60568
785,59249;2,60933
783,54134;2,62175
781,49018;2,62678
779,43903;2,62962
777,38787;2,63999
775,33672;2,64586
773,28556;2,6388
771,23441;2,6261
769,18325;2,61666
767,1321;2,61912
765,08094;2,63247
763,02979;2,64185
760,97863;2,63588
758,92748;2,61689
756,87632;2,60178
754,82516;2,60691
752,77401;2,62223
750,72285;2,63265
748,6717;2,64205
746,62054;2,65107
744,56939;2,65054
742,51823;2,64569
740,46708;2,65174
738,41592;2,65795
736,36477;2,65406
734,31361;2,66032
732,26246;2,68962
730,2113;2,72593
728,16015;2,74457
726,10899;2,74782
724,05783;2,76807
722,00668;2,82192
719,95552;2,88827
717,90437;2,91545
715,85321;2,85791
713,80206;2,74413
711,7509;2,65453
709,69975;2,62637
707,64859;2,64245
705,59744;2,66717
703,54628;2,67626
701,49513;2,67053
699,44397;2,66697
697,39281;2,67054
695,34166;2,66796
693,2905;2,65894
691,23935;2,65368
689,18819;2,65104
687,13704;2,64321
685,08588;2,62971
683,03473;2,62176
680,98357;2,62591
678,93242;2,64008
676,88126;2,66142
674,83011;2,6775
672,77895;2,67961
670,7278;2,68307
668,67664;2,69963
666,62548;2,71303
664,57433;2,70866
662,52317;2,69588
660,47202;2,68605
658,42086;2,6846
656,36971;2,69231
654,31855;2,69731
652,2674;2,69075
650,21624;2,68362
648,16509;2,67927
646,11393;2,67778
644,06278;2,68735
642,01162;2,69883
639,96047;2,70155
637,90931;2,70474
635,85815;2,70761
633,807;2,69613
631,75584;2,68164
629,70469;2,69039
627,65353;2,72493
625,60238;2,75989
623,55122;2,7732
621,50007;2,76808
619,44891;2,76532
617,39776;2,77389
615,3466;2,77796
613,29545;2,7619
611,24429;2,75026
609,19314;2,75565
607,14198;2,75264
605,09082;2,74194
603,03967;2,73691
600,98851;2,73846
598,93736;2,76753
596,8862;2,811
594,83505;2,80559
592,78389;2,75632
590,73274;2,73347
588,68158;2,74986
586,63043;2,75681
584,57927;2,74296
582,52812;2,73642
580,47696;2,74129
578,42581;2,76244
576,37465;2,79289
574,32349;2,80046
572,27234;2,80246
570,22118;2,81865
568,17003;2,80112
566,11887;2,74091
564,06772;2,71148
562,01656;2,74519
559,96541;2,78016
557,91425;2,76832
555,8631;2,7668
553,81194;2,80399
551,76079;2,846
549,70963;2,84635
547,65848;2,81822
545,60732;2,80433
543,55616;2,82358
541,50501;2,86209
539,45385;2,89465
537,4027;2,9198
535,35154;2,91401
533,30039;2,8881
531,24923;2,87529
529,19808;2,86005
527,14692;2,83874
525,09577;2,83531
523,04461;2,8578
520,99346;2,90733
518,9423;2,94725
516,89115;2,94442
514,83999;2,93027
512,78883;2,9152
510,73768;2,88698
508,68652;2,85426
506,63537;2,83083
504,58421;2,83485
502,53306;2,8738
500,4819;2,92752
498,43075;2,95649
496,37959;2,95181
494,32844;2,93893
492,27728;2,92654
490,22613;2,95562
488,17497;3,02788
486,12382;3,0325
484,07266;2,99065
482,0215;2,972
479,97035;2,94952
477,91919;2,91435
475,86804;2,86939
473,81688;2,83831
471,76573;2,84321
469,71457;2,864
467,66342;2,87471
465,61226;2,87172
463,56111;2,85662
461,50995;2,85409
459,4588;2,87888
457,40764;2,89195
455,35649;2,88549
453,30533;2,89128
451,25417;2,89658
449,20302;2,91737
447,15186;2,95111
445,10071;2,89701
443,04955;2,818
440,9984;2,85126
438,94724;2,94437
436,89609;2,95649
434,84493;2,90826
432,79378;2,80818
430,74262;2,72255
428,69147;2,75695
426,64031;2,90838
424,58916;3,11147
422,538;3,21679
420,48684;3,09552
418,43569;3,16576
416,38453;3,30252
414,33338;3,12112
412,28222;2,94425
410,23107;2,8673
408,17991;2,85484
406,12876;2,91321
404,0776;2,95629
402,02645;2,86831
399,97529;2,80051
