3997,70175;1,9044
3995,6506;1,90555
3993,59944;1,90786
3991,54829;1,90988
3989,49713;1,91096
3987,44598;1,91331
3985,39482;1,91691
3983,34367;1,91917
3981,29251;1,91963
3979,24136;1,92039
3977,1902;1,92271
3975,13905;1,92477
3973,08789;1,92504
3971,03673;1,92547
3968,98558;1,92787
3966,93442;1,93243
3964,88327;1,93861
3962,83211;1,94326
3960,78096;1,94454
3958,7298;1,94537
3956,67865;1,94816
3954,62749;1,95218
3952,57634;1,95564
3950,52518;1,95681
3948,47403;1,957
3946,42287;1,95995
3944,37172;1,96387
3942,32056;1,96391
3940,2694;1,96054
3938,21825;1,95811
3936,16709;1,95928
3934,11594;1,9612
3932,06478;1,95853
3930,01363;1,95109
3927,96247;1,94514
3925,91132;1,94376
3923,86016;1,94322
3921,80901;1,93954
3919,75785;1,93348
3917,7067;1,9272
3915,65554;1,92179
3913,60439;1,91804
3911,55323;1,91588
3909,50207;1,91517
3907,45092;1,91527
3905,39976;1,91631
3903,34861;1,91935
3901,29745;1,92053
3899,2463;1,91605
3897,19514;1,91053
3895,14399;1,90824
3893,09283;1,90728
3891,04168;1,90575
3888,99052;1,90554
3886,93937;1,90649
3884,88821;1,90933
3882,83706;1,91211
3880,7859;1,91108
3878,73474;1,90936
3876,68359;1,90866
3874,63243;1,90884
3872,58128;1,91077
3870,53012;1,91112
3868,47897;1,91054
3866,42781;1,91027
3864,37666;1,90968
3862,3255;1,90779
3860,27435;1,90379
3858,22319;1,90036
3856,17204;1,89883
3854,12088;1,9008
3852,06973;1,90439
3850,01857;1,90245
3847,96741;1,89654
3845,91626;1,89353
3843,8651;1,89641
3841,81395;1,90212
3839,76279;1,90377
3837,71164;1,89971
3835,66048;1,89511
3833,60933;1,89273
3831,55817;1,89285
3829,50702;1,89526
3827,45586;1,89715
3825,40471;1,89829
3823,35355;1,89922
3821,3024;1,90093
3819,25124;1,90355
3817,20008;1,90138
3815,14893;1,89714
3813,09777;1,89622
3811,04662;1,89664
3808,99546;1,89752
3806,94431;1,90091
3804,89315;1,90756
3802,842;1,91161
3800,79084;1,91302
3798,73969;1,91449
3796,68853;1,91388
3794,63738;1,91187
3792,58622;1,9092
3790,53506;1,9082
3788,48391;1,91142
3786,43275;1,91676
3784,3816;1,9212
3782,33044;1,92424
3780,27929;1,92573
3778,22813;1,92586
3776,17698;1,92554
3774,12582;1,92702
3772,07467;1,93073
3770,02351;1,93557
3767,97236;1,94145
3765,9212;1,94579
3763,87005;1,9484
3761,81889;1,95107
3759,76773;1,9549
3757,71658;1,95975
3755,66542;1,96457
3753,61427;1,96947
3751,56311;1,97621
3749,51196;1,9854
3747,4608;1,9932
3745,40965;1,99446
3743,35849;1,99712
3741,30734;2,0071
3739,25618;2,01879
3737,20503;2,03097
3735,15387;2,04268
3733,10272;2,04955
3731,05156;2,05414
3729,0004;2,06075
3726,94925;2,06837
3724,89809;2,07801
3722,84694;2,08806
3720,79578;2,09592
3718,74463;2,10356
3716,69347;2,11487
3714,64232;2,13032
3712,59116;2,14922
3710,54001;2,17059
3708,48885;2,18948
3706,4377;2,20456
3704,38654;2,2216
3702,33539;2,24896
3700,28423;2,28707
3698,23307;2,32461
3696,18192;2,35757
3694,13076;2,39257
3692,07961;2,42997
3690,02845;2,46023
3687,9773;2,4797
3685,92614;2,49844
3683,87499;2,5222
3681,82383;2,55166
3679,77268;2,58603
3677,72152;2,62489
3675,67037;2,66846
3673,61921;2,70835
3671,56806;2,7308
3669,5169;2,74186
3667,46574;2,7577
3665,41459;2,77806
3663,36343;2,79928
3661,31228;2,82286
3659,26112;2,84582
3657,20997;2,8613
3655,15881;2,87752
3653,10766;2,90988
3651,0565;2,96246
3649,00535;3,01377
3646,95419;3,0332
3644,90304;3,03365
3642,85188;3,03214
3640,80073;3,03245
3638,74957;3,03378
3636,69841;3,0287
3634,64726;3,01086
3632,5961;2,99359
3630,54495;2,99673
3628,49379;3,01518
3626,44264;3,03029
3624,39148;3,03693
3622,34033;3,03572
3620,28917;3,03589
3618,23802;3,05352
3616,18686;3,08056
3614,13571;3,09153
3612,08455;3,08308
3610,0334;3,0716
3607,98224;3,05739
3605,93108;3,04126
3603,87993;3,04182
3601,82877;3,05465
3599,77762;3,05545
3597,72646;3,0447
3595,67531;3,04216
3593,62415;3,04474
3591,573;3,04549
3589,52184;3,06125
3587,47069;3,09443
3585,41953;3,11145
3583,36838;3,09969
3581,31722;3,09062
3579,26607;3,103
3577,21491;3,11863
3575,16375;3,11253
3573,1126;3,09451
3571,06144;3,08579
3569,01029;3,08953
3566,95913;3,10645
3564,90798;3,11977
3562,85682;3,1066
3560,80567;3,07439
3558,75451;3,04728
3556,70336;3,03571
3554,6522;3,03285
3552,60105;3,03608
3550,54989;3,05255
3548,49874;3,07445
3546,44758;3,07436
3544,39642;3,04737
3542,34527;3,02986
3540,29411;3,03928
3538,24296;3,05423
3536,1918;3,06487
3534,14065;3,0747
3532,08949;3,07656
3530,03834;3,07639
3527,98718;3,08738
3525,93603;3,09302
3523,88487;3,07855
3521,83372;3,07216
3519,78256;3,08913
3517,73141;3,10097
3515,68025;3,09215
3513,62909;3,08524
3511,57794;3,08755
3509,52678;3,08633
3507,47563;3,07961
3505,42447;3,07452
3503,37332;3,0745
3501,32216;3,07452
3499,27101;3,07239
3497,21985;3,07665
3495,1687;3,08711
3493,11754;3,10412
3491,06639;3,12972
3489,01523;3,13398
3486,96407;3,11439
3484,91292;3,11361
3482,86176;3,13235
3480,81061;3,1206
3478,75945;3,07571
3476,7083;3,06497
3474,65714;3,10305
3472,60599;3,12232
3470,55483;3,09214
3468,50368;3,06687
3466,45252;3,07598
3464,40137;3,10011
3462,35021;3,11861
3460,29906;3,11312
3458,2479;3,08616
3456,19674;3,06875
3454,14559;3,06995
3452,09443;3,07721
3450,04328;3,08206
3447,99212;3,08578
3445,94097;3,09902
3443,88981;3,11514
3441,83866;3,12123
3439,7875;3,12234
3437,73635;3,11861
3435,68519;3,10548
3433,63404;3,08673
3431,58288;3,08158
3429,53173;3,10422
3427,48057;3,13449
3425,42941;3,13561
3423,37826;3,11151
3421,3271;3,08923
3419,27595;3,0739
3417,22479;3,05919
3415,17364;3,05121
3413,12248;3,04592
3411,07133;3,04026
3409,02017;3,03834
3406,96902;3,04565
3404,91786;3,06099
3402,86671;3,0764
3400,81555;3,08728
3398,7644;3,08222
3396,71324;3,07201
3394,66208;3,08769
3392,61093;3,11745
3390,55977;3,11007
3388,50862;3,06833
3386,45746;3,04356
3384,40631;3,05362
3382,35515;3,07792
3380,304;3,08594
3378,25284;3,08042
3376,20169;3,0768
3374,15053;3,07307
3372,09938;3,07433
3370,04822;3,07852
3367,99707;3,08157
3365,94591;3,08157
3363,89475;3,07131
3361,8436;3,06512
3359,79244;3,07872
3357,74129;3,08942
3355,69013;3,08304
3353,63898;3,07876
3351,58782;3,07331
3349,53667;3,05208
3347,48551;3,03013
3345,43436;3,02096
3343,3832;3,02885
3341,33205;3,05149
3339,28089;3,07052
3337,22974;3,07177
3335,17858;3,06682
3333,12742;3,06656
3331,07627;3,06614
3329,02511;3,06165
3326,97396;3,04823
3324,9228;3,03059
3322,87165;3,02515
3320,82049;3,03189
3318,76934;3,04084
3316,71818;3,04577
3314,66703;3,04597
3312,61587;3,04843
3310,56472;3,05245
3308,51356;3,05222
3306,46241;3,04343
3304,41125;3,0289
3302,36009;3,02004
3300,30894;3,02296
3298,25778;3,02826
3296,20663;3,02687
3294,15547;3,02642
3292,10432;3,0342
3290,05316;3,04481
3288,00201;3,04942
3285,95085;3,04616
3283,8997;3,04192
3281,84854;3,03577
3279,79739;3,02617
3277,74623;3,01981
3275,69508;3,01154
3273,64392;2,99692
3271,59276;2,99012
3269,54161;2,99349
3267,49045;2,99813
3265,4393;3,00156
3263,38814;2,9984
3261,33699;2,99502
3259,28583;3,00785
3257,23468;3,02665
3255,18352;3,02576
3253,13237;3,01426
3251,08121;3,00797
3249,03006;2,99626
3246,9789;2,98368
3244,92775;2,9897
3242,87659;3,00498
3240,82543;3,01081
3238,77428;3,01034
3236,72312;3,00445
3234,67197;2,99612
3232,62081;2,99605
3230,56966;2,99571
3228,5185;2,98572
3226,46735;2,98449
3224,41619;2,99893
3222,36504;3,00692
3220,31388;2,99984
3218,26273;2,99074
3216,21157;2,99052
3214,16041;2,9924
3212,10926;2,9849
3210,0581;2,9754
3208,00695;2,96477
3205,95579;2,95496
3203,90464;2,9612
3201,85348;2,9859
3199,80233;3,01836
3197,75117;3,03756
3195,70002;3,02731
3193,64886;3,00552
3191,59771;2,99515
3189,54655;2,9954
3187,4954;2,9966
3185,44424;2,99772
3183,39308;2,99548
3181,34193;2,98322
3179,29077;2,97194
3177,23962;2,97517
3175,18846;2,98508
3173,13731;2,98968
3171,08615;2,99076
3169,035;2,98605
3166,98384;2,97644
3164,93269;2,97393
3162,88153;2,97098
3160,83038;2,9622
3158,77922;2,96688
3156,72807;2,97896
3154,67691;2,97874
3152,62575;2,97428
3150,5746;2,97219
3148,52344;2,97045
3146,47229;2,97163
3144,42113;2,97481
3142,36998;2,97386
3140,31882;2,96475
3138,26767;2,95016
3136,21651;2,94211
3134,16536;2,95207
3132,1142;2,96432
3130,06305;2,96085
3128,01189;2,95211
3125,96074;2,9453
3123,90958;2,94291
3121,85842;2,94643
3119,80727;2,95093
3117,75611;2,9508
3115,70496;2,9476
3113,6538;2,94944
3111,60265;2,95391
3109,55149;2,95437
3107,50034;2,95177
3105,44918;2,94594
3103,39803;2,93977
3101,34687;2,9413
3099,29572;2,94668
3097,24456;2,94468
3095,19341;2,93443
3093,14225;2,92474
3091,09109;2,92341
3089,03994;2,92339
3086,98878;2,92517
3084,93763;2,93433
3082,88647;2,94315
3080,83532;2,93986
3078,78416;2,92843
3076,73301;2,92651
3074,68185;2,92966
3072,6307;2,92504
3070,57954;2,923
3068,52839;2,92555
3066,47723;2,92235
3064,42608;2,92044
3062,37492;2,9199
3060,32376;2,91274
3058,27261;2,90939
3056,22145;2,91329
3054,1703;2,90989
3052,11914;2,89736
3050,06799;2,89316
3048,01683;2,9033
3045,96568;2,91292
3043,91452;2,90975
3041,86337;2,89989
3039,81221;2,89337
3037,76106;2,88829
3035,7099;2,88242
3033,65875;2,87948
3031,60759;2,87957
3029,55643;2,87908
3027,50528;2,87963
3025,45412;2,88089
3023,40297;2,87834
3021,35181;2,87769
3019,30066;2,88569
3017,2495;2,89089
3015,19835;2,88121
3013,14719;2,86756
3011,09604;2,8638
3009,04488;2,86495
3006,99373;2,86025
3004,94257;2,85573
3002,89142;2,86046
3000,84026;2,86779
2998,7891;2,87103
2996,73795;2,87154
2994,68679;2,87359
2992,63564;2,88441
2990,58448;2,9012
2988,53333;2,90867
2986,48217;2,90502
2984,43102;2,8992
2982,37986;2,89148
2980,32871;2,88765
2978,27755;2,89647
2976,2264;2,91182
2974,17524;2,92206
2972,12409;2,92141
2970,07293;2,91687
2968,02177;2,91648
2965,97062;2,91423
2963,91946;2,91012
2961,86831;2,90831
2959,81715;2,91014
2957,766;2,91573
2955,71484;2,90638
2953,66369;2,88653
2951,61253;2,88233
2949,56138;2,89059
2947,51022;2,89515
2945,45907;2,88782
2943,40791;2,87571
2941,35675;2,87935
2939,3056;2,9004
2937,25444;2,91278
2935,20329;2,90173
2933,15213;2,88536
2931,10098;2,8794
2929,04982;2,87634
2926,99867;2,87007
2924,94751;2,86275
2922,89636;2,85529
2920,8452;2,85424
2918,79405;2,85268
2916,74289;2,84135
2914,69174;2,83573
2912,64058;2,84046
2910,58942;2,83986
2908,53827;2,83354
2906,48711;2,83166
2904,43596;2,83303
2902,3848;2,82895
2900,33365;2,81819
2898,28249;2,81202
2896,23134;2,81405
2894,18018;2,81613
2892,12903;2,81143
2890,07787;2,80529
2888,02672;2,81151
2885,97556;2,82439
2883,92441;2,83252
2881,87325;2,83848
2879,82209;2,84095
2877,77094;2,83914
2875,71978;2,84027
2873,66863;2,83969
2871,61747;2,82885
2869,56632;2,81846
2867,51516;2,82073
2865,46401;2,82722
2863,41285;2,82263
2861,3617;2,80963
2859,31054;2,79862
2857,25939;2,79655
2855,20823;2,8013
2853,15708;2,79587
2851,10592;2,7809
2849,05476;2,77235
2847,00361;2,76698
2844,95245;2,76061
2842,9013;2,75297
2840,85014;2,7359
2838,79899;2,71271
2836,74783;2,69657
2834,69668;2,69149
2832,64552;2,68599
2830,59437;2,66947
2828,54321;2,65254
2826,49206;2,64614
2824,4409;2,64559
2822,38975;2,64376
2820,33859;2,63832
2818,28743;2,63115
2816,23628;2,62245
2814,18512;2,61144
2812,13397;2,60503
2810,08281;2,60726
2808,03166;2,60826
2805,9805;2,60263
2803,92935;2,59694
2801,87819;2,59414
2799,82704;2,59286
2797,77588;2,58992
2795,72473;2,5819
2793,67357;2,57173
2791,62242;2,56675
2789,57126;2,56796
2787,5201;2,56838
2785,46895;2,56325
2783,41779;2,55609
2781,36664;2,55121
2779,31548;2,54725
2777,26433;2,54536
2775,21317;2,5456
2773,16202;2,543
2771,11086;2,53625
2769,05971;2,5261
2767,00855;2,51803
2764,9574;2,51752
2762,90624;2,52028
2760,85509;2,52089
2758,80393;2,51704
2756,75277;2,50991
2754,70162;2,50488
2752,65046;2,50411
2750,59931;2,50445
2748,54815;2,50369
2746,497;2,50325
2744,44584;2,50103
2742,39469;2,49479
2740,34353;2,48903
2738,29238;2,48569
2736,24122;2,48181
2734,19007;2,47723
2732,13891;2,47478
2730,08776;2,47398
2728,0366;2,47297
2725,98544;2,47138
2723,93429;2,46654
2721,88313;2,45961
2719,83198;2,4557
2717,78082;2,45498
2715,72967;2,4545
2713,67851;2,45159
2711,62736;2,44592
2709,5762;2,44292
2707,52505;2,44425
2705,47389;2,44445
2703,42274;2,44231
2701,37158;2,44191
2699,32043;2,44314
2697,26927;2,44081
2695,21811;2,43675
2693,16696;2,43579
2691,1158;2,43572
2689,06465;2,4347
2687,01349;2,43445
2684,96234;2,43535
2682,91118;2,43423
2680,86003;2,42971
2678,80887;2,4268
2676,75772;2,42858
2674,70656;2,43032
2672,65541;2,43046
2670,60425;2,4302
2668,55309;2,42821
2666,50194;2,42633
2664,45078;2,42503
2662,39963;2,42244
2660,34847;2,41886
2658,29732;2,41681
2656,24616;2,41803
2654,19501;2,41923
2652,14385;2,41894
2650,0927;2,42016
2648,04154;2,42428
2645,99039;2,42882
2643,93923;2,43121
2641,88808;2,43483
2639,83692;2,44175
2637,78576;2,44643
2635,73461;2,44804
2633,68345;2,45197
2631,6323;2,45839
2629,58114;2,46522
2627,52999;2,47219
2625,47883;2,47856
2623,42768;2,48562
2621,37652;2,49445
2619,32537;2,50183
2617,27421;2,50522
2615,22306;2,50855
2613,1719;2,51326
2611,12075;2,5175
2609,06959;2,52359
2607,01843;2,52831
2604,96728;2,52794
2602,91612;2,52804
2600,86497;2,53191
2598,81381;2,53693
2596,76266;2,5409
2594,7115;2,5422
2592,66035;2,54242
2590,60919;2,54477
2588,55804;2,54612
2586,50688;2,54434
2584,45573;2,54313
2582,40457;2,54271
2580,35342;2,54087
2578,30226;2,539
2576,2511;2,53849
2574,19995;2,53809
2572,14879;2,53637
2570,09764;2,5358
2568,04648;2,53827
2565,99533;2,54046
2563,94417;2,54144
2561,89302;2,54221
2559,84186;2,54347
2557,79071;2,54562
2555,73955;2,54803
2553,6884;2,55056
2551,63724;2,55441
2549,58609;2,55965
2547,53493;2,56203
2545,48377;2,55979
2543,43262;2,55908
2541,38146;2,56485
2539,33031;2,57555
2537,27915;2,59043
2535,228;2,60713
2533,17684;2,62126
2531,12569;2,63207
2529,07453;2,63952
2527,02338;2,64766
2524,97222;2,66063
2522,92107;2,67433
2520,86991;2,67924
2518,81876;2,67329
2516,7676;2,66898
2514,71644;2,67625
2512,66529;2,68585
2510,61413;2,68475
2508,56298;2,6772
2506,51182;2,67008
2504,46067;2,65928
2502,40951;2,6436
2500,35836;2,62862
2498,3072;2,6165
2496,25605;2,6069
2494,20489;2,59632
2492,15374;2,58208
2490,10258;2,56497
2488,05143;2,54629
2486,00027;2,53137
2483,94911;2,52042
2481,89796;2,50636
2479,8468;2,49039
2477,79565;2,47902
2475,74449;2,47033
2473,69334;2,4605
2471,64218;2,45034
2469,59103;2,44034
2467,53987;2,43085
2465,48872;2,42216
2463,43756;2,41282
2461,38641;2,40213
2459,33525;2,39402
2457,2841;2,39016
2455,23294;2,38725
2453,18178;2,38326
2451,13063;2,37797
2449,07947;2,37233
2447,02832;2,368
2444,97716;2,36542
2442,92601;2,36189
2440,87485;2,35643
2438,8237;2,35208
2436,77254;2,35008
2434,72139;2,3484
2432,67023;2,34555
2430,61908;2,34344
2428,56792;2,34274
2426,51677;2,33987
2424,46561;2,33469
2422,41445;2,33162
2420,3633;2,33043
2418,31214;2,32914
2416,26099;2,32832
2414,20983;2,32727
2412,15868;2,3267
2410,10752;2,32782
2408,05637;2,32779
2406,00521;2,32478
2403,95406;2,32172
2401,9029;2,32092
2399,85175;2,32014
2397,80059;2,31771
2395,74944;2,31488
2393,69828;2,3135
2391,64712;2,31349
2389,59597;2,31419
2387,54481;2,31519
2385,49366;2,31604
2383,4425;2,31713
2381,39135;2,31878
2379,34019;2,31927
2377,28904;2,31775
2375,23788;2,31674
2373,18673;2,31901
2371,13557;2,32372
2369,08442;2,32654
2367,03326;2,32582
2364,9821;2,32396
2362,93095;2,32186
2360,87979;2,3219
2358,82864;2,32688
2356,77748;2,3307
2354,72633;2,32845
2352,67517;2,32595
2350,62402;2,32727
2348,57286;2,32882
2346,52171;2,32758
2344,47055;2,32579
2342,4194;2,32687
2340,36824;2,32876
2338,31709;2,32773
2336,26593;2,32572
2334,21477;2,32674
2332,16362;2,33024
2330,11246;2,3336
2328,06131;2,33552
2326,01015;2,33565
2323,959;2,3355
2321,90784;2,33543
2319,85669;2,33437
2317,80553;2,33331
2315,75438;2,33317
2313,70322;2,33388
2311,65207;2,33452
2309,60091;2,33396
2307,54976;2,33344
2305,4986;2,3343
2303,44744;2,33509
2301,39629;2,33473
2299,34513;2,33447
2297,29398;2,33517
2295,24282;2,33601
2293,19167;2,33584
2291,14051;2,3344
2289,08936;2,33317
2287,0382;2,33414
2284,98705;2,33711
2282,93589;2,34044
2280,88474;2,34209
2278,83358;2,3412
2276,78243;2,33979
2274,73127;2,34016
2272,68011;2,34269
2270,62896;2,34519
2268,5778;2,34669
2266,52665;2,34895
2264,47549;2,35117
2262,42434;2,35206
2260,37318;2,35325
2258,32203;2,3548
2256,27087;2,35568
2254,21972;2,3562
2252,16856;2,35675
2250,11741;2,35966
2248,06625;2,36526
2246,0151;2,3686
2243,96394;2,36795
2241,91278;2,36705
2239,86163;2,36863
2237,81047;2,37197
2235,75932;2,37336
2233,70816;2,37318
2231,65701;2,37647
2229,60585;2,38364
2227,5547;2,39009
2225,50354;2,3926
2223,45239;2,39382
2221,40123;2,397
2219,35008;2,39935
2217,29892;2,39867
2215,24777;2,39702
2213,19661;2,39704
2211,14545;2,39988
2209,0943;2,40358
2207,04314;2,40577
2204,99199;2,40621
2202,94083;2,40607
2200,88968;2,40663
2198,83852;2,40788
2196,78737;2,41028
2194,73621;2,41297
2192,68506;2,41451
2190,6339;2,41561
2188,58275;2,4154
2186,53159;2,41471
2184,48044;2,41648
2182,42928;2,41958
2180,37812;2,42176
2178,32697;2,42389
2176,27581;2,42802
2174,22466;2,43312
2172,1735;2,43616
2170,12235;2,43668
2168,07119;2,4356
2166,02004;2,43539
2163,96888;2,43957
2161,91773;2,44691
2159,86657;2,4537
2157,81542;2,46067
2155,76426;2,46952
2153,71311;2,47795
2151,66195;2,4849
2149,61079;2,49102
2147,55964;2,49339
2145,50848;2,49318
2143,45733;2,49479
2141,40617;2,49748
2139,35502;2,49856
2137,30386;2,49647
2135,25271;2,49196
2133,20155;2,48862
2131,1504;2,48767
2129,09924;2,48625
2127,04809;2,48412
2124,99693;2,48146
2122,94578;2,47577
2120,89462;2,46822
2118,84346;2,46235
2116,79231;2,45878
2114,74115;2,45586
2112,69;2,45272
2110,63884;2,44997
2108,58769;2,44835
2106,53653;2,44739
2104,48538;2,44651
2102,43422;2,44653
2100,38307;2,44547
2098,33191;2,44168
2096,28076;2,44165
2094,2296;2,44835
2092,17844;2,4533
2090,12729;2,45146
2088,07613;2,44976
2086,02498;2,45218
2083,97382;2,45498
2081,92267;2,45553
2079,87151;2,45442
2077,82036;2,45461
2075,7692;2,45617
2073,71805;2,45541
2071,66689;2,45315
2069,61574;2,45315
2067,56458;2,45626
2065,51343;2,46041
2063,46227;2,46164
2061,41111;2,4592
2059,35996;2,45729
2057,3088;2,45706
2055,25765;2,45657
2053,20649;2,45599
2051,15534;2,45596
2049,10418;2,45697
2047,05303;2,45995
2045,00187;2,46406
2042,95072;2,46679
2040,89956;2,46734
2038,84841;2,46721
2036,79725;2,46822
2034,7461;2,47043
2032,69494;2,47149
2030,64378;2,47038
2028,59263;2,46949
2026,54147;2,47069
2024,49032;2,47293
2022,43916;2,47468
2020,38801;2,47635
2018,33685;2,47952
2016,2857;2,48215
2014,23454;2,4809
2012,18339;2,47827
2010,13223;2,47794
2008,08108;2,47908
2006,02992;2,47893
2003,97877;2,47696
2001,92761;2,47554
1999,87645;2,47581
1997,8253;2,47796
1995,77414;2,48306
1993,72299;2,48856
1991,67183;2,49008
1989,62068;2,48875
1987,56952;2,48791
1985,51837;2,48851
1983,46721;2,48935
1981,41606;2,48991
1979,3649;2,49096
1977,31375;2,49261
1975,26259;2,49455
1973,21144;2,49612
1971,16028;2,49647
1969,10912;2,49624
1967,05797;2,49861
1965,00681;2,50668
1962,95566;2,51728
1960,9045;2,52389
1958,85335;2,5223
1956,80219;2,5151
1954,75104;2,51005
1952,69988;2,51025
1950,64873;2,51253
1948,59757;2,51463
1946,54642;2,51733
1944,49526;2,51919
1942,44411;2,51637
1940,39295;2,51169
1938,34179;2,51146
1936,29064;2,51538
1934,23948;2,5183
1932,18833;2,52002
1930,13717;2,52344
1928,08602;2,52743
1926,03486;2,53055
1923,98371;2,53401
1921,93255;2,53855
1919,8814;2,54184
1917,83024;2,54321
1915,77909;2,54539
1913,72793;2,54945
1911,67678;2,55478
1909,62562;2,55713
1907,57446;2,55377
1905,52331;2,54987
1903,47215;2,54999
1901,421;2,5534
1899,36984;2,55824
1897,31869;2,5611
1895,26753;2,56111
1893,21638;2,56466
1891,16522;2,57293
1889,11407;2,57869
1887,06291;2,58046
1885,01176;2,58248
1882,9606;2,58414
1880,90945;2,58264
1878,85829;2,5817
1876,80713;2,58501
1874,75598;2,58949
1872,70482;2,59303
1870,65367;2,59857
1868,60251;2,60803
1866,55136;2,61617
1864,5002;2,61928
1862,44905;2,62046
1860,39789;2,62036
1858,34674;2,61922
1856,29558;2,6202
1854,24443;2,62523
1852,19327;2,63354
1850,14212;2,64134
1848,09096;2,64582
1846,0398;2,64799
1843,98865;2,65205
1841,93749;2,66134
1839,88634;2,67111
1837,83518;2,67679
1835,78403;2,68002
1833,73287;2,68686
1831,68172;2,70042
1829,63056;2,71599
1827,57941;2,72564
1825,52825;2,72724
1823,4771;2,72839
1821,42594;2,73451
1819,37478;2,74449
1817,32363;2,75656
1815,27247;2,76884
1813,22132;2,78146
1811,17016;2,79768
1809,11901;2,8169
1807,06785;2,8355
1805,0167;2,85868
1802,96554;2,89128
1800,91439;2,92432
1798,86323;2,94807
1796,81208;2,96364
1794,76092;2,97372
1792,70977;2,97507
1790,65861;2,96201
1788,60745;2,93968
1786,5563;2,91589
1784,50514;2,89528
1782,45399;2,88463
1780,40283;2,88493
1778,35168;2,88622
1776,30052;2,88194
1774,24937;2,87606
1772,19821;2,87349
1770,14706;2,87281
1768,0959;2,87216
1766,04475;2,88107
1763,99359;2,90149
1761,94244;2,91729
1759,89128;2,91621
1757,84012;2,90859
1755,78897;2,91284
1753,73781;2,92946
1751,68666;2,94366
1749,6355;2,95051
1747,58435;2,95596
1745,53319;2,96276
1743,48204;2,96839
1741,43088;2,97072
1739,37973;2,97398
1737,32857;2,98062
1735,27742;2,98856
1733,22626;3,0017
1731,17511;3,01251
1729,12395;3,01146
1727,07279;3,00891
1725,02164;3,01425
1722,97048;3,02719
1720,91933;3,04805
1718,86817;3,07709
1716,81702;3,10747
1714,76586;3,12445
1712,71471;3,12817
1710,66355;3,12712
1708,6124;3,1311
1706,56124;3,1535
1704,51009;3,19317
1702,45893;3,22461
1700,40778;3,23819
1698,35662;3,24801
1696,30546;3,24968
1694,25431;3,25039
1692,20315;3,25919
1690,152;3,26596
1688,10084;3,2698
1686,04969;3,26675
1683,99853;3,25234
1681,94738;3,25436
1679,89622;3,27378
1677,84507;3,2695
1675,79391;3,23819
1673,74276;3,22271
1671,6916;3,22546
1669,64045;3,21863
1667,58929;3,20598
1665,53813;3,19318
1663,48698;3,16945
1661,43582;3,13818
1659,38467;3,11436
1657,33351;3,09737
1655,28236;3,0729
1653,2312;3,04578
1651,18005;3,042
1649,12889;3,0472
1647,07774;3,03768
1645,02658;3,01872
1642,97543;3,00711
1640,92427;3,00584
1638,87312;3,00666
1636,82196;2,99977
1634,7708;2,98525
1632,71965;2,97459
1630,66849;2,97251
1628,61734;2,97117
1626,56618;2,96342
1624,51503;2,95347
1622,46387;2,94645
1620,41272;2,94718
1618,36156;2,96028
1616,31041;2,9775
1614,25925;2,97765
1612,2081;2,96311
1610,15694;2,95387
1608,10579;2,95582
1606,05463;2,96155
1604,00347;2,96578
1601,95232;2,96565
1599,90116;2,96246
1597,85001;2,96078
1595,79885;2,96161
1593,7477;2,95941
1591,69654;2,94755
1589,64539;2,93456
1587,59423;2,93435
1585,54308;2,94461
1583,49192;2,95575
1581,44077;2,96445
1579,38961;2,96844
1577,33846;2,96372
1575,2873;2,95268
1573,23614;2,94052
1571,18499;2,92804
1569,13383;2,92367
1567,08268;2,93059
1565,03152;2,93603
1562,98037;2,93086
1560,92921;2,91049
1558,87806;2,88324
1556,8269;2,8718
1554,77575;2,86792
1552,72459;2,85597
1550,67344;2,84102
1548,62228;2,83299
1546,57113;2,83205
1544,51997;2,83292
1542,46881;2,83176
1540,41766;2,82292
1538,3665;2,80785
1536,31535;2,79775
1534,26419;2,7947
1532,21304;2,79647
1530,16188;2,79616
1528,11073;2,79385
1526,05957;2,79746
1524,00842;2,80328
1521,95726;2,7955
1519,90611;2,77693
1517,85495;2,76209
1515,80379;2,74897
1513,75264;2,73349
1511,70148;2,72258
1509,65033;2,72313
1507,59917;2,72643
1505,54802;2,71845
1503,49686;2,70429
1501,44571;2,69331
1499,39455;2,68766
1497,3434;2,68317
1495,29224;2,67914
1493,24109;2,68013
1491,18993;2,68269
1489,13878;2,68108
1487,08762;2,67584
1485,03646;2,67388
1482,98531;2,67892
1480,93415;2,6895
1478,883;2,70153
1476,83184;2,71325
1474,78069;2,72439
1472,72953;2,73208
1470,67838;2,74019
1468,62722;2,75193
1466,57607;2,76288
1464,52491;2,76994
1462,47376;2,77264
1460,4226;2,77275
1458,37145;2,77484
1456,32029;2,78191
1454,26913;2,79011
1452,21798;2,79489
1450,16682;2,79387
1448,11567;2,78827
1446,06451;2,78439
1444,01336;2,78268
1441,9622;2,78013
1439,91105;2,77862
1437,85989;2,78022
1435,80874;2,78262
1433,75758;2,77797
1431,70643;2,767
1429,65527;2,75849
1427,60412;2,75578
1425,55296;2,75668
1423,5018;2,7579
1421,45065;2,75422
1419,39949;2,7448
1417,34834;2,73555
1415,29718;2,72957
1413,24603;2,72728
1411,19487;2,72767
1409,14372;2,72892
1407,09256;2,73408
1405,04141;2,74739
1402,99025;2,76306
1400,9391;2,77148
1398,88794;2,77423
1396,83679;2,77899
1394,78563;2,78643
1392,73447;2,79296
1390,68332;2,79976
1388,63216;2,80815
1386,58101;2,8118
1384,52985;2,80689
1382,4787;2,80101
1380,42754;2,80105
1378,37639;2,80432
1376,32523;2,80502
1374,27408;2,80435
1372,22292;2,80804
1370,17177;2,81408
1368,12061;2,81647
1366,06946;2,81416
1364,0183;2,80824
1361,96714;2,80101
1359,91599;2,79755
1357,86483;2,79979
1355,81368;2,80407
1353,76252;2,80621
1351,71137;2,8065
1349,66021;2,80638
1347,60906;2,80478
1345,5579;2,80253
1343,50675;2,80313
1341,45559;2,80727
1339,40444;2,81336
1337,35328;2,81769
1335,30213;2,81749
1333,25097;2,81911
1331,19981;2,82457
1329,14866;2,82753
1327,0975;2,82859
1325,04635;2,83221
1322,99519;2,84033
1320,94404;2,84911
1318,89288;2,848
1316,84173;2,83987
1314,79057;2,83634
1312,73942;2,83786
1310,68826;2,84508
1308,63711;2,85404
1306,58595;2,85268
1304,5348;2,84243
1302,48364;2,83153
1300,43248;2,82257
1298,38133;2,8212
1296,33017;2,82714
1294,27902;2,83048
1292,22786;2,83316
1290,17671;2,84068
1288,12555;2,84351
1286,0744;2,84225
1284,02324;2,84739
1281,97209;2,85117
1279,92093;2,84757
1277,86978;2,84744
1275,81862;2,85572
1273,76747;2,86173
1271,71631;2,85735
1269,66515;2,84993
1267,614;2,84794
1265,56284;2,85156
1263,51169;2,86126
1261,46053;2,87551
1259,40938;2,88509
1257,35822;2,88589
1255,30707;2,88425
1253,25591;2,88413
1251,20476;2,88307
1249,1536;2,88355
1247,10245;2,88882
1245,05129;2,89441
1243,00013;2,89287
1240,94898;2,88629
1238,89782;2,88459
1236,84667;2,88697
1234,79551;2,88595
1232,74436;2,87998
1230,6932;2,87408
1228,64205;2,87132
1226,59089;2,8677
1224,53974;2,86314
1222,48858;2,85643
1220,43743;2,8457
1218,38627;2,8382
1216,33512;2,83763
1214,28396;2,8413
1212,2328;2,85135
1210,18165;2,8634
1208,13049;2,86523
1206,07934;2,86509
1204,02818;2,87279
1201,97703;2,87135
1199,92587;2,85761
1197,87472;2,85597
1195,82356;2,87309
1193,77241;2,89236
1191,72125;2,90093
1189,6701;2,8961
1187,61894;2,88644
1185,56779;2,88569
1183,51663;2,89032
1181,46547;2,89327
1179,41432;2,89808
1177,36316;2,89965
1175,31201;2,89676
1173,26085;2,90065
1171,2097;2,90403
1169,15854;2,90217
1167,10739;2,90975
1165,05623;2,92541
1163,00508;2,93891
1160,95392;2,94862
1158,90277;2,95529
1156,85161;2,9582
1154,80046;2,95435
1152,7493;2,94949
1150,69814;2,94991
1148,64699;2,95406
1146,59583;2,95932
1144,54468;2,96203
1142,49352;2,96467
1140,44237;2,9709
1138,39121;2,97698
1136,34006;2,97586
1134,2889;2,97338
1132,23775;2,98389
1130,18659;2,99639
1128,13544;3,0005
1126,08428;3,01532
1124,03313;3,0397
1121,98197;3,04788
1119,93081;3,03834
1117,87966;3,02709
1115,8285;3,01959
1113,77735;3,02282
1111,72619;3,03643
1109,67504;3,04226
1107,62388;3,04417
1105,57273;3,05048
1103,52157;3,04803
1101,47042;3,03718
1099,41926;3,04053
1097,36811;3,06042
1095,31695;3,07411
1093,2658;3,07207
1091,21464;3,0652
1089,16348;3,06827
1087,11233;3,07218
1085,06117;3,05684
1083,01002;3,0416
1080,95886;3,02422
1078,90771;2,98835
1076,85655;2,9631
1074,8054;2,96544
1072,75424;2,97168
1070,70309;2,9577
1068,65193;2,93779
1066,60078;2,9307
1064,54962;2,9239
1062,49847;2,90402
1060,44731;2,87472
1058,39615;2,83961
1056,345;2,80668
1054,29384;2,78455
1052,24269;2,76904
1050,19153;2,75174
1048,14038;2,72813
1046,08922;2,69957
1044,03807;2,67283
1041,98691;2,64994
1039,93576;2,6316
1037,8846;2,61755
1035,83345;2,60116
1033,78229;2,5844
1031,73114;2,57505
1029,67998;2,56899
1027,62882;2,5638
1025,57767;2,55995
1023,52651;2,55723
1021,47536;2,55919
1019,4242;2,56235
1017,37305;2,56121
1015,32189;2,5581
1013,27074;2,5539
1011,21958;2,54866
1009,16843;2,54663
1007,11727;2,55055
1005,06612;2,55871
1003,01496;2,56589
1000,96381;2,56855
998,91265;2,57123
996,86149;2,57949
994,81034;2,58712
992,75918;2,58911
990,70803;2,59013
988,65687;2,59194
986,60572;2,59678
984,55456;2,60815
982,50341;2,62063
980,45225;2,62901
978,4011;2,63411
976,34994;2,63612
974,29879;2,63903
972,24763;2,64489
970,19647;2,64908
968,14532;2,65162
966,09416;2,65684
964,04301;2,66634
961,99185;2,67496
959,9407;2,68196
957,88954;2,69352
955,83839;2,70536
953,78723;2,70663
951,73608;2,70143
949,68492;2,7013
947,63377;2,7086
945,58261;2,72188
943,53146;2,73707
941,4803;2,74526
939,42914;2,74476
937,37799;2,74529
935,32683;2,75111
933,27568;2,75288
931,22452;2,75266
929,17337;2,76383
927,12221;2,78189
925,07106;2,79374
923,0199;2,79905
920,96875;2,80388
918,91759;2,80799
916,86644;2,80376
914,81528;2,79629
912,76413;2,79264
910,71297;2,79411
908,66181;2,81026
906,61066;2,83573
904,5595;2,84232
902,50835;2,82675
900,45719;2,81367
898,40604;2,81346
896,35488;2,82205
894,30373;2,83154
892,25257;2,8306
890,20142;2,8087
888,15026;2,78159
886,09911;2,77321
884,04795;2,78003
881,9968;2,79244
879,94564;2,80848
877,89448;2,82317
875,84333;2,83739
873,79217;2,8607
871,74102;2,88505
869,68986;2,89501
867,63871;2,89449
865,58755;2,88895
863,5364;2,87248
861,48524;2,85782
859,43409;2,86133
857,38293;2,87657
855,33178;2,89059
853,28062;2,8973
851,22947;2,9086
849,17831;2,92958
847,12715;2,93159
845,076;2,91185
843,02484;2,90747
840,97369;2,92884
838,92253;2,9622
836,87138;2,99754
834,82022;3,00387
832,76907;2,96044
830,71791;2,92015
828,66676;2,92653
826,6156;2,94721
824,56445;2,93964
822,51329;2,94204
820,46214;2,97058
818,41098;2,98284
816,35982;2,97694
814,30867;2,96536
812,25751;2,94612
810,20636;2,94161
808,1552;2,96405
806,10405;2,98598
804,05289;2,98604
802,00174;2,98745
799,95058;2,9894
797,89943;2,97064
795,84827;2,95155
793,79712;2,95365
791,74596;2,97721
789,69481;2,99803
787,64365;2,99933
785,59249;3,01342
783,54134;3,05157
781,49018;3,07036
779,43903;3,06176
777,38787;3,06005
775,33672;3,06611
773,28556;3,04876
771,23441;3,01691
769,18325;3,01739
767,1321;3,04817
765,08094;3,06587
763,02979;3,04624
760,97863;3,0211
758,92748;3,0093
756,87632;2,99298
754,82516;2,98691
752,77401;3,01544
750,72285;3,04817
748,6717;3,03471
746,62054;2,99622
744,56939;2,97672
742,51823;2,98908
740,46708;3,00837
738,41592;3,01273
736,36477;3,01664
734,31361;3,03343
732,26246;3,04306
730,2113;3,02987
728,16015;3,02765
726,10899;3,06215
724,05783;3,0773
722,00668;3,05686
719,95552;3,03211
717,90437;3,02154
715,85321;3,02584
713,80206;3,0338
711,7509;3,03198
709,69975;3,02672
707,64859;3,02725
705,59744;3,0314
703,54628;3,04297
701,49513;3,05039
699,44397;3,02722
697,39281;2,99334
695,34166;2,98682
693,2905;3,00418
691,23935;3,01568
689,18819;3,01124
687,13704;3,00595
685,08588;2,99981
683,03473;2,97454
680,98357;2,94004
678,93242;2,92512
676,88126;2,92083
674,83011;2,91705
672,77895;2,94153
670,7278;2,99627
668,67664;3,02551
666,62548;2,98614
664,57433;2,9364
662,52317;2,91421
660,47202;2,90797
658,42086;2,89915
656,36971;2,88354
654,31855;2,8728
652,2674;2,88667
650,21624;2,92029
648,16509;2,93428
646,11393;2,93448
644,06278;2,94778
642,01162;2,94709
639,96047;2,92081
637,90931;2,90389
635,85815;2,91437
633,807;2,94091
631,75584;2,95148
629,70469;2,93049
627,65353;2,91091
625,60238;2,91447
623,55122;2,92885
621,50007;2,94182
619,44891;2,94392
617,39776;2,94756
615,3466;2,95796
613,29545;2,95212
611,24429;2,92473
609,19314;2,90625
607,14198;2,92222
605,09082;2,94934
603,03967;2,95649
600,98851;2,94502
598,93736;2,92367
596,8862;2,90159
594,83505;2,89105
592,78389;2,91933
590,73274;2,9676
588,68158;2,97489
586,63043;2,94022
584,57927;2,91674
582,52812;2,9021
580,47696;2,8754
578,42581;2,85885
576,37465;2,8798
574,32349;2,91696
572,27234;2,92293
570,22118;2,87535
568,17003;2,83713
566,11887;2,86267
564,06772;2,93565
562,01656;2,97727
559,96541;2,95038
557,91425;2,90736
555,8631;2,91541
553,81194;2,96372
551,76079;2,97782
549,70963;2,94125
547,65848;2,91017
545,60732;2,89561
543,55616;2,87586
541,50501;2,88029
539,45385;2,9222
537,4027;2,92901
535,35154;2,8625
533,30039;2,80235
531,24923;2,80612
529,19808;2,83058
527,14692;2,83795
525,09577;2,83474
523,04461;2,82642
520,99346;2,79295
518,9423;2,74072
516,89115;2,69361
514,83999;2,6586
512,78883;2,63876
510,73768;2,6372
508,68652;2,64117
506,63537;2,63031
504,58421;2,60079
502,53306;2,57017
500,4819;2,55507
498,43075;2,55161
496,37959;2,56067
494,32844;2,5866
492,27728;2,61185
490,22613;2,60799
488,17497;2,56886
486,12382;2,51807
484,07266;2,48492
482,0215;2,48177
479,97035;2,48966
477,91919;2,47623
475,86804;2,44295
473,81688;2,41161
471,76573;2,39226
469,71457;2,39215
467,66342;2,39286
465,61226;2,37521
463,56111;2,35954
461,50995;2,35515
459,4588;2,34605
457,40764;2,34099
455,35649;2,35572
453,30533;2,37209
451,25417;2,37359
449,20302;2,36145
447,15186;2,35555
445,10071;2,38018
443,04955;2,41243
440,9984;2,41146
438,94724;2,39731
436,89609;2,39722
434,84493;2,4082
432,79378;2,41521
430,74262;2,42595
428,69147;2,45209
426,64031;2,47832
424,58916;2,48558
422,538;2,48942
420,48684;2,49625
418,43569;2,47673
416,38453;2,44605
414,33338;2,44769
412,28222;2,47498
410,23107;2,50403
408,17991;2,53489
406,12876;2,55732
404,0776;2,53076
402,02645;2,45418
399,97529;2,39442
