3997,70175;1,93977
3995,6506;1,94029
3993,59944;1,94204
3991,54829;1,94447
3989,49713;1,9461
3987,44598;1,94527
3985,39482;1,94308
3983,34367;1,94254
3981,29251;1,94355
3979,24136;1,94407
3977,1902;1,94505
3975,13905;1,94849
3973,08789;1,953
3971,03673;1,95526
3968,98558;1,95532
3966,93442;1,95621
3964,88327;1,95932
3962,83211;1,96308
3960,78096;1,96512
3958,7298;1,96499
3956,67865;1,96439
3954,62749;1,96581
3952,57634;1,97004
3950,52518;1,97441
3948,47403;1,97587
3946,42287;1,97512
3944,37172;1,97458
3942,32056;1,97465
3940,2694;1,97437
3938,21825;1,97276
3936,16709;1,97038
3934,11594;1,96903
3932,06478;1,96902
3930,01363;1,96829
3927,96247;1,96659
3925,91132;1,96545
3923,86016;1,96407
3921,80901;1,96159
3919,75785;1,95921
3917,7067;1,95793
3915,65554;1,9561
3913,60439;1,95059
3911,55323;1,94253
3909,50207;1,93763
3907,45092;1,93856
3905,39976;1,94294
3903,34861;1,94891
3901,29745;1,955
3899,2463;1,95609
3897,19514;1,94965
3895,14399;1,942
3893,09283;1,93903
3891,04168;1,93797
3888,99052;1,93492
3886,93937;1,93364
3884,88821;1,93818
3882,83706;1,94408
3880,7859;1,94486
3878,73474;1,94073
3876,68359;1,93704
3874,63243;1,93647
3872,58128;1,93768
3870,53012;1,93877
3868,47897;1,93903
3866,42781;1,93891
3864,37666;1,9399
3862,3255;1,93972
3860,27435;1,93465
3858,22319;1,92609
3856,17204;1,92129
3854,12088;1,93128
3852,06973;1,94685
3850,01857;1,94669
3847,96741;1,93589
3845,91626;1,92917
3843,8651;1,9307
3841,81395;1,93626
3839,76279;1,94191
3837,71164;1,94477
3835,66048;1,94411
3833,60933;1,94268
3831,55817;1,94206
3829,50702;1,94211
3827,45586;1,94144
3825,40471;1,93908
3823,35355;1,93865
3821,3024;1,94516
3819,25124;1,95276
3817,20008;1,95379
3815,14893;1,95108
3813,09777;1,94701
3811,04662;1,94193
3808,99546;1,94018
3806,94431;1,94333
3804,89315;1,94747
3802,842;1,95238
3800,79084;1,96061
3798,73969;1,96812
3796,68853;1,96965
3794,63738;1,96569
3792,58622;1,96051
3790,53506;1,95805
3788,48391;1,96057
3786,43275;1,96679
3784,3816;1,9718
3782,33044;1,97454
3780,27929;1,97899
3778,22813;1,98359
3776,17698;1,98338
3774,12582;1,98085
3772,07467;1,98272
3770,02351;1,99092
3767,97236;2,00044
3765,9212;2,00563
3763,87005;2,00629
3761,81889;2,00812
3759,76773;2,01594
3757,71658;2,02323
3755,66542;2,02168
3753,61427;2,01872
3751,56311;2,02574
3749,51196;2,03692
3747,4608;2,04301
3745,40965;2,04924
3743,35849;2,06099
3741,30734;2,06932
3739,25618;2,07022
3737,20503;2,07637
3735,15387;2,09474
3733,10272;2,11203
3731,05156;2,11838
3729,0004;2,12101
3726,94925;2,12923
3724,89809;2,14426
3722,84694;2,16056
3720,79578;2,17397
3718,74463;2,18322
3716,69347;2,1896
3714,64232;2,19959
3712,59116;2,22196
3710,54001;2,25151
3708,48885;2,27188
3706,4377;2,28555
3704,38654;2,30636
3702,33539;2,33851
3700,28423;2,37374
3698,23307;2,40577
3696,18192;2,43675
3694,13076;2,46684
3692,07961;2,49648
3690,02845;2,53101
3687,9773;2,57013
3685,92614;2,60602
3683,87499;2,63512
3681,82383;2,66398
3679,77268;2,69786
3677,72152;2,72937
3675,67037;2,75022
3673,61921;2,768
3671,56806;2,79433
3669,5169;2,82466
3667,46574;2,84661
3665,41459;2,86198
3663,36343;2,87733
3661,31228;2,88941
3659,26112;2,89355
3657,20997;2,89423
3655,15881;2,89876
3653,10766;2,91589
3651,0565;2,94804
3649,00535;2,97338
3646,95419;2,97706
3644,90304;2,97738
3642,85188;2,97836
3640,80073;2,9817
3638,74957;2,98688
3636,69841;2,98459
3634,64726;2,97349
3632,5961;2,97154
3630,54495;3,00029
3628,49379;3,04497
3626,44264;3,04885
3624,39148;3,01823
3622,34033;3,00555
3620,28917;3,02288
3618,23802;3,04313
3616,18686;3,0437
3614,13571;3,02416
3612,08455;3,00674
3610,0334;3,01269
3607,98224;3,02989
3605,93108;3,03054
3603,87993;3,01391
3601,82877;3,00258
3599,77762;3,00411
3597,72646;3,00735
3595,67531;3,01244
3593,62415;3,02264
3591,573;3,02958
3589,52184;3,0318
3587,47069;3,02951
3585,41953;3,02247
3583,36838;3,01888
3581,31722;3,01143
3579,26607;2,99555
3577,21491;2,9929
3575,16375;3,0156
3573,1126;3,04275
3571,06144;3,04549
3569,01029;3,02909
3566,95913;3,02702
3564,90798;3,04312
3562,85682;3,05585
3560,80567;3,0558
3558,75451;3,04334
3556,70336;3,02833
3554,6522;3,02316
3552,60105;3,02923
3550,54989;3,03666
3548,49874;3,04177
3546,44758;3,04816
3544,39642;3,05138
3542,34527;3,04856
3540,29411;3,04508
3538,24296;3,03789
3536,1918;3,02645
3534,14065;3,02138
3532,08949;3,02469
3530,03834;3,02459
3527,98718;3,00994
3525,93603;2,99009
3523,88487;2,98863
3521,83372;3,00432
3519,78256;3,01245
3517,73141;3,01417
3515,68025;3,0193
3513,62909;3,01999
3511,57794;3,01949
3509,52678;3,01787
3507,47563;3,007
3505,42447;3,00308
3503,37332;3,01812
3501,32216;3,03747
3499,27101;3,05234
3497,21985;3,06012
3495,1687;3,04852
3493,11754;3,02965
3491,06639;3,03877
3489,01523;3,07309
3486,96407;3,08409
3484,91292;3,057
3482,86176;3,04126
3480,81061;3,06045
3478,75945;3,07652
3476,7083;3,06486
3474,65714;3,04626
3472,60599;3,03872
3470,55483;3,04306
3468,50368;3,05615
3466,45252;3,06584
3464,40137;3,06199
3462,35021;3,04735
3460,29906;3,03006
3458,2479;3,01882
3456,19674;3,02276
3454,14559;3,0306
3452,09443;3,0293
3450,04328;3,03343
3447,99212;3,03808
3445,94097;3,02905
3443,88981;3,02323
3441,83866;3,01793
3439,7875;3,00544
3437,73635;2,99961
3435,68519;3,00532
3433,63404;3,01276
3431,58288;3,01449
3429,53173;3,01302
3427,48057;3,00856
3425,42941;3,00303
3423,37826;3,01498
3421,3271;3,05014
3419,27595;3,08101
3417,22479;3,08373
3415,17364;3,06542
3413,12248;3,04498
3411,07133;3,02744
3409,02017;3,0129
3406,96902;3,00897
3404,91786;3,01489
3402,86671;3,01385
3400,81555;3,00313
3398,7644;3,00205
3396,71324;3,01533
3394,66208;3,02838
3392,61093;3,02894
3390,55977;3,01981
3388,50862;3,01648
3386,45746;3,02051
3384,40631;3,02417
3382,35515;3,0216
3380,304;3,01044
3378,25284;2,99202
3376,20169;2,97953
3374,15053;2,98028
3372,09938;2,98521
3370,04822;2,98665
3367,99707;2,98271
3365,94591;2,98054
3363,89475;2,9886
3361,8436;3,00217
3359,79244;3,00278
3357,74129;2,98765
3355,69013;2,97836
3353,63898;2,98401
3351,58782;2,99232
3349,53667;2,98569
3347,48551;2,97143
3345,43436;2,9833
3343,3832;3,01979
3341,33205;3,03173
3339,28089;3,01326
3337,22974;3,00034
3335,17858;2,99197
3333,12742;2,98564
3331,07627;2,99779
3329,02511;3,01945
3326,97396;3,01865
3324,9228;3,00163
3322,87165;2,99652
3320,82049;2,99944
3318,76934;3,00073
3316,71818;2,99489
3314,66703;2,97905
3312,61587;2,96764
3310,56472;2,97194
3308,51356;2,98063
3306,46241;2,98256
3304,41125;2,97864
3302,36009;2,97061
3300,30894;2,95991
3298,25778;2,95359
3296,20663;2,95783
3294,15547;2,97104
3292,10432;2,9832
3290,05316;2,9874
3288,00201;2,98925
3285,95085;2,99572
3283,8997;3,00301
3281,84854;3,0019
3279,79739;2,98493
3277,74623;2,96135
3275,69508;2,94837
3273,64392;2,94315
3271,59276;2,94043
3269,54161;2,94605
3267,49045;2,95763
3265,4393;2,96885
3263,38814;2,9725
3261,33699;2,96162
3259,28583;2,95215
3257,23468;2,95778
3255,18352;2,95773
3253,13237;2,939
3251,08121;2,92105
3249,03006;2,92018
3246,9789;2,9339
3244,92775;2,95159
3242,87659;2,96341
3240,82543;2,9654
3238,77428;2,96083
3236,72312;2,95449
3234,67197;2,94996
3232,62081;2,94403
3230,56966;2,93484
3228,5185;2,93479
3226,46735;2,94312
3224,41619;2,94263
3222,36504;2,93793
3220,31388;2,94169
3218,26273;2,95009
3216,21157;2,95919
3214,16041;2,95934
3212,10926;2,94442
3210,0581;2,9301
3208,00695;2,92755
3205,95579;2,93008
3203,90464;2,93186
3201,85348;2,93457
3199,80233;2,93586
3197,75117;2,93679
3195,70002;2,94053
3193,64886;2,93548
3191,59771;2,91761
3189,54655;2,90614
3187,4954;2,90782
3185,44424;2,9146
3183,39308;2,9204
3181,34193;2,91408
3179,29077;2,90106
3177,23962;2,89967
3175,18846;2,91467
3173,13731;2,93528
3171,08615;2,93938
3169,035;2,92077
3166,98384;2,90119
3164,93269;2,89446
3162,88153;2,89917
3160,83038;2,90816
3158,77922;2,9123
3156,72807;2,90963
3154,67691;2,89921
3152,62575;2,88829
3150,5746;2,89394
3148,52344;2,91102
3146,47229;2,9135
3144,42113;2,89647
3142,36998;2,88581
3140,31882;2,89326
3138,26767;2,8993
3136,21651;2,88913
3134,16536;2,87873
3132,1142;2,87815
3130,06305;2,87293
3128,01189;2,85471
3125,96074;2,83491
3123,90958;2,83154
3121,85842;2,84892
3119,80727;2,86988
3117,75611;2,87483
3115,70496;2,87107
3113,6538;2,87461
3111,60265;2,87809
3109,55149;2,8718
3107,50034;2,86475
3105,44918;2,86364
3103,39803;2,86117
3101,34687;2,85407
3099,29572;2,85209
3097,24456;2,86179
3095,19341;2,87289
3093,14225;2,8724
3091,09109;2,86633
3089,03994;2,86225
3086,98878;2,85995
3084,93763;2,86133
3082,88647;2,85792
3080,83532;2,84511
3078,78416;2,8379
3076,73301;2,83955
3074,68185;2,83772
3072,6307;2,83222
3070,57954;2,83408
3068,52839;2,83812
3066,47723;2,83355
3064,42608;2,8317
3062,37492;2,837
3060,32376;2,83306
3058,27261;2,82414
3056,22145;2,82568
3054,1703;2,82593
3052,11914;2,81673
3050,06799;2,80909
3048,01683;2,80742
3045,96568;2,80813
3043,91452;2,80981
3041,86337;2,813
3039,81221;2,81143
3037,76106;2,80426
3035,7099;2,80228
3033,65875;2,8035
3031,60759;2,79705
3029,55643;2,78749
3027,50528;2,78496
3025,45412;2,78361
3023,40297;2,7749
3021,35181;2,76777
3019,30066;2,76829
3017,2495;2,76672
3015,19835;2,76193
3013,14719;2,75919
3011,09604;2,7563
3009,04488;2,75351
3006,99373;2,7494
3004,94257;2,74409
3002,89142;2,74771
3000,84026;2,76108
2998,7891;2,76936
2996,73795;2,76684
2994,68679;2,76401
2992,63564;2,76642
2990,58448;2,77199
2988,53333;2,77793
2986,48217;2,78287
2984,43102;2,78211
2982,37986;2,78099
2980,32871;2,79081
2978,27755;2,8018
2976,2264;2,7977
2974,17524;2,78708
2972,12409;2,79015
2970,07293;2,80101
2968,02177;2,80114
2965,97062;2,79082
2963,91946;2,78018
2961,86831;2,77762
2959,81715;2,77962
2957,766;2,77426
2955,71484;2,7681
2953,66369;2,76782
2951,61253;2,76637
2949,56138;2,76596
2947,51022;2,7686
2945,45907;2,76907
2943,40791;2,77185
2941,35675;2,77487
2939,3056;2,77246
2937,25444;2,76952
2935,20329;2,76545
2933,15213;2,76005
2931,10098;2,75907
2929,04982;2,76119
2926,99867;2,76037
2924,94751;2,75266
2922,89636;2,74156
2920,8452;2,73383
2918,79405;2,72756
2916,74289;2,723
2914,69174;2,72256
2912,64058;2,72164
2910,58942;2,71827
2908,53827;2,71116
2906,48711;2,70081
2904,43596;2,69608
2902,3848;2,69363
2900,33365;2,68372
2898,28249;2,6742
2896,23134;2,67241
2894,18018;2,67325
2892,12903;2,67337
2890,07787;2,67395
2888,02672;2,67628
2885,97556;2,67886
2883,92441;2,68042
2881,87325;2,68388
2879,82209;2,69158
2877,77094;2,6973
2875,71978;2,69609
2873,66863;2,69748
2871,61747;2,70185
2869,56632;2,69615
2867,51516;2,6827
2865,46401;2,67045
2863,41285;2,6588
2861,3617;2,64589
2859,31054;2,63538
2857,25939;2,63052
2855,20823;2,62782
2853,15708;2,62399
2851,10592;2,62005
2849,05476;2,61212
2847,00361;2,59765
2844,95245;2,58442
2842,9013;2,57696
2840,85014;2,57105
2838,79899;2,5636
2836,74783;2,55526
2834,69668;2,54787
2832,64552;2,54114
2830,59437;2,53278
2828,54321;2,52587
2826,49206;2,52317
2824,4409;2,52169
2822,38975;2,51906
2820,33859;2,51482
2818,28743;2,50931
2816,23628;2,50462
2814,18512;2,50306
2812,13397;2,50118
2810,08281;2,49463
2808,03166;2,4876
2805,9805;2,48419
2803,92935;2,48196
2801,87819;2,47793
2799,82704;2,47045
2797,77588;2,46199
2795,72473;2,45622
2793,67357;2,45426
2791,62242;2,45538
2789,57126;2,45275
2787,5201;2,44562
2785,46895;2,44028
2783,41779;2,43726
2781,36664;2,43548
2779,31548;2,4332
2777,26433;2,4293
2775,21317;2,42501
2773,16202;2,42056
2771,11086;2,41655
2769,05971;2,41367
2767,00855;2,41036
2764,9574;2,40572
2762,90624;2,40185
2760,85509;2,39877
2758,80393;2,39541
2756,75277;2,39269
2754,70162;2,38887
2752,65046;2,38442
2750,59931;2,38311
2748,54815;2,38273
2746,497;2,3793
2744,44584;2,37375
2742,39469;2,36943
2740,34353;2,36604
2738,29238;2,36096
2736,24122;2,357
2734,19007;2,35618
2732,13891;2,35476
2730,08776;2,35221
2728,0366;2,34975
2725,98544;2,34664
2723,93429;2,34479
2721,88313;2,34523
2719,83198;2,34439
2717,78082;2,3403
2715,72967;2,33542
2713,67851;2,33086
2711,62736;2,32555
2709,5762;2,32211
2707,52505;2,32258
2705,47389;2,32196
2703,42274;2,31866
2701,37158;2,31671
2699,32043;2,31513
2697,26927;2,31213
2695,21811;2,30894
2693,16696;2,30598
2691,1158;2,30369
2689,06465;2,30356
2687,01349;2,30397
2684,96234;2,30264
2682,91118;2,3016
2680,86003;2,30066
2678,80887;2,29848
2676,75772;2,29705
2674,70656;2,29702
2672,65541;2,29573
2670,60425;2,29226
2668,55309;2,28976
2666,50194;2,28859
2664,45078;2,28679
2662,39963;2,28537
2660,34847;2,28518
2658,29732;2,28478
2656,24616;2,28364
2654,19501;2,28306
2652,14385;2,28272
2650,0927;2,28124
2648,04154;2,27965
2645,99039;2,27899
2643,93923;2,27979
2641,88808;2,28063
2639,83692;2,27935
2637,78576;2,2797
2635,73461;2,28399
2633,68345;2,28827
2631,6323;2,29166
2629,58114;2,29614
2627,52999;2,3012
2625,47883;2,30448
2623,42768;2,30548
2621,37652;2,30751
2619,32537;2,31192
2617,27421;2,31621
2615,22306;2,31989
2613,1719;2,32334
2611,12075;2,32632
2609,06959;2,33034
2607,01843;2,33562
2604,96728;2,34043
2602,91612;2,34273
2600,86497;2,34214
2598,81381;2,34051
2596,76266;2,33825
2594,7115;2,33592
2592,66035;2,33569
2590,60919;2,33717
2588,55804;2,33768
2586,50688;2,33614
2584,45573;2,3346
2582,40457;2,33586
2580,35342;2,33929
2578,30226;2,34315
2576,2511;2,34512
2574,19995;2,34347
2572,14879;2,34232
2570,09764;2,34297
2568,04648;2,3412
2565,99533;2,33756
2563,94417;2,33595
2561,89302;2,33619
2559,84186;2,33693
2557,79071;2,33815
2555,73955;2,33922
2553,6884;2,34073
2551,63724;2,34125
2549,58609;2,34022
2547,53493;2,34132
2545,48377;2,34583
2543,43262;2,35177
2541,38146;2,35724
2539,33031;2,36244
2537,27915;2,36968
2535,228;2,38152
2533,17684;2,39769
2531,12569;2,41554
2529,07453;2,43115
2527,02338;2,4404
2524,97222;2,44625
2522,92107;2,45488
2520,86991;2,46387
2518,81876;2,46885
2516,7676;2,47114
2514,71644;2,47166
2512,66529;2,46995
2510,61413;2,46468
2508,56298;2,45709
2506,51182;2,44919
2504,46067;2,43878
2502,40951;2,42629
2500,35836;2,41403
2498,3072;2,39991
2496,25605;2,38291
2494,20489;2,36696
2492,15374;2,35453
2490,10258;2,34388
2488,05143;2,33323
2486,00027;2,32377
2483,94911;2,31747
2481,89796;2,31167
2479,8468;2,30176
2477,79565;2,28918
2475,74449;2,27867
2473,69334;2,27011
2471,64218;2,2621
2469,59103;2,25665
2467,53987;2,25328
2465,48872;2,24907
2463,43756;2,24294
2461,38641;2,23628
2459,33525;2,23243
2457,2841;2,23177
2455,23294;2,23115
2453,18178;2,22858
2451,13063;2,22562
2449,07947;2,22407
2447,02832;2,22221
2444,97716;2,21947
2442,92601;2,21794
2440,87485;2,21824
2438,8237;2,21856
2436,77254;2,21658
2434,72139;2,21294
2432,67023;2,20959
2430,61908;2,20732
2428,56792;2,2071
2426,51677;2,2082
2424,46561;2,20856
2422,41445;2,20736
2420,3633;2,20631
2418,31214;2,20689
2416,26099;2,20666
2414,20983;2,20452
2412,15868;2,20305
2410,10752;2,20322
2408,05637;2,20261
2406,00521;2,20027
2403,95406;2,19854
2401,9029;2,19847
2399,85175;2,19895
2397,80059;2,19915
2395,74944;2,1994
2393,69828;2,20055
2391,64712;2,20201
2389,59597;2,202
2387,54481;2,20051
2385,49366;2,19961
2383,4425;2,20003
2381,39135;2,19993
2379,34019;2,1988
2377,28904;2,19928
2375,23788;2,20203
2373,18673;2,20458
2371,13557;2,20609
2369,08442;2,20769
2367,03326;2,21046
2364,9821;2,21333
2362,93095;2,21523
2360,87979;2,21865
2358,82864;2,22226
2356,77748;2,22267
2354,72633;2,22279
2352,67517;2,22526
2350,62402;2,2268
2348,57286;2,22159
2346,52171;2,21183
2344,47055;2,20969
2342,4194;2,21848
2340,36824;2,2264
2338,31709;2,22697
2336,26593;2,22416
2334,21477;2,22279
2332,16362;2,22408
2330,11246;2,22617
2328,06131;2,22716
2326,01015;2,22803
2323,959;2,23042
2321,90784;2,23413
2319,85669;2,23806
2317,80553;2,24058
2315,75438;2,24128
2313,70322;2,24124
2311,65207;2,23993
2309,60091;2,23665
2307,54976;2,2332
2305,4986;2,23171
2303,44744;2,23247
2301,39629;2,23484
2299,34513;2,23786
2297,29398;2,24025
2295,24282;2,24199
2293,19167;2,24329
2291,14051;2,24337
2289,08936;2,24331
2287,0382;2,24458
2284,98705;2,24541
2282,93589;2,24452
2280,88474;2,24392
2278,83358;2,24474
2276,78243;2,24542
2274,73127;2,24577
2272,68011;2,24763
2270,62896;2,25052
2268,5778;2,25291
2266,52665;2,25472
2264,47549;2,25655
2262,42434;2,2592
2260,37318;2,26121
2258,32203;2,2607
2256,27087;2,26002
2254,21972;2,26218
2252,16856;2,26563
2250,11741;2,26791
2248,06625;2,26928
2246,0151;2,27092
2243,96394;2,27362
2241,91278;2,27617
2239,86163;2,27776
2237,81047;2,27938
2235,75932;2,28051
2233,70816;2,28185
2231,65701;2,28505
2229,60585;2,28805
2227,5547;2,29063
2225,50354;2,2941
2223,45239;2,29713
2221,40123;2,29883
2219,35008;2,29891
2217,29892;2,29811
2215,24777;2,2991
2213,19661;2,30224
2211,14545;2,30442
2209,0943;2,30614
2207,04314;2,30956
2204,99199;2,31226
2202,94083;2,31268
2200,88968;2,31227
2198,83852;2,31148
2196,78737;2,31235
2194,73621;2,31594
2192,68506;2,31912
2190,6339;2,32258
2188,58275;2,32703
2186,53159;2,32815
2184,48044;2,3259
2182,42928;2,32417
2180,37812;2,32373
2178,32697;2,32472
2176,27581;2,3285
2174,22466;2,33346
2172,1735;2,3354
2170,12235;2,33524
2168,07119;2,33772
2166,02004;2,34167
2163,96888;2,34471
2161,91773;2,34787
2159,86657;2,35104
2157,81542;2,3541
2155,76426;2,35748
2153,71311;2,36097
2151,66195;2,36454
2149,61079;2,36829
2147,55964;2,37161
2145,50848;2,37435
2143,45733;2,37634
2141,40617;2,37832
2139,35502;2,38252
2137,30386;2,38542
2135,25271;2,38287
2133,20155;2,37899
2131,1504;2,37761
2129,09924;2,37697
2127,04809;2,37468
2124,99693;2,37161
2122,94578;2,36925
2120,89462;2,36773
2118,84346;2,36717
2116,79231;2,36667
2114,74115;2,36386
2112,69;2,35864
2110,63884;2,35457
2108,58769;2,35349
2106,53653;2,35452
2104,48538;2,35583
2102,43422;2,35585
2100,38307;2,35626
2098,33191;2,35679
2096,28076;2,3562
2094,2296;2,35666
2092,17844;2,35921
2090,12729;2,36268
2088,07613;2,36448
2086,02498;2,36332
2083,97382;2,36277
2081,92267;2,36507
2079,87151;2,36678
2077,82036;2,3661
2075,7692;2,36513
2073,71805;2,36399
2071,66689;2,36181
2069,61574;2,36059
2067,56458;2,36256
2065,51343;2,36648
2063,46227;2,3682
2061,41111;2,36617
2059,35996;2,36418
2057,3088;2,36521
2055,25765;2,36659
2053,20649;2,36583
2051,15534;2,36442
2049,10418;2,36368
2047,05303;2,36466
2045,00187;2,36723
2042,95072;2,36827
2040,89956;2,36716
2038,84841;2,36659
2036,79725;2,36678
2034,7461;2,3667
2032,69494;2,36746
2030,64378;2,36919
2028,59263;2,36938
2026,54147;2,36809
2024,49032;2,36736
2022,43916;2,3672
2020,38801;2,3676
2018,33685;2,3698
2016,2857;2,37238
2014,23454;2,37174
2012,18339;2,36902
2010,13223;2,36837
2008,08108;2,36988
2006,02992;2,37093
2003,97877;2,37005
2001,92761;2,36866
1999,87645;2,3705
1997,8253;2,37429
1995,77414;2,37576
1993,72299;2,37574
1991,67183;2,3759
1989,62068;2,37663
1987,56952;2,37702
1985,51837;2,3748
1983,46721;2,37218
1981,41606;2,37293
1979,3649;2,37369
1977,31375;2,37121
1975,26259;2,36946
1973,21144;2,37108
1971,16028;2,37536
1969,10912;2,38172
1967,05797;2,38702
1965,00681;2,38855
1962,95566;2,38841
1960,9045;2,38687
1958,85335;2,38291
1956,80219;2,38003
1954,75104;2,38013
1952,69988;2,38055
1950,64873;2,3806
1948,59757;2,38159
1946,54642;2,38309
1944,49526;2,38488
1942,44411;2,38682
1940,39295;2,3881
1938,34179;2,38851
1936,29064;2,38782
1934,23948;2,38743
1932,18833;2,38888
1930,13717;2,39098
1928,08602;2,39315
1926,03486;2,3965
1923,98371;2,40091
1921,93255;2,40603
1919,8814;2,41207
1917,83024;2,41707
1915,77909;2,41744
1913,72793;2,41458
1911,67678;2,41478
1909,62562;2,41857
1907,57446;2,42001
1905,52331;2,41811
1903,47215;2,41682
1901,421;2,41755
1899,36984;2,42011
1897,31869;2,42537
1895,26753;2,43126
1893,21638;2,43458
1891,16522;2,43727
1889,11407;2,43958
1887,06291;2,43931
1885,01176;2,43946
1882,9606;2,44235
1880,90945;2,44532
1878,85829;2,44614
1876,80713;2,44577
1874,75598;2,44598
1872,70482;2,44925
1870,65367;2,45791
1868,60251;2,46738
1866,55136;2,469
1864,5002;2,46615
1862,44905;2,46685
1860,39789;2,4708
1858,34674;2,47484
1856,29558;2,47794
1854,24443;2,47949
1852,19327;2,48101
1850,14212;2,4848
1848,09096;2,49048
1846,0398;2,49697
1843,98865;2,50383
1841,93749;2,50864
1839,88634;2,51089
1837,83518;2,5142
1835,78403;2,5204
1833,73287;2,52691
1831,68172;2,53149
1829,63056;2,53451
1827,57941;2,53795
1825,52825;2,54374
1823,4771;2,54979
1821,42594;2,55308
1819,37478;2,55561
1817,32363;2,56111
1815,27247;2,57196
1813,22132;2,5877
1811,17016;2,60463
1809,11901;2,62023
1807,06785;2,63735
1805,0167;2,66122
1802,96554;2,69695
1800,91439;2,74273
1798,86323;2,77957
1796,81208;2,79317
1794,76092;2,792
1792,70977;2,78066
1790,65861;2,75552
1788,60745;2,72594
1786,5563;2,70265
1784,50514;2,68772
1782,45399;2,6783
1780,40283;2,67049
1778,35168;2,6666
1776,30052;2,66999
1774,24937;2,67552
1772,19821;2,67852
1770,14706;2,68062
1768,0959;2,68338
1766,04475;2,68807
1763,99359;2,69643
1761,94244;2,70926
1759,89128;2,72205
1757,84012;2,72765
1755,78897;2,72841
1753,73781;2,73357
1751,68666;2,74528
1749,6355;2,75588
1747,58435;2,75975
1745,53319;2,76359
1743,48204;2,77331
1741,43088;2,78627
1739,37973;2,79731
1737,32857;2,80562
1735,27742;2,81433
1733,22626;2,82349
1731,17511;2,82818
1729,12395;2,83315
1727,07279;2,84542
1725,02164;2,86088
1722,97048;2,8729
1720,91933;2,88359
1718,86817;2,89985
1716,81702;2,92497
1714,76586;2,95014
1712,71471;2,9688
1710,66355;2,98661
1708,6124;3,00723
1706,56124;3,02545
1704,51009;3,03331
1702,45893;3,03589
1700,40778;3,05781
1698,35662;3,1034
1696,30546;3,13819
1694,25431;3,14935
1692,20315;3,15906
1690,152;3,17541
1688,10084;3,17378
1686,04969;3,14738
1683,99853;3,13597
1681,94738;3,15704
1679,89622;3,1755
1677,84507;3,16899
1675,79391;3,1513
1673,74276;3,14843
1671,6916;3,16608
1669,64045;3,18327
1667,58929;3,17447
1665,53813;3,14474
1663,48698;3,11652
1661,43582;3,10501
1659,38467;3,10228
1657,33351;3,09508
1655,28236;3,08236
1653,2312;3,06461
1651,18005;3,05308
1649,12889;3,05739
1647,07774;3,05536
1645,02658;3,03513
1642,97543;3,00788
1640,92427;2,98239
1638,87312;2,97161
1636,82196;2,98494
1634,7708;3,00221
1632,71965;3,0003
1630,66849;2,98749
1628,61734;2,97221
1626,56618;2,96138
1624,51503;2,96266
1622,46387;2,96858
1620,41272;2,96559
1618,36156;2,95724
1616,31041;2,95068
1614,25925;2,94454
1612,2081;2,94012
1610,15694;2,94269
1608,10579;2,94886
1606,05463;2,94442
1604,00347;2,92598
1601,95232;2,9041
1599,90116;2,8896
1597,85001;2,88833
1595,79885;2,8964
1593,7477;2,90181
1591,69654;2,90018
1589,64539;2,89956
1587,59423;2,90429
1585,54308;2,90817
1583,49192;2,90936
1581,44077;2,91375
1579,38961;2,92198
1577,33846;2,92816
1575,2873;2,92609
1573,23614;2,91823
1571,18499;2,90986
1569,13383;2,90071
1567,08268;2,89036
1565,03152;2,88328
1562,98037;2,88467
1560,92921;2,89049
1558,87806;2,88657
1556,8269;2,86711
1554,77575;2,84862
1552,72459;2,83491
1550,67344;2,82559
1548,62228;2,81967
1546,57113;2,81566
1544,51997;2,81367
1542,46881;2,81218
1540,41766;2,80591
1538,3665;2,79375
1536,31535;2,78178
1534,26419;2,76827
1532,21304;2,75495
1530,16188;2,74794
1528,11073;2,74752
1526,05957;2,74869
1524,00842;2,74818
1521,95726;2,74693
1519,90611;2,74687
1517,85495;2,7423
1515,80379;2,72686
1513,75264;2,71149
1511,70148;2,70787
1509,65033;2,71448
1507,59917;2,72127
1505,54802;2,71519
1503,49686;2,70016
1501,44571;2,68565
1499,39455;2,67617
1497,3434;2,67195
1495,29224;2,66747
1493,24109;2,66398
1491,18993;2,66557
1489,13878;2,67105
1487,08762;2,67464
1485,03646;2,67394
1482,98531;2,6716
1480,93415;2,67106
1478,883;2,67389
1476,83184;2,6804
1474,78069;2,68945
1472,72953;2,69921
1470,67838;2,70788
1468,62722;2,71276
1466,57607;2,71576
1464,52491;2,72037
1462,47376;2,72101
1460,4226;2,71594
1458,37145;2,71712
1456,32029;2,72902
1454,26913;2,73624
1452,21798;2,73392
1450,16682;2,72965
1448,11567;2,72738
1446,06451;2,72425
1444,01336;2,7215
1441,9622;2,72033
1439,91105;2,7177
1437,85989;2,71629
1435,80874;2,72052
1433,75758;2,72511
1431,70643;2,72422
1429,65527;2,7175
1427,60412;2,70712
1425,55296;2,6985
1423,5018;2,69399
1421,45065;2,68981
1419,39949;2,68718
1417,34834;2,68696
1415,29718;2,6839
1413,24603;2,67971
1411,19487;2,67785
1409,14372;2,67902
1407,09256;2,68774
1405,04141;2,70456
1402,99025;2,71792
1400,9391;2,71998
1398,88794;2,71841
1396,83679;2,723
1394,78563;2,72975
1392,73447;2,73047
1390,68332;2,72802
1388,63216;2,72877
1386,58101;2,73292
1384,52985;2,7356
1382,4787;2,73668
1380,42754;2,73837
1378,37639;2,73847
1376,32523;2,73546
1374,27408;2,7306
1372,22292;2,72492
1370,17177;2,71848
1368,12061;2,71065
1366,06946;2,7048
1364,0183;2,70342
1361,96714;2,70113
1359,91599;2,69415
1357,86483;2,68895
1355,81368;2,6912
1353,76252;2,69721
1351,71137;2,70104
1349,66021;2,70183
1347,60906;2,70174
1345,5579;2,70246
1343,50675;2,70433
1341,45559;2,70795
1339,40444;2,7111
1337,35328;2,70914
1335,30213;2,70391
1333,25097;2,70171
1331,19981;2,70679
1329,14866;2,71675
1327,0975;2,72529
1325,04635;2,72958
1322,99519;2,72866
1320,94404;2,72493
1318,89288;2,72473
1316,84173;2,73004
1314,79057;2,73694
1312,73942;2,73959
1310,68826;2,73347
1308,63711;2,7252
1306,58595;2,72457
1304,5348;2,72707
1302,48364;2,72457
1300,43248;2,72164
1298,38133;2,7247
1296,33017;2,72853
1294,27902;2,72818
1292,22786;2,72672
1290,17671;2,72853
1288,12555;2,73296
1286,0744;2,73548
1284,02324;2,73572
1281,97209;2,73717
1279,92093;2,74203
1277,86978;2,74785
1275,81862;2,75054
1273,76747;2,75245
1271,71631;2,75712
1269,66515;2,7584
1267,614;2,75459
1265,56284;2,7525
1263,51169;2,75335
1261,46053;2,76007
1259,40938;2,77194
1257,35822;2,78032
1255,30707;2,78378
1253,25591;2,78241
1251,20476;2,7775
1249,1536;2,77535
1247,10245;2,77855
1245,05129;2,78475
1243,00013;2,78957
1240,94898;2,79186
1238,89782;2,79294
1236,84667;2,7913
1234,79551;2,78515
1232,74436;2,77728
1230,6932;2,77443
1228,64205;2,77491
1226,59089;2,77198
1224,53974;2,76984
1222,48858;2,77287
1220,43743;2,77287
1218,38627;2,76484
1216,33512;2,75656
1214,28396;2,75504
1212,2328;2,75703
1210,18165;2,75923
1208,13049;2,76381
1206,07934;2,76807
1204,02818;2,77159
1201,97703;2,77896
1199,92587;2,78774
1197,87472;2,79413
1195,82356;2,79596
1193,77241;2,79372
1191,72125;2,79224
1189,6701;2,79504
1187,61894;2,80484
1185,56779;2,82112
1183,51663;2,83411
1181,46547;2,8403
1179,41432;2,84102
1177,36316;2,83569
1175,31201;2,83526
1173,26085;2,8429
1171,2097;2,85265
1169,15854;2,86577
1167,10739;2,87618
1165,05623;2,88278
1163,00508;2,89568
1160,95392;2,90614
1158,90277;2,90031
1156,85161;2,88745
1154,80046;2,8848
1152,7493;2,89435
1150,69814;2,90335
1148,64699;2,90659
1146,59583;2,9159
1144,54468;2,93949
1142,49352;2,96263
1140,44237;2,97034
1138,39121;2,96729
1136,34006;2,96297
1134,2889;2,96223
1132,23775;2,9664
1130,18659;2,96921
1128,13544;2,97168
1126,08428;2,97854
1124,03313;2,98242
1121,98197;2,98203
1119,93081;2,9823
1117,87966;2,98559
1115,8285;2,99119
1113,77735;2,99562
1111,72619;3,00094
1109,67504;2,99843
1107,62388;2,98398
1105,57273;2,97068
1103,52157;2,96316
1101,47042;2,96177
1099,41926;2,96329
1097,36811;2,95667
1095,31695;2,93796
1093,2658;2,91491
1091,21464;2,9008
1089,16348;2,89524
1087,11233;2,88657
1085,06117;2,8729
1083,01002;2,85587
1080,95886;2,83186
1078,90771;2,80278
1076,85655;2,78461
1074,8054;2,77313
1072,75424;2,75383
1070,70309;2,73834
1068,65193;2,72956
1066,60078;2,71258
1064,54962;2,68278
1062,49847;2,64785
1060,44731;2,61637
1058,39615;2,58852
1056,345;2,55963
1054,29384;2,52643
1052,24269;2,49166
1050,19153;2,46401
1048,14038;2,44454
1046,08922;2,42514
1044,03807;2,40514
1041,98691;2,38872
1039,93576;2,37433
1037,8846;2,36218
1035,83345;2,35403
1033,78229;2,34713
1031,73114;2,33919
1029,67998;2,33194
1027,62882;2,32858
1025,57767;2,3287
1023,52651;2,32881
1021,47536;2,32824
1019,4242;2,32874
1017,37305;2,33089
1015,32189;2,33374
1013,27074;2,33746
1011,21958;2,34191
1009,16843;2,34391
1007,11727;2,34405
1005,06612;2,34693
1003,01496;2,35282
1000,96381;2,36
998,91265;2,3687
996,86149;2,37882
994,81034;2,38804
992,75918;2,3946
990,70803;2,4026
988,65687;2,41319
986,60572;2,42136
984,55456;2,42864
982,50341;2,43822
980,45225;2,44805
978,4011;2,4585
976,34994;2,46961
974,29879;2,47953
972,24763;2,48896
970,19647;2,49517
968,14532;2,49921
966,09416;2,50722
964,04301;2,5135
961,99185;2,51388
959,9407;2,51696
957,88954;2,52427
955,83839;2,53157
953,78723;2,53878
951,73608;2,54426
949,68492;2,55018
947,63377;2,56059
945,58261;2,57104
943,53146;2,57615
941,4803;2,5814
939,42914;2,59388
937,37799;2,60802
935,32683;2,61278
933,27568;2,60863
931,22452;2,61123
929,17337;2,62531
927,12221;2,63347
925,07106;2,63315
923,0199;2,6379
920,96875;2,64566
918,91759;2,64616
916,86644;2,6447
914,81528;2,65069
912,76413;2,65937
910,71297;2,66942
908,66181;2,68153
906,61066;2,68651
904,5595;2,68437
902,50835;2,68675
900,45719;2,69619
898,40604;2,70303
896,35488;2,70389
894,30373;2,70295
892,25257;2,69895
890,20142;2,69109
888,15026;2,68458
886,09911;2,68073
884,04795;2,67783
881,9968;2,67661
879,94564;2,67918
877,89448;2,68851
875,84333;2,70141
873,79217;2,70672
871,74102;2,70824
869,68986;2,71618
867,63871;2,72563
865,58755;2,73707
863,5364;2,75121
861,48524;2,76209
859,43409;2,76713
857,38293;2,76857
855,33178;2,77119
853,28062;2,77314
851,22947;2,77808
849,17831;2,78986
847,12715;2,79252
845,076;2,78327
843,02484;2,77697
840,97369;2,78182
838,92253;2,80516
836,87138;2,83064
834,82022;2,83942
832,76907;2,83795
830,71791;2,82666
828,66676;2,8206
826,6156;2,82933
824,56445;2,83839
822,51329;2,84778
820,46214;2,85536
818,41098;2,85345
816,35982;2,84848
814,30867;2,85323
812,25751;2,87413
810,20636;2,89602
808,1552;2,89236
806,10405;2,86601
804,05289;2,84771
802,00174;2,8516
799,95058;2,87144
797,89943;2,89678
795,84827;2,91967
793,79712;2,92245
791,74596;2,91773
789,69481;2,9182
787,64365;2,91293
785,59249;2,9056
783,54134;2,90404
781,49018;2,90528
779,43903;2,91007
777,38787;2,9163
775,33672;2,92397
773,28556;2,94508
771,23441;2,96507
769,18325;2,95871
767,1321;2,94025
765,08094;2,93429
763,02979;2,9293
760,97863;2,91739
758,92748;2,92827
756,87632;2,96424
754,82516;2,97444
752,77401;2,95816
750,72285;2,94712
748,6717;2,93725
746,62054;2,93985
744,56939;2,96804
742,51823;3,01408
740,46708;3,04014
738,41592;3,01263
736,36477;2,96158
734,31361;2,91973
732,26246;2,91014
730,2113;2,93434
728,16015;2,95328
726,10899;2,94739
724,05783;2,9373
722,00668;2,94115
719,95552;2,96115
717,90437;2,97194
715,85321;2,94791
713,80206;2,9036
711,7509;2,87864
709,69975;2,8888
707,64859;2,90945
705,59744;2,91414
703,54628;2,90643
701,49513;2,89967
699,44397;2,8924
697,39281;2,88061
695,34166;2,87928
693,2905;2,90132
691,23935;2,92678
689,18819;2,92488
687,13704;2,90066
685,08588;2,87429
683,03473;2,84875
680,98357;2,82633
678,93242;2,81383
676,88126;2,81633
674,83011;2,82877
672,77895;2,83747
670,7278;2,83529
668,67664;2,83153
666,62548;2,83786
664,57433;2,8425
662,52317;2,829
660,47202;2,80516
658,42086;2,79025
656,36971;2,78662
654,31855;2,78724
652,2674;2,7907
650,21624;2,79748
648,16509;2,80305
646,11393;2,80331
644,06278;2,80435
642,01162;2,80474
639,96047;2,78992
637,90931;2,77606
635,85815;2,78867
633,807;2,80287
631,75584;2,79118
629,70469;2,77959
627,65353;2,79375
625,60238;2,80841
623,55122;2,81139
621,50007;2,81156
619,44891;2,81908
617,39776;2,8173
615,3466;2,79309
613,29545;2,78019
611,24429;2,80446
609,19314;2,83255
607,14198;2,83768
605,09082;2,84632
603,03967;2,86639
600,98851;2,87313
598,93736;2,8455
596,8862;2,81092
594,83505;2,80941
592,78389;2,83847
590,73274;2,87426
588,68158;2,89539
586,63043;2,87353
584,57927;2,82833
582,52812;2,80325
580,47696;2,80377
578,42581;2,83094
576,37465;2,8811
574,32349;2,90257
572,27234;2,87197
570,22118;2,82802
568,17003;2,81056
566,11887;2,81654
564,06772;2,8312
562,01656;2,82948
559,96541;2,7934
557,91425;2,7679
555,8631;2,77343
553,81194;2,77672
551,76079;2,77392
549,70963;2,78384
547,65848;2,79639
545,60732;2,79384
543,55616;2,77928
541,50501;2,76393
539,45385;2,73684
537,4027;2,69206
535,35154;2,65426
533,30039;2,64727
531,24923;2,66415
529,19808;2,66347
527,14692;2,62503
525,09577;2,57444
523,04461;2,53415
520,99346;2,50864
518,9423;2,4905
516,89115;2,47393
514,83999;2,46113
512,78883;2,4465
510,73768;2,43502
508,68652;2,43781
506,63537;2,44006
504,58421;2,42658
502,53306;2,4117
500,4819;2,40307
498,43075;2,3906
496,37959;2,38134
494,32844;2,37751
492,27728;2,35589
490,22613;2,32591
488,17497;2,31992
486,12382;2,3288
484,07266;2,32602
482,0215;2,31326
479,97035;2,29544
477,91919;2,27207
475,86804;2,25152
473,81688;2,23563
471,76573;2,21559
469,71457;2,19191
467,66342;2,1689
465,61226;2,14507
463,56111;2,12715
461,50995;2,12581
459,4588;2,13279
457,40764;2,12785
455,35649;2,11503
453,30533;2,11047
451,25417;2,11215
449,20302;2,1142
447,15186;2,1204
445,10071;2,13353
443,04955;2,145
440,9984;2,14142
438,94724;2,12822
436,89609;2,126
434,84493;2,1342
432,79378;2,13601
430,74262;2,13957
428,69147;2,16827
426,64031;2,21821
424,58916;2,25244
422,538;2,24864
420,48684;2,22506
418,43569;2,20323
416,38453;2,20476
414,33338;2,23742
412,28222;2,26342
410,23107;2,24987
408,17991;2,2253
406,12876;2,22692
404,0776;2,24775
402,02645;2,26628
399,97529;2,27578
